# IsPeriodic    : True
# Period        : 0.622447 days
# Normalization : <g_mag>=0
# 
# Phase u_mag  g_mag  r_mag  i_mag  z_mag  y_mag
 0.000  0.610 -0.568 -0.557 -0.523 -0.475 -0.475
 0.002  0.610 -0.568 -0.557 -0.523 -0.475 -0.475
 0.004  0.610 -0.567 -0.556 -0.523 -0.475 -0.475
 0.006  0.611 -0.566 -0.556 -0.523 -0.475 -0.475
 0.008  0.612 -0.565 -0.556 -0.522 -0.475 -0.475
 0.010  0.613 -0.563 -0.555 -0.521 -0.474 -0.474
 0.012  0.615 -0.562 -0.554 -0.520 -0.474 -0.474
 0.014  0.616 -0.560 -0.554 -0.519 -0.473 -0.473
 0.016  0.617 -0.558 -0.553 -0.517 -0.473 -0.473
 0.018  0.619 -0.556 -0.552 -0.516 -0.472 -0.472
 0.020  0.621 -0.553 -0.551 -0.514 -0.472 -0.472
 0.022  0.623 -0.550 -0.550 -0.512 -0.471 -0.471
 0.024  0.625 -0.547 -0.549 -0.510 -0.471 -0.471
 0.026  0.627 -0.546 -0.548 -0.508 -0.470 -0.470
 0.028  0.630 -0.543 -0.547 -0.507 -0.469 -0.469
 0.030  0.631 -0.539 -0.546 -0.505 -0.468 -0.468
 0.032  0.634 -0.536 -0.544 -0.502 -0.467 -0.467
 0.034  0.636 -0.533 -0.543 -0.500 -0.467 -0.467
 0.036  0.638 -0.531 -0.541 -0.498 -0.466 -0.466
 0.038  0.641 -0.527 -0.540 -0.496 -0.465 -0.465
 0.040  0.643 -0.523 -0.538 -0.494 -0.464 -0.464
 0.042  0.646 -0.520 -0.536 -0.492 -0.463 -0.463
 0.044  0.649 -0.517 -0.535 -0.489 -0.462 -0.462
 0.046  0.652 -0.513 -0.533 -0.487 -0.461 -0.461
 0.048  0.655 -0.509 -0.531 -0.485 -0.460 -0.460
 0.050  0.657 -0.504 -0.529 -0.483 -0.459 -0.459
 0.052  0.661 -0.501 -0.527 -0.481 -0.457 -0.457
 0.054  0.664 -0.496 -0.525 -0.479 -0.456 -0.456
 0.056  0.668 -0.491 -0.523 -0.477 -0.455 -0.455
 0.058  0.671 -0.487 -0.520 -0.475 -0.454 -0.454
 0.060  0.675 -0.482 -0.518 -0.473 -0.452 -0.452
 0.062  0.678 -0.477 -0.515 -0.472 -0.451 -0.451
 0.064  0.682 -0.472 -0.513 -0.470 -0.449 -0.449
 0.066  0.686 -0.468 -0.510 -0.467 -0.448 -0.448
 0.068  0.689 -0.462 -0.507 -0.465 -0.446 -0.446
 0.070  0.694 -0.456 -0.505 -0.464 -0.445 -0.445
 0.072  0.698 -0.452 -0.502 -0.462 -0.443 -0.443
 0.074  0.701 -0.446 -0.499 -0.460 -0.441 -0.441
 0.076  0.706 -0.441 -0.497 -0.458 -0.440 -0.440
 0.078  0.710 -0.435 -0.493 -0.456 -0.438 -0.438
 0.080  0.714 -0.429 -0.491 -0.454 -0.436 -0.436
 0.082  0.719 -0.424 -0.488 -0.452 -0.435 -0.435
 0.084  0.723 -0.418 -0.485 -0.450 -0.433 -0.433
 0.086  0.727 -0.413 -0.482 -0.448 -0.432 -0.432
 0.088  0.731 -0.408 -0.480 -0.447 -0.430 -0.430
 0.090  0.735 -0.402 -0.477 -0.445 -0.428 -0.428
 0.092  0.740 -0.397 -0.474 -0.443 -0.427 -0.427
 0.094  0.744 -0.392 -0.471 -0.441 -0.426 -0.426
 0.096  0.748 -0.387 -0.468 -0.440 -0.424 -0.424
 0.098  0.753 -0.382 -0.465 -0.438 -0.423 -0.423
 0.100  0.757 -0.377 -0.462 -0.436 -0.421 -0.421
 0.102  0.760 -0.372 -0.460 -0.434 -0.420 -0.420
 0.104  0.765 -0.367 -0.457 -0.432 -0.418 -0.418
 0.106  0.769 -0.363 -0.454 -0.430 -0.417 -0.417
 0.108  0.773 -0.358 -0.451 -0.429 -0.416 -0.416
 0.110  0.778 -0.353 -0.449 -0.427 -0.414 -0.414
 0.112  0.781 -0.349 -0.446 -0.425 -0.413 -0.413
 0.114  0.786 -0.344 -0.443 -0.424 -0.411 -0.411
 0.116  0.790 -0.340 -0.440 -0.422 -0.410 -0.410
 0.118  0.794 -0.335 -0.437 -0.420 -0.409 -0.409
 0.120  0.798 -0.332 -0.435 -0.418 -0.408 -0.408
 0.122  0.802 -0.327 -0.431 -0.416 -0.406 -0.406
 0.124  0.806 -0.323 -0.429 -0.415 -0.405 -0.405
 0.126  0.811 -0.319 -0.426 -0.413 -0.404 -0.404
 0.128  0.814 -0.315 -0.423 -0.411 -0.403 -0.403
 0.130  0.818 -0.311 -0.420 -0.410 -0.401 -0.401
 0.132  0.823 -0.307 -0.418 -0.408 -0.400 -0.400
 0.134  0.826 -0.304 -0.415 -0.406 -0.399 -0.399
 0.136  0.831 -0.300 -0.412 -0.404 -0.398 -0.398
 0.138  0.835 -0.296 -0.409 -0.402 -0.397 -0.397
 0.140  0.839 -0.292 -0.406 -0.401 -0.396 -0.396
 0.142  0.843 -0.289 -0.403 -0.399 -0.395 -0.395
 0.144  0.847 -0.285 -0.400 -0.397 -0.393 -0.393
 0.146  0.851 -0.282 -0.398 -0.396 -0.392 -0.392
 0.148  0.855 -0.278 -0.395 -0.394 -0.391 -0.391
 0.150  0.859 -0.274 -0.392 -0.392 -0.390 -0.390
 0.152  0.863 -0.271 -0.390 -0.391 -0.389 -0.389
 0.154  0.867 -0.268 -0.387 -0.389 -0.388 -0.388
 0.156  0.871 -0.264 -0.385 -0.387 -0.387 -0.387
 0.158  0.875 -0.261 -0.382 -0.385 -0.386 -0.386
 0.160  0.879 -0.258 -0.379 -0.384 -0.385 -0.385
 0.162  0.883 -0.254 -0.377 -0.382 -0.383 -0.383
 0.164  0.887 -0.251 -0.374 -0.380 -0.382 -0.382
 0.166  0.890 -0.247 -0.371 -0.379 -0.382 -0.382
 0.168  0.895 -0.243 -0.369 -0.377 -0.380 -0.380
 0.170  0.898 -0.240 -0.367 -0.376 -0.379 -0.379
 0.172  0.903 -0.237 -0.364 -0.374 -0.378 -0.378
 0.174  0.906 -0.233 -0.362 -0.373 -0.377 -0.377
 0.176  0.910 -0.229 -0.359 -0.370 -0.376 -0.376
 0.178  0.914 -0.226 -0.357 -0.369 -0.374 -0.374
 0.180  0.917 -0.222 -0.355 -0.367 -0.373 -0.373
 0.182  0.922 -0.219 -0.353 -0.366 -0.373 -0.373
 0.184  0.925 -0.215 -0.350 -0.364 -0.371 -0.371
 0.186  0.929 -0.212 -0.348 -0.363 -0.370 -0.370
 0.188  0.933 -0.208 -0.346 -0.361 -0.369 -0.369
 0.190  0.936 -0.204 -0.344 -0.360 -0.368 -0.368
 0.192  0.940 -0.200 -0.342 -0.358 -0.366 -0.366
 0.194  0.944 -0.197 -0.340 -0.357 -0.365 -0.365
 0.196  0.948 -0.194 -0.338 -0.355 -0.364 -0.364
 0.198  0.951 -0.190 -0.336 -0.354 -0.363 -0.363
 0.200  0.955 -0.186 -0.334 -0.352 -0.362 -0.362
 0.202  0.959 -0.182 -0.332 -0.351 -0.361 -0.361
 0.204  0.962 -0.179 -0.330 -0.350 -0.359 -0.359
 0.206  0.966 -0.175 -0.328 -0.348 -0.358 -0.358
 0.208  0.969 -0.171 -0.326 -0.347 -0.357 -0.357
 0.210  0.973 -0.167 -0.324 -0.346 -0.356 -0.356
 0.212  0.977 -0.164 -0.322 -0.344 -0.355 -0.355
 0.214  0.981 -0.160 -0.320 -0.343 -0.354 -0.354
 0.216  0.984 -0.156 -0.319 -0.342 -0.352 -0.352
 0.218  0.987 -0.152 -0.317 -0.340 -0.351 -0.351
 0.220  0.991 -0.149 -0.315 -0.339 -0.350 -0.350
 0.222  0.994 -0.145 -0.314 -0.337 -0.349 -0.349
 0.224  0.998 -0.141 -0.312 -0.336 -0.347 -0.347
 0.226  1.001 -0.137 -0.310 -0.335 -0.346 -0.346
 0.228  1.005 -0.134 -0.309 -0.334 -0.345 -0.345
 0.230  1.008 -0.130 -0.307 -0.333 -0.344 -0.344
 0.232  1.012 -0.127 -0.305 -0.332 -0.343 -0.343
 0.234  1.015 -0.123 -0.303 -0.330 -0.341 -0.341
 0.236  1.019 -0.120 -0.301 -0.329 -0.340 -0.340
 0.238  1.021 -0.116 -0.299 -0.328 -0.339 -0.339
 0.240  1.025 -0.113 -0.297 -0.327 -0.338 -0.338
 0.242  1.028 -0.109 -0.296 -0.326 -0.337 -0.337
 0.244  1.032 -0.106 -0.294 -0.325 -0.336 -0.336
 0.246  1.035 -0.103 -0.292 -0.323 -0.335 -0.335
 0.248  1.038 -0.099 -0.290 -0.322 -0.333 -0.333
 0.250  1.041 -0.096 -0.288 -0.321 -0.332 -0.332
 0.252  1.045 -0.092 -0.287 -0.320 -0.331 -0.331
 0.254  1.047 -0.090 -0.285 -0.318 -0.330 -0.330
 0.256  1.051 -0.087 -0.283 -0.317 -0.329 -0.329
 0.258  1.054 -0.083 -0.281 -0.316 -0.328 -0.328
 0.260  1.057 -0.080 -0.279 -0.315 -0.327 -0.327
 0.262  1.060 -0.077 -0.277 -0.313 -0.326 -0.326
 0.264  1.063 -0.074 -0.275 -0.312 -0.324 -0.324
 0.266  1.066 -0.071 -0.274 -0.311 -0.323 -0.323
 0.268  1.070 -0.068 -0.272 -0.310 -0.322 -0.322
 0.270  1.072 -0.065 -0.270 -0.308 -0.321 -0.321
 0.272  1.075 -0.062 -0.268 -0.307 -0.320 -0.320
 0.274  1.078 -0.060 -0.266 -0.305 -0.319 -0.319
 0.276  1.081 -0.057 -0.264 -0.304 -0.318 -0.318
 0.278  1.085 -0.054 -0.262 -0.303 -0.317 -0.317
 0.280  1.087 -0.051 -0.260 -0.301 -0.316 -0.316
 0.282  1.090 -0.048 -0.258 -0.300 -0.315 -0.315
 0.284  1.093 -0.046 -0.256 -0.298 -0.313 -0.313
 0.286  1.096 -0.043 -0.254 -0.297 -0.312 -0.312
 0.288  1.098 -0.040 -0.252 -0.296 -0.311 -0.311
 0.290  1.102 -0.037 -0.250 -0.294 -0.311 -0.311
 0.292  1.104 -0.035 -0.248 -0.293 -0.309 -0.309
 0.294  1.107 -0.032 -0.246 -0.291 -0.308 -0.308
 0.296  1.110 -0.030 -0.244 -0.289 -0.307 -0.307
 0.298  1.113 -0.027 -0.242 -0.288 -0.306 -0.306
 0.300  1.116 -0.024 -0.240 -0.286 -0.305 -0.305
 0.302  1.118 -0.022 -0.239 -0.285 -0.304 -0.304
 0.304  1.121 -0.019 -0.237 -0.283 -0.303 -0.303
 0.306  1.124 -0.016 -0.235 -0.282 -0.302 -0.302
 0.308  1.127 -0.014 -0.233 -0.280 -0.301 -0.301
 0.310  1.130 -0.011 -0.231 -0.279 -0.300 -0.300
 0.312  1.132 -0.008 -0.229 -0.277 -0.298 -0.298
 0.314  1.135 -0.005 -0.227 -0.276 -0.297 -0.297
 0.316  1.138 -0.003 -0.225 -0.273 -0.296 -0.296
 0.318  1.141 -0.000 -0.223 -0.272 -0.295 -0.295
 0.320  1.143  0.002 -0.221 -0.270 -0.293 -0.293
 0.322  1.146  0.005 -0.219 -0.269 -0.293 -0.293
 0.324  1.149  0.008 -0.217 -0.267 -0.292 -0.292
 0.326  1.152  0.011 -0.215 -0.266 -0.290 -0.290
 0.328  1.155  0.014 -0.213 -0.264 -0.289 -0.289
 0.330  1.157  0.016 -0.212 -0.263 -0.288 -0.288
 0.332  1.160  0.019 -0.210 -0.262 -0.287 -0.287
 0.334  1.163  0.022 -0.208 -0.260 -0.285 -0.285
 0.336  1.165  0.025 -0.206 -0.258 -0.284 -0.284
 0.338  1.169  0.028 -0.204 -0.257 -0.283 -0.283
 0.340  1.171  0.030 -0.203 -0.255 -0.282 -0.282
 0.342  1.174  0.033 -0.201 -0.254 -0.281 -0.281
 0.344  1.176  0.036 -0.199 -0.253 -0.279 -0.279
 0.346  1.179  0.039 -0.197 -0.251 -0.278 -0.278
 0.348  1.182  0.042 -0.195 -0.250 -0.277 -0.277
 0.350  1.185  0.045 -0.194 -0.249 -0.275 -0.275
 0.352  1.188  0.047 -0.192 -0.247 -0.275 -0.275
 0.354  1.190  0.050 -0.190 -0.246 -0.273 -0.273
 0.356  1.193  0.053 -0.188 -0.245 -0.272 -0.272
 0.358  1.195  0.056 -0.186 -0.243 -0.270 -0.270
 0.360  1.198  0.059 -0.184 -0.241 -0.269 -0.269
 0.362  1.201  0.061 -0.182 -0.240 -0.268 -0.268
 0.364  1.204  0.064 -0.181 -0.239 -0.266 -0.266
 0.366  1.207  0.067 -0.179 -0.238 -0.266 -0.266
 0.368  1.209  0.070 -0.177 -0.236 -0.264 -0.264
 0.370  1.212  0.073 -0.176 -0.235 -0.263 -0.263
 0.372  1.215  0.076 -0.174 -0.234 -0.262 -0.262
 0.374  1.217  0.078 -0.172 -0.233 -0.260 -0.260
 0.376  1.219  0.081 -0.170 -0.232 -0.259 -0.259
 0.378  1.221  0.083 -0.168 -0.230 -0.258 -0.258
 0.380  1.224  0.086 -0.167 -0.229 -0.257 -0.257
 0.382  1.227  0.089 -0.165 -0.228 -0.256 -0.256
 0.384  1.229  0.091 -0.164 -0.226 -0.254 -0.254
 0.386  1.231  0.094 -0.162 -0.225 -0.253 -0.253
 0.388  1.234  0.096 -0.161 -0.224 -0.252 -0.252
 0.390  1.236  0.099 -0.159 -0.223 -0.250 -0.250
 0.392  1.238  0.102 -0.157 -0.222 -0.249 -0.249
 0.394  1.241  0.104 -0.155 -0.220 -0.248 -0.248
 0.396  1.242  0.106 -0.154 -0.219 -0.247 -0.247
 0.398  1.245  0.109 -0.152 -0.218 -0.246 -0.246
 0.400  1.247  0.111 -0.151 -0.217 -0.245 -0.245
 0.402  1.249  0.114 -0.149 -0.216 -0.244 -0.244
 0.404  1.251  0.116 -0.147 -0.214 -0.242 -0.242
 0.406  1.254  0.119 -0.146 -0.213 -0.241 -0.241
 0.408  1.255  0.121 -0.144 -0.212 -0.240 -0.240
 0.410  1.257  0.123 -0.143 -0.210 -0.239 -0.239
 0.412  1.259  0.125 -0.141 -0.209 -0.238 -0.238
 0.414  1.261  0.127 -0.140 -0.208 -0.237 -0.237
 0.416  1.263  0.130 -0.138 -0.206 -0.236 -0.236
 0.418  1.265  0.132 -0.137 -0.205 -0.234 -0.234
 0.420  1.267  0.134 -0.135 -0.204 -0.233 -0.233
 0.422  1.268  0.137 -0.133 -0.203 -0.232 -0.232
 0.424  1.270  0.138 -0.132 -0.201 -0.231 -0.231
 0.426  1.272  0.140 -0.131 -0.200 -0.230 -0.230
 0.428  1.273  0.142 -0.130 -0.199 -0.229 -0.229
 0.430  1.275  0.145 -0.128 -0.197 -0.228 -0.228
 0.432  1.277  0.147 -0.126 -0.196 -0.227 -0.227
 0.434  1.279  0.149 -0.125 -0.195 -0.226 -0.226
 0.436  1.280  0.151 -0.124 -0.193 -0.225 -0.225
 0.438  1.282  0.152 -0.122 -0.192 -0.223 -0.223
 0.440  1.284  0.154 -0.121 -0.190 -0.222 -0.222
 0.442  1.286  0.156 -0.120 -0.189 -0.222 -0.222
 0.444  1.287  0.158 -0.118 -0.188 -0.221 -0.221
 0.446  1.289  0.160 -0.116 -0.186 -0.219 -0.219
 0.448  1.291  0.162 -0.115 -0.185 -0.218 -0.218
 0.450  1.293  0.164 -0.114 -0.184 -0.217 -0.217
 0.452  1.294  0.166 -0.112 -0.182 -0.216 -0.216
 0.454  1.296  0.167 -0.111 -0.181 -0.215 -0.215
 0.456  1.298  0.169 -0.110 -0.180 -0.214 -0.214
 0.458  1.299  0.171 -0.108 -0.178 -0.213 -0.213
 0.460  1.301  0.172 -0.107 -0.176 -0.212 -0.212
 0.462  1.303  0.174 -0.106 -0.175 -0.211 -0.211
 0.464  1.305  0.176 -0.104 -0.174 -0.210 -0.210
 0.466  1.306  0.178 -0.102 -0.173 -0.209 -0.209
 0.468  1.309  0.180 -0.101 -0.171 -0.208 -0.208
 0.470  1.311  0.181 -0.100 -0.170 -0.207 -0.207
 0.472  1.312  0.182 -0.098 -0.169 -0.205 -0.205
 0.474  1.314  0.184 -0.097 -0.168 -0.204 -0.204
 0.476  1.316  0.185 -0.096 -0.167 -0.204 -0.204
 0.478  1.318  0.187 -0.095 -0.165 -0.203 -0.203
 0.480  1.320  0.189 -0.093 -0.164 -0.202 -0.202
 0.482  1.322  0.190 -0.092 -0.163 -0.200 -0.200
 0.484  1.324  0.192 -0.091 -0.162 -0.199 -0.199
 0.486  1.325  0.193 -0.089 -0.160 -0.198 -0.198
 0.488  1.328  0.195 -0.088 -0.159 -0.197 -0.197
 0.490  1.330  0.196 -0.087 -0.158 -0.196 -0.196
 0.492  1.332  0.197 -0.085 -0.157 -0.195 -0.195
 0.494  1.334  0.198 -0.084 -0.156 -0.194 -0.194
 0.496  1.336  0.200 -0.083 -0.155 -0.193 -0.193
 0.498  1.338  0.201 -0.081 -0.154 -0.192 -0.192
 0.500  1.340  0.202 -0.080 -0.153 -0.191 -0.191
 0.502  1.343  0.204 -0.079 -0.152 -0.190 -0.190
 0.504  1.345  0.205 -0.078 -0.152 -0.189 -0.189
 0.506  1.346  0.206 -0.077 -0.151 -0.188 -0.188
 0.508  1.349  0.208 -0.075 -0.150 -0.187 -0.187
 0.510  1.351  0.209 -0.074 -0.149 -0.186 -0.186
 0.512  1.352  0.210 -0.073 -0.148 -0.185 -0.185
 0.514  1.354  0.211 -0.071 -0.147 -0.184 -0.184
 0.516  1.356  0.213 -0.071 -0.146 -0.183 -0.183
 0.518  1.358  0.213 -0.069 -0.145 -0.182 -0.182
 0.520  1.359  0.214 -0.068 -0.144 -0.181 -0.181
 0.522  1.361  0.215 -0.067 -0.143 -0.180 -0.180
 0.524  1.362  0.216 -0.066 -0.143 -0.179 -0.179
 0.526  1.364  0.217 -0.065 -0.142 -0.178 -0.178
 0.528  1.364  0.218 -0.063 -0.141 -0.177 -0.177
 0.530  1.366  0.219 -0.063 -0.140 -0.177 -0.177
 0.532  1.367  0.220 -0.061 -0.140 -0.176 -0.176
 0.534  1.369  0.222 -0.060 -0.139 -0.175 -0.175
 0.536  1.370  0.223 -0.059 -0.138 -0.174 -0.174
 0.538  1.371  0.223 -0.058 -0.138 -0.173 -0.173
 0.540  1.371  0.224 -0.058 -0.137 -0.173 -0.173
 0.542  1.372  0.225 -0.056 -0.136 -0.172 -0.172
 0.544  1.373  0.226 -0.056 -0.136 -0.171 -0.171
 0.546  1.374  0.227 -0.054 -0.135 -0.170 -0.170
 0.548  1.374  0.228 -0.054 -0.134 -0.169 -0.169
 0.550  1.375  0.228 -0.052 -0.134 -0.168 -0.168
 0.552  1.375  0.229 -0.052 -0.133 -0.168 -0.168
 0.554  1.376  0.230 -0.050 -0.133 -0.167 -0.167
 0.556  1.376  0.230 -0.050 -0.132 -0.167 -0.167
 0.558  1.377  0.231 -0.049 -0.131 -0.166 -0.166
 0.560  1.377  0.232 -0.048 -0.131 -0.165 -0.165
 0.562  1.377  0.233 -0.047 -0.130 -0.164 -0.164
 0.564  1.377  0.233 -0.046 -0.129 -0.164 -0.164
 0.566  1.377  0.234 -0.045 -0.129 -0.163 -0.163
 0.568  1.377  0.235 -0.044 -0.128 -0.162 -0.162
 0.570  1.377  0.235 -0.044 -0.128 -0.161 -0.161
 0.572  1.376  0.236 -0.043 -0.127 -0.161 -0.161
 0.574  1.376  0.237 -0.042 -0.127 -0.160 -0.160
 0.576  1.376  0.237 -0.041 -0.126 -0.159 -0.159
 0.578  1.375  0.238 -0.040 -0.126 -0.159 -0.159
 0.580  1.375  0.238 -0.040 -0.125 -0.159 -0.159
 0.582  1.375  0.239 -0.039 -0.125 -0.158 -0.158
 0.584  1.374  0.239 -0.038 -0.124 -0.157 -0.157
 0.586  1.374  0.240 -0.038 -0.124 -0.157 -0.157
 0.588  1.374  0.240 -0.037 -0.123 -0.156 -0.156
 0.590  1.373  0.241 -0.036 -0.123 -0.155 -0.155
 0.592  1.373  0.241 -0.036 -0.122 -0.155 -0.155
 0.594  1.373  0.241 -0.035 -0.122 -0.154 -0.154
 0.596  1.372  0.242 -0.035 -0.122 -0.153 -0.153
 0.598  1.372  0.242 -0.034 -0.121 -0.152 -0.152
 0.600  1.372  0.242 -0.034 -0.121 -0.152 -0.152
 0.602  1.372  0.243 -0.033 -0.120 -0.151 -0.151
 0.604  1.372  0.243 -0.033 -0.120 -0.150 -0.150
 0.606  1.372  0.243 -0.032 -0.120 -0.150 -0.150
 0.608  1.371  0.243 -0.032 -0.119 -0.150 -0.150
 0.610  1.371  0.243 -0.032 -0.119 -0.149 -0.149
 0.612  1.371  0.243 -0.032 -0.118 -0.148 -0.148
 0.614  1.371  0.243 -0.031 -0.118 -0.147 -0.147
 0.616  1.371  0.243 -0.031 -0.117 -0.147 -0.147
 0.618  1.371  0.243 -0.030 -0.117 -0.146 -0.146
 0.620  1.371  0.243 -0.030 -0.117 -0.145 -0.145
 0.622  1.371  0.243 -0.030 -0.116 -0.145 -0.145
 0.624  1.371  0.244 -0.030 -0.116 -0.144 -0.144
 0.626  1.371  0.244 -0.030 -0.115 -0.143 -0.143
 0.628  1.371  0.244 -0.030 -0.115 -0.143 -0.143
 0.630  1.371  0.243 -0.029 -0.114 -0.142 -0.142
 0.632  1.371  0.243 -0.029 -0.114 -0.141 -0.141
 0.634  1.371  0.243 -0.029 -0.113 -0.141 -0.141
 0.636  1.372  0.243 -0.029 -0.113 -0.140 -0.140
 0.638  1.372  0.243 -0.029 -0.112 -0.140 -0.140
 0.640  1.372  0.243 -0.029 -0.112 -0.139 -0.139
 0.642  1.372  0.243 -0.029 -0.111 -0.138 -0.138
 0.644  1.372  0.243 -0.029 -0.111 -0.138 -0.138
 0.646  1.373  0.243 -0.029 -0.110 -0.137 -0.137
 0.648  1.373  0.243 -0.029 -0.110 -0.136 -0.136
 0.650  1.373  0.243 -0.029 -0.109 -0.135 -0.135
 0.652  1.374  0.243 -0.029 -0.109 -0.135 -0.135
 0.654  1.374  0.243 -0.028 -0.109 -0.134 -0.134
 0.656  1.374  0.243 -0.028 -0.108 -0.133 -0.133
 0.658  1.375  0.243 -0.028 -0.108 -0.132 -0.132
 0.660  1.375  0.243 -0.028 -0.107 -0.132 -0.132
 0.662  1.375  0.243 -0.028 -0.107 -0.131 -0.131
 0.664  1.376  0.243 -0.028 -0.106 -0.131 -0.131
 0.666  1.376  0.243 -0.027 -0.106 -0.130 -0.130
 0.668  1.376  0.243 -0.027 -0.105 -0.129 -0.129
 0.670  1.377  0.243 -0.026 -0.105 -0.128 -0.128
 0.672  1.377  0.243 -0.026 -0.104 -0.127 -0.127
 0.674  1.377  0.243 -0.025 -0.103 -0.126 -0.126
 0.676  1.377  0.243 -0.025 -0.103 -0.126 -0.126
 0.678  1.377  0.244 -0.024 -0.102 -0.125 -0.125
 0.680  1.378  0.244 -0.024 -0.101 -0.124 -0.124
 0.682  1.378  0.245 -0.023 -0.100 -0.123 -0.123
 0.684  1.379  0.245 -0.023 -0.100 -0.122 -0.122
 0.686  1.379  0.246 -0.022 -0.099 -0.122 -0.122
 0.688  1.380  0.246 -0.021 -0.098 -0.121 -0.121
 0.690  1.380  0.247 -0.020 -0.096 -0.120 -0.120
 0.692  1.381  0.248 -0.019 -0.095 -0.119 -0.119
 0.694  1.381  0.248 -0.019 -0.094 -0.118 -0.118
 0.696  1.382  0.249 -0.018 -0.093 -0.117 -0.117
 0.698  1.383  0.250 -0.017 -0.092 -0.116 -0.116
 0.700  1.383  0.251 -0.016 -0.091 -0.115 -0.115
 0.702  1.384  0.252 -0.015 -0.089 -0.114 -0.114
 0.704  1.384  0.253 -0.014 -0.088 -0.113 -0.113
 0.706  1.384  0.254 -0.013 -0.086 -0.112 -0.112
 0.708  1.385  0.255 -0.011 -0.085 -0.111 -0.111
 0.710  1.385  0.256 -0.011 -0.084 -0.110 -0.110
 0.712  1.386  0.257 -0.009 -0.082 -0.109 -0.109
 0.714  1.386  0.258 -0.008 -0.080 -0.108 -0.108
 0.716  1.387  0.258 -0.007 -0.078 -0.107 -0.107
 0.718  1.388  0.259 -0.005 -0.077 -0.106 -0.106
 0.720  1.388  0.260 -0.004 -0.075 -0.105 -0.105
 0.722  1.389  0.262 -0.003 -0.073 -0.104 -0.104
 0.724  1.390  0.263 -0.001 -0.071 -0.103 -0.103
 0.726  1.390  0.265  0.001 -0.069 -0.101 -0.101
 0.728  1.391  0.266  0.002 -0.067 -0.100 -0.100
 0.730  1.392  0.268  0.004 -0.065 -0.098 -0.098
 0.732  1.394  0.270  0.005 -0.063 -0.097 -0.097
 0.734  1.395  0.272  0.007 -0.061 -0.096 -0.096
 0.736  1.397  0.273  0.009 -0.059 -0.094 -0.094
 0.738  1.397  0.275  0.011 -0.057 -0.092 -0.092
 0.740  1.399  0.277  0.013 -0.055 -0.090 -0.090
 0.742  1.401  0.279  0.015 -0.053 -0.088 -0.088
 0.744  1.403  0.281  0.017 -0.051 -0.086 -0.086
 0.746  1.404  0.284  0.020 -0.048 -0.084 -0.084
 0.748  1.406  0.286  0.022 -0.046 -0.082 -0.082
 0.750  1.408  0.289  0.024 -0.044 -0.080 -0.080
 0.752  1.410  0.290  0.026 -0.042 -0.078 -0.078
 0.754  1.411  0.293  0.028 -0.040 -0.075 -0.075
 0.756  1.413  0.295  0.031 -0.038 -0.073 -0.073
 0.758  1.415  0.298  0.034 -0.037 -0.071 -0.071
 0.760  1.417  0.301  0.036 -0.035 -0.069 -0.069
 0.762  1.419  0.303  0.038 -0.033 -0.066 -0.066
 0.764  1.422  0.305  0.041 -0.031 -0.063 -0.063
 0.766  1.424  0.308  0.044 -0.030 -0.061 -0.061
 0.768  1.427  0.312  0.047 -0.028 -0.058 -0.058
 0.770  1.429  0.315  0.050 -0.027 -0.055 -0.055
 0.772  1.432  0.319  0.053 -0.025 -0.052 -0.052
 0.774  1.436  0.321  0.056 -0.024 -0.049 -0.049
 0.776  1.438  0.325  0.059 -0.023 -0.045 -0.045
 0.778  1.442  0.329  0.063 -0.022 -0.042 -0.042
 0.780  1.445  0.333  0.066 -0.020 -0.039 -0.039
 0.782  1.449  0.336  0.069 -0.019 -0.035 -0.035
 0.784  1.451  0.340  0.073 -0.018 -0.032 -0.032
 0.786  1.455  0.344  0.075 -0.017 -0.029 -0.029
 0.788  1.457  0.347  0.079 -0.016 -0.026 -0.026
 0.790  1.461  0.350  0.081 -0.015 -0.023 -0.023
 0.792  1.463  0.353  0.085 -0.014 -0.020 -0.020
 0.794  1.466  0.356  0.087 -0.013 -0.017 -0.017
 0.796  1.468  0.359  0.089 -0.012 -0.015 -0.015
 0.798  1.470  0.362  0.092 -0.011 -0.012 -0.012
 0.800  1.472  0.364  0.094 -0.010 -0.010 -0.010
 0.802  1.474  0.365  0.096 -0.009 -0.008 -0.008
 0.804  1.475  0.367  0.098 -0.008 -0.007 -0.007
 0.806  1.475  0.368  0.099 -0.008 -0.005 -0.005
 0.808  1.476  0.369  0.100 -0.007 -0.004 -0.004
