# IsPeriodic    : True
# Period        : 0.446055 days
# Normalization : <g_mag>=0
# 
# Phase u_mag  g_mag  r_mag  i_mag  z_mag  y_mag
 0.000  0.526 -0.590 -0.547 -0.342 -0.320 -0.320
 0.002  0.526 -0.590 -0.547 -0.342 -0.320 -0.320
 0.004  0.527 -0.589 -0.547 -0.342 -0.320 -0.320
 0.006  0.528 -0.589 -0.546 -0.342 -0.319 -0.319
 0.008  0.529 -0.588 -0.546 -0.341 -0.319 -0.319
 0.010  0.531 -0.587 -0.544 -0.340 -0.317 -0.317
 0.012  0.533 -0.587 -0.542 -0.339 -0.316 -0.316
 0.014  0.535 -0.585 -0.541 -0.338 -0.314 -0.314
 0.016  0.538 -0.584 -0.539 -0.337 -0.312 -0.312
 0.018  0.541 -0.583 -0.538 -0.336 -0.310 -0.310
 0.020  0.544 -0.581 -0.535 -0.335 -0.308 -0.308
 0.022  0.547 -0.580 -0.534 -0.333 -0.306 -0.306
 0.024  0.551 -0.578 -0.531 -0.332 -0.303 -0.303
 0.026  0.554 -0.576 -0.529 -0.330 -0.300 -0.300
 0.028  0.557 -0.574 -0.526 -0.329 -0.298 -0.298
 0.030  0.561 -0.572 -0.524 -0.327 -0.296 -0.296
 0.032  0.565 -0.570 -0.521 -0.326 -0.293 -0.293
 0.034  0.568 -0.568 -0.518 -0.325 -0.291 -0.291
 0.036  0.572 -0.565 -0.515 -0.323 -0.288 -0.288
 0.038  0.576 -0.563 -0.512 -0.322 -0.285 -0.285
 0.040  0.580 -0.560 -0.509 -0.321 -0.283 -0.283
 0.042  0.583 -0.558 -0.505 -0.319 -0.280 -0.280
 0.044  0.587 -0.555 -0.502 -0.318 -0.278 -0.278
 0.046  0.591 -0.552 -0.499 -0.317 -0.276 -0.276
 0.048  0.595 -0.549 -0.495 -0.315 -0.273 -0.273
 0.050  0.599 -0.546 -0.491 -0.314 -0.271 -0.271
 0.052  0.603 -0.542 -0.487 -0.312 -0.268 -0.268
 0.054  0.608 -0.538 -0.482 -0.311 -0.266 -0.266
 0.056  0.612 -0.534 -0.478 -0.309 -0.264 -0.264
 0.058  0.617 -0.531 -0.474 -0.308 -0.262 -0.262
 0.060  0.621 -0.527 -0.469 -0.306 -0.260 -0.260
 0.062  0.626 -0.523 -0.464 -0.305 -0.258 -0.258
 0.064  0.631 -0.519 -0.459 -0.303 -0.256 -0.256
 0.066  0.635 -0.515 -0.454 -0.302 -0.254 -0.254
 0.068  0.640 -0.510 -0.449 -0.301 -0.252 -0.252
 0.070  0.645 -0.506 -0.444 -0.299 -0.250 -0.250
 0.072  0.650 -0.501 -0.439 -0.298 -0.248 -0.248
 0.074  0.655 -0.497 -0.433 -0.296 -0.246 -0.246
 0.076  0.661 -0.492 -0.428 -0.294 -0.244 -0.244
 0.078  0.666 -0.488 -0.423 -0.293 -0.243 -0.243
 0.080  0.671 -0.483 -0.418 -0.291 -0.240 -0.240
 0.082  0.677 -0.478 -0.412 -0.290 -0.239 -0.239
 0.084  0.682 -0.473 -0.406 -0.289 -0.237 -0.237
 0.086  0.688 -0.468 -0.401 -0.287 -0.235 -0.235
 0.088  0.692 -0.463 -0.397 -0.285 -0.233 -0.233
 0.090  0.698 -0.459 -0.392 -0.284 -0.232 -0.232
 0.092  0.703 -0.454 -0.387 -0.282 -0.230 -0.230
 0.094  0.709 -0.450 -0.382 -0.281 -0.229 -0.229
 0.096  0.714 -0.445 -0.377 -0.279 -0.227 -0.227
 0.098  0.720 -0.441 -0.372 -0.278 -0.225 -0.225
 0.100  0.725 -0.436 -0.367 -0.276 -0.224 -0.224
 0.102  0.731 -0.432 -0.363 -0.274 -0.222 -0.222
 0.104  0.736 -0.427 -0.359 -0.273 -0.220 -0.220
 0.106  0.742 -0.423 -0.355 -0.271 -0.218 -0.218
 0.108  0.746 -0.419 -0.350 -0.269 -0.217 -0.217
 0.110  0.751 -0.414 -0.346 -0.268 -0.215 -0.215
 0.112  0.756 -0.410 -0.342 -0.265 -0.213 -0.213
 0.114  0.761 -0.405 -0.337 -0.264 -0.212 -0.212
 0.116  0.766 -0.400 -0.333 -0.262 -0.210 -0.210
 0.118  0.771 -0.396 -0.329 -0.260 -0.209 -0.209
 0.120  0.776 -0.392 -0.325 -0.258 -0.207 -0.207
 0.122  0.781 -0.388 -0.321 -0.256 -0.205 -0.205
 0.124  0.785 -0.384 -0.317 -0.254 -0.203 -0.203
 0.126  0.790 -0.379 -0.314 -0.252 -0.201 -0.201
 0.128  0.795 -0.375 -0.310 -0.250 -0.200 -0.200
 0.130  0.798 -0.371 -0.307 -0.248 -0.198 -0.198
 0.132  0.803 -0.367 -0.303 -0.246 -0.197 -0.197
 0.134  0.808 -0.363 -0.300 -0.244 -0.194 -0.194
 0.136  0.812 -0.359 -0.296 -0.242 -0.193 -0.193
 0.138  0.817 -0.355 -0.293 -0.240 -0.191 -0.191
 0.140  0.821 -0.351 -0.290 -0.238 -0.190 -0.190
 0.142  0.825 -0.347 -0.287 -0.236 -0.187 -0.187
 0.144  0.830 -0.342 -0.284 -0.233 -0.186 -0.186
 0.146  0.834 -0.338 -0.281 -0.231 -0.184 -0.184
 0.148  0.838 -0.335 -0.278 -0.229 -0.183 -0.183
 0.150  0.842 -0.331 -0.274 -0.227 -0.180 -0.180
 0.152  0.846 -0.327 -0.272 -0.224 -0.179 -0.179
 0.154  0.850 -0.323 -0.269 -0.222 -0.177 -0.177
 0.156  0.853 -0.319 -0.265 -0.220 -0.175 -0.175
 0.158  0.857 -0.315 -0.263 -0.217 -0.173 -0.173
 0.160  0.861 -0.311 -0.260 -0.215 -0.172 -0.172
 0.162  0.865 -0.307 -0.256 -0.212 -0.170 -0.170
 0.164  0.869 -0.303 -0.254 -0.210 -0.168 -0.168
 0.166  0.873 -0.299 -0.251 -0.208 -0.166 -0.166
 0.168  0.877 -0.295 -0.248 -0.206 -0.164 -0.164
 0.170  0.881 -0.291 -0.245 -0.203 -0.163 -0.163
 0.172  0.885 -0.286 -0.242 -0.201 -0.161 -0.161
 0.174  0.889 -0.282 -0.239 -0.199 -0.159 -0.159
 0.176  0.893 -0.277 -0.236 -0.197 -0.157 -0.157
 0.178  0.897 -0.273 -0.234 -0.195 -0.156 -0.156
 0.180  0.901 -0.269 -0.231 -0.192 -0.154 -0.154
 0.182  0.906 -0.264 -0.227 -0.190 -0.152 -0.152
 0.184  0.909 -0.260 -0.225 -0.188 -0.150 -0.150
 0.186  0.913 -0.256 -0.222 -0.186 -0.149 -0.149
 0.188  0.917 -0.252 -0.219 -0.184 -0.147 -0.147
 0.190  0.921 -0.247 -0.216 -0.182 -0.145 -0.145
 0.192  0.926 -0.243 -0.214 -0.180 -0.144 -0.144
 0.194  0.930 -0.239 -0.210 -0.178 -0.142 -0.142
 0.196  0.934 -0.234 -0.208 -0.177 -0.140 -0.140
 0.198  0.939 -0.230 -0.205 -0.175 -0.139 -0.139
 0.200  0.943 -0.225 -0.202 -0.173 -0.137 -0.137
 0.202  0.948 -0.221 -0.200 -0.171 -0.136 -0.136
 0.204  0.952 -0.217 -0.197 -0.170 -0.134 -0.134
 0.206  0.956 -0.211 -0.194 -0.168 -0.133 -0.133
 0.208  0.960 -0.207 -0.192 -0.166 -0.131 -0.131
 0.210  0.964 -0.202 -0.188 -0.165 -0.130 -0.130
 0.212  0.969 -0.198 -0.186 -0.163 -0.129 -0.129
 0.214  0.974 -0.193 -0.183 -0.161 -0.127 -0.127
 0.216  0.978 -0.188 -0.180 -0.159 -0.125 -0.125
 0.218  0.983 -0.184 -0.178 -0.158 -0.124 -0.124
 0.220  0.987 -0.179 -0.175 -0.157 -0.123 -0.123
 0.222  0.992 -0.175 -0.172 -0.155 -0.121 -0.121
 0.224  0.997 -0.170 -0.170 -0.154 -0.120 -0.120
 0.226  1.001 -0.166 -0.167 -0.152 -0.118 -0.118
 0.228  1.006 -0.161 -0.164 -0.151 -0.117 -0.117
 0.230  1.011 -0.156 -0.162 -0.149 -0.116 -0.116
 0.232  1.015 -0.152 -0.159 -0.148 -0.115 -0.115
 0.234  1.019 -0.146 -0.157 -0.146 -0.113 -0.113
 0.236  1.024 -0.142 -0.154 -0.145 -0.112 -0.112
 0.238  1.029 -0.137 -0.152 -0.143 -0.110 -0.110
 0.240  1.033 -0.133 -0.150 -0.142 -0.109 -0.109
 0.242  1.038 -0.128 -0.146 -0.141 -0.107 -0.107
 0.244  1.042 -0.124 -0.144 -0.140 -0.106 -0.106
 0.246  1.047 -0.119 -0.141 -0.138 -0.105 -0.105
 0.248  1.051 -0.115 -0.139 -0.137 -0.104 -0.104
 0.250  1.056 -0.110 -0.137 -0.135 -0.102 -0.102
 0.252  1.060 -0.106 -0.134 -0.133 -0.101 -0.101
 0.254  1.064 -0.101 -0.132 -0.132 -0.099 -0.099
 0.256  1.068 -0.097 -0.130 -0.130 -0.098 -0.098
 0.258  1.071 -0.092 -0.128 -0.128 -0.097 -0.097
 0.260  1.075 -0.088 -0.125 -0.126 -0.096 -0.096
 0.262  1.079 -0.082 -0.123 -0.125 -0.094 -0.094
 0.264  1.083 -0.078 -0.120 -0.123 -0.092 -0.092
 0.266  1.087 -0.073 -0.118 -0.121 -0.091 -0.091
 0.268  1.091 -0.069 -0.116 -0.120 -0.090 -0.090
 0.270  1.095 -0.064 -0.114 -0.118 -0.088 -0.088
 0.272  1.099 -0.060 -0.112 -0.116 -0.087 -0.087
 0.274  1.103 -0.056 -0.109 -0.114 -0.085 -0.085
 0.276  1.107 -0.051 -0.107 -0.112 -0.084 -0.084
 0.278  1.110 -0.047 -0.105 -0.110 -0.083 -0.083
 0.280  1.114 -0.042 -0.103 -0.108 -0.081 -0.081
 0.282  1.118 -0.038 -0.100 -0.106 -0.079 -0.079
 0.284  1.121 -0.033 -0.099 -0.104 -0.078 -0.078
 0.286  1.124 -0.029 -0.096 -0.103 -0.076 -0.076
 0.288  1.127 -0.025 -0.094 -0.100 -0.075 -0.075
 0.290  1.131 -0.019 -0.092 -0.099 -0.073 -0.073
 0.292  1.134 -0.015 -0.090 -0.096 -0.072 -0.072
 0.294  1.137 -0.011 -0.088 -0.094 -0.070 -0.070
 0.296  1.140 -0.007 -0.086 -0.092 -0.069 -0.069
 0.298  1.144 -0.002 -0.084 -0.089 -0.067 -0.067
 0.300  1.147  0.002 -0.082 -0.088 -0.065 -0.065
 0.302  1.150  0.006 -0.079 -0.085 -0.064 -0.064
 0.304  1.153  0.010 -0.077 -0.083 -0.062 -0.062
 0.306  1.156  0.014 -0.075 -0.081 -0.060 -0.060
 0.308  1.159  0.018 -0.073 -0.079 -0.059 -0.059
 0.310  1.162  0.022 -0.071 -0.076 -0.057 -0.057
 0.312  1.166  0.026 -0.069 -0.074 -0.056 -0.056
 0.314  1.169  0.029 -0.067 -0.072 -0.054 -0.054
 0.316  1.172  0.033 -0.065 -0.070 -0.052 -0.052
 0.318  1.175  0.037 -0.063 -0.068 -0.051 -0.051
 0.320  1.177  0.040 -0.060 -0.066 -0.049 -0.049
 0.322  1.180  0.045 -0.059 -0.063 -0.048 -0.048
 0.324  1.183  0.048 -0.056 -0.061 -0.046 -0.046
 0.326  1.186  0.052 -0.054 -0.059 -0.044 -0.044
 0.328  1.189  0.055 -0.052 -0.057 -0.043 -0.043
 0.330  1.193  0.059 -0.050 -0.055 -0.041 -0.041
 0.332  1.196  0.062 -0.048 -0.052 -0.040 -0.040
 0.334  1.199  0.065 -0.046 -0.051 -0.038 -0.038
 0.336  1.202  0.069 -0.044 -0.048 -0.037 -0.037
 0.338  1.205  0.072 -0.042 -0.046 -0.035 -0.035
 0.340  1.208  0.075 -0.040 -0.044 -0.033 -0.033
 0.342  1.211  0.078 -0.038 -0.042 -0.032 -0.032
 0.344  1.214  0.081 -0.035 -0.040 -0.030 -0.030
 0.346  1.218  0.084 -0.034 -0.038 -0.029 -0.029
 0.348  1.221  0.087 -0.031 -0.036 -0.027 -0.027
 0.350  1.224  0.090 -0.030 -0.034 -0.026 -0.026
 0.352  1.227  0.093 -0.027 -0.032 -0.024 -0.024
 0.354  1.230  0.095 -0.026 -0.030 -0.023 -0.023
 0.356  1.232  0.098 -0.023 -0.028 -0.021 -0.021
 0.358  1.235  0.101 -0.021 -0.026 -0.019 -0.019
 0.360  1.238  0.103 -0.019 -0.024 -0.018 -0.018
 0.362  1.241  0.106 -0.017 -0.022 -0.017 -0.017
 0.364  1.245  0.110 -0.015 -0.020 -0.015 -0.015
 0.366  1.248  0.112 -0.013 -0.018 -0.013 -0.013
 0.368  1.251  0.115 -0.011 -0.017 -0.012 -0.012
 0.370  1.254  0.118 -0.009 -0.014 -0.010 -0.010
 0.372  1.257  0.120 -0.007 -0.013 -0.009 -0.009
 0.374  1.260  0.123 -0.005 -0.010 -0.008 -0.008
 0.376  1.263  0.126 -0.003 -0.009 -0.006 -0.006
 0.378  1.266  0.129 -0.001 -0.007 -0.004 -0.004
 0.380  1.269  0.131  0.001 -0.005 -0.003 -0.003
 0.382  1.272  0.134  0.004 -0.003 -0.002 -0.002
 0.384  1.276  0.137  0.005 -0.001  0.000  0.000
 0.386  1.279  0.140  0.008  0.001  0.001  0.001
 0.388  1.282  0.143  0.009  0.003  0.003  0.003
 0.390  1.285  0.145  0.012  0.004  0.004  0.004
 0.392  1.287  0.148  0.013  0.006  0.006  0.006
 0.394  1.289  0.151  0.016  0.008  0.007  0.007
 0.396  1.292  0.154  0.017  0.010  0.009  0.009
 0.398  1.295  0.157  0.020  0.012  0.010  0.010
 0.400  1.298  0.160  0.021  0.014  0.011  0.011
 0.402  1.301  0.163  0.024  0.015  0.013  0.013
 0.404  1.304  0.166  0.025  0.017  0.015  0.015
 0.406  1.307  0.169  0.028  0.019  0.016  0.016
 0.408  1.310  0.172  0.029  0.020  0.017  0.017
 0.410  1.313  0.176  0.032  0.022  0.018  0.018
 0.412  1.315  0.179  0.033  0.024  0.020  0.020
 0.414  1.318  0.182  0.036  0.026  0.022  0.022
 0.416  1.321  0.186  0.038  0.028  0.023  0.023
 0.418  1.324  0.189  0.039  0.030  0.024  0.024
 0.420  1.326  0.192  0.042  0.031  0.025  0.025
 0.422  1.329  0.195  0.043  0.033  0.027  0.027
 0.424  1.332  0.198  0.046  0.034  0.029  0.029
 0.426  1.335  0.202  0.047  0.036  0.030  0.030
 0.428  1.337  0.205  0.050  0.038  0.031  0.031
 0.430  1.340  0.208  0.051  0.039  0.032  0.032
 0.432  1.342  0.211  0.053  0.041  0.034  0.034
 0.434  1.344  0.215  0.055  0.043  0.035  0.035
 0.436  1.347  0.218  0.057  0.044  0.037  0.037
 0.438  1.349  0.221  0.059  0.046  0.038  0.038
 0.440  1.352  0.224  0.061  0.048  0.039  0.039
 0.442  1.355  0.227  0.063  0.049  0.041  0.041
 0.444  1.357  0.230  0.065  0.051  0.042  0.042
 0.446  1.360  0.233  0.067  0.052  0.043  0.043
 0.448  1.362  0.236  0.068  0.054  0.045  0.045
 0.450  1.364  0.240  0.070  0.056  0.046  0.046
 0.452  1.367  0.243  0.072  0.057  0.047  0.047
 0.454  1.369  0.246  0.074  0.059  0.049  0.049
 0.456  1.371  0.249  0.076  0.060  0.050  0.050
 0.458  1.374  0.251  0.077  0.062  0.051  0.051
 0.460  1.376  0.254  0.080  0.063  0.052  0.052
 0.462  1.378  0.257  0.081  0.065  0.054  0.054
 0.464  1.380  0.259  0.083  0.067  0.055  0.055
 0.466  1.382  0.262  0.085  0.068  0.056  0.056
 0.468  1.384  0.264  0.086  0.069  0.057  0.057
 0.470  1.386  0.266  0.088  0.071  0.059  0.059
 0.472  1.388  0.269  0.090  0.073  0.060  0.060
 0.474  1.390  0.271  0.092  0.074  0.061  0.061
 0.476  1.392  0.273  0.093  0.076  0.062  0.062
 0.478  1.394  0.276  0.095  0.077  0.064  0.064
 0.480  1.395  0.278  0.097  0.079  0.065  0.065
 0.482  1.396  0.280  0.098  0.080  0.066  0.066
 0.484  1.398  0.282  0.100  0.082  0.067  0.067
 0.486  1.400  0.284  0.102  0.084  0.068  0.068
 0.488  1.401  0.286  0.103  0.085  0.069  0.069
 0.490  1.403  0.288  0.105  0.086  0.071  0.071
 0.492  1.404  0.290  0.106  0.088  0.072  0.072
 0.494  1.405  0.291  0.108  0.090  0.073  0.073
 0.496  1.407  0.293  0.110  0.091  0.074  0.074
 0.498  1.408  0.295  0.111  0.093  0.075  0.075
 0.500  1.409  0.297  0.113  0.094  0.076  0.076
 0.502  1.411  0.298  0.114  0.096  0.077  0.077
 0.504  1.412  0.300  0.116  0.097  0.078  0.078
 0.506  1.413  0.301  0.118  0.099  0.079  0.079
 0.508  1.414  0.304  0.119  0.100  0.081  0.081
 0.510  1.415  0.305  0.120  0.102  0.082  0.082
 0.512  1.416  0.307  0.122  0.104  0.083  0.083
 0.514  1.417  0.308  0.123  0.105  0.084  0.084
 0.516  1.418  0.310  0.124  0.106  0.084  0.084
 0.518  1.419  0.311  0.126  0.108  0.085  0.085
 0.520  1.420  0.313  0.127  0.109  0.086  0.086
 0.522  1.421  0.314  0.128  0.111  0.088  0.088
 0.524  1.422  0.315  0.130  0.112  0.089  0.089
 0.526  1.423  0.317  0.131  0.114  0.090  0.090
 0.528  1.423  0.318  0.132  0.115  0.090  0.090
 0.530  1.424  0.320  0.133  0.117  0.091  0.091
 0.532  1.425  0.321  0.135  0.118  0.092  0.092
 0.534  1.426  0.322  0.136  0.119  0.094  0.094
 0.536  1.427  0.324  0.137  0.121  0.095  0.095
 0.538  1.428  0.325  0.138  0.122  0.095  0.095
 0.540  1.429  0.326  0.139  0.123  0.096  0.096
 0.542  1.429  0.328  0.140  0.125  0.097  0.097
 0.544  1.430  0.329  0.141  0.126  0.098  0.098
 0.546  1.431  0.330  0.142  0.127  0.099  0.099
 0.548  1.432  0.331  0.143  0.129  0.100  0.100
 0.550  1.433  0.333  0.144  0.130  0.101  0.101
 0.552  1.433  0.334  0.145  0.131  0.102  0.102
 0.554  1.434  0.335  0.146  0.133  0.103  0.103
 0.556  1.435  0.336  0.147  0.134  0.103  0.103
 0.558  1.436  0.337  0.148  0.135  0.104  0.104
 0.560  1.436  0.339  0.148  0.136  0.105  0.105
 0.562  1.437  0.340  0.149  0.137  0.106  0.106
 0.564  1.438  0.341  0.150  0.138  0.107  0.107
 0.566  1.439  0.342  0.151  0.139  0.108  0.108
 0.568  1.439  0.343  0.152  0.141  0.109  0.109
 0.570  1.440  0.344  0.152  0.142  0.110  0.110
 0.572  1.441  0.345  0.153  0.143  0.110  0.110
 0.574  1.442  0.346  0.153  0.144  0.111  0.111
 0.576  1.442  0.347  0.154  0.145  0.112  0.112
 0.578  1.443  0.348  0.154  0.146  0.113  0.113
 0.580  1.444  0.349  0.155  0.147  0.114  0.114
 0.582  1.444  0.350  0.156  0.149  0.115  0.115
 0.584  1.445  0.351  0.156  0.150  0.115  0.115
 0.586  1.446  0.352  0.157  0.151  0.116  0.116
 0.588  1.446  0.353  0.157  0.152  0.117  0.117
 0.590  1.447  0.354  0.157  0.152  0.118  0.118
 0.592  1.448  0.355  0.157  0.154  0.118  0.118
 0.594  1.448  0.356  0.158  0.155  0.119  0.119
 0.596  1.449  0.356  0.158  0.156  0.120  0.120
 0.598  1.449  0.357  0.159  0.156  0.121  0.121
 0.600  1.449  0.358  0.159  0.158  0.122  0.122
 0.602  1.450  0.359  0.159  0.159  0.122  0.122
 0.604  1.450  0.359  0.159  0.159  0.123  0.123
 0.606  1.451  0.360  0.160  0.160  0.124  0.124
 0.608  1.451  0.360  0.160  0.161  0.124  0.124
 0.610  1.452  0.361  0.160  0.162  0.125  0.125
 0.612  1.452  0.361  0.160  0.163  0.126  0.126
 0.614  1.453  0.362  0.160  0.164  0.126  0.126
 0.616  1.453  0.362  0.160  0.165  0.127  0.127
 0.618  1.454  0.363  0.160  0.166  0.128  0.128
 0.620  1.454  0.363  0.160  0.167  0.129  0.129
 0.622  1.454  0.364  0.160  0.167  0.129  0.129
 0.624  1.455  0.364  0.160  0.168  0.130  0.130
 0.626  1.455  0.364  0.160  0.169  0.131  0.131
 0.628  1.455  0.365  0.159  0.170  0.131  0.131
 0.630  1.456  0.365  0.159  0.171  0.132  0.132
 0.632  1.456  0.365  0.159  0.171  0.133  0.133
 0.634  1.456  0.365  0.158  0.172  0.133  0.133
 0.636  1.456  0.365  0.158  0.173  0.134  0.134
 0.638  1.457  0.365  0.158  0.174  0.135  0.135
 0.640  1.457  0.366  0.157  0.175  0.136  0.136
 0.642  1.457  0.366  0.157  0.175  0.136  0.136
 0.644  1.457  0.366  0.157  0.176  0.137  0.137
 0.646  1.458  0.366  0.157  0.177  0.137  0.137
 0.648  1.458  0.366  0.156  0.178  0.138  0.138
 0.650  1.458  0.366  0.156  0.178  0.139  0.139
 0.652  1.458  0.366  0.155  0.179  0.139  0.139
 0.654  1.458  0.366  0.155  0.180  0.140  0.140
 0.656  1.458  0.368  0.154  0.180  0.141  0.141
 0.658  1.458  0.368  0.154  0.181  0.141  0.141
 0.660  1.458  0.368  0.154  0.182  0.142  0.142
 0.662  1.458  0.369  0.153  0.182  0.142  0.142
 0.664  1.459  0.369  0.153  0.183  0.143  0.143
 0.666  1.459  0.370  0.153  0.184  0.144  0.144
 0.668  1.459  0.371  0.153  0.184  0.144  0.144
 0.670  1.459  0.371  0.152  0.186  0.145  0.145
 0.672  1.459  0.372  0.152  0.186  0.146  0.146
 0.674  1.460  0.373  0.152  0.187  0.146  0.146
 0.676  1.460  0.374  0.151  0.188  0.147  0.147
 0.678  1.461  0.375  0.151  0.189  0.148  0.148
 0.680  1.461  0.376  0.151  0.189  0.149  0.149
 0.682  1.462  0.377  0.150  0.191  0.150  0.150
 0.684  1.462  0.379  0.150  0.192  0.151  0.151
 0.686  1.463  0.380  0.150  0.192  0.151  0.151
 0.688  1.463  0.381  0.150  0.193  0.152  0.152
 0.690  1.464  0.383  0.149  0.195  0.153  0.153
 0.692  1.465  0.384  0.149  0.196  0.155  0.155
 0.694  1.465  0.386  0.149  0.196  0.156  0.156
 0.696  1.466  0.388  0.149  0.197  0.157  0.157
 0.698  1.467  0.389  0.149  0.199  0.158  0.158
 0.700  1.468  0.391  0.148  0.200  0.159  0.159
 0.702  1.468  0.393  0.148  0.201  0.160  0.160
 0.704  1.469  0.395  0.148  0.202  0.161  0.161
 0.706  1.470  0.397  0.148  0.203  0.162  0.162
 0.708  1.471  0.399  0.148  0.204  0.164  0.164
 0.710  1.472  0.401  0.148  0.206  0.165  0.165
 0.712  1.473  0.404  0.148  0.207  0.166  0.166
 0.714  1.475  0.406  0.148  0.209  0.168  0.168
 0.716  1.476  0.408  0.148  0.210  0.169  0.169
 0.718  1.477  0.411  0.148  0.212  0.170  0.170
 0.720  1.478  0.413  0.148  0.213  0.172  0.172
 0.722  1.480  0.415  0.148  0.215  0.173  0.173
 0.724  1.481  0.417  0.148  0.216  0.175  0.175
 0.726  1.482  0.419  0.148  0.217  0.177  0.177
 0.728  1.484  0.420  0.148  0.219  0.178  0.178
 0.730  1.485  0.422  0.148  0.220  0.180  0.180
 0.732  1.486  0.423  0.148  0.221  0.182  0.182
 0.734  1.488  0.424  0.148  0.222  0.183  0.183
 0.736  1.489  0.424  0.148  0.224  0.185  0.185
 0.738  1.490  0.425  0.148  0.225  0.186  0.186
 0.740  1.491  0.425  0.148  0.225  0.188  0.188
 0.742  1.493  0.425  0.147  0.226  0.190  0.190
 0.744  1.494  0.425  0.147  0.226  0.191  0.191
 0.746  1.495  0.424  0.147  0.227  0.193  0.193
 0.748  1.496  0.423  0.147  0.227  0.194  0.194
 0.750  1.497  0.422  0.147  0.227  0.196  0.196
 0.752  1.498  0.421  0.147  0.226  0.197  0.197
 0.754  1.499  0.420  0.147  0.226  0.199  0.199
 0.756  1.500  0.418  0.147  0.225  0.200  0.200
 0.758  1.501  0.416  0.147  0.224  0.202  0.202
 0.760  1.502  0.414  0.147  0.223  0.203  0.203
 0.762  1.503  0.412  0.147  0.222  0.204  0.204
 0.764  1.503  0.410  0.147  0.220  0.205  0.205
 0.766  1.503  0.407  0.147  0.219  0.206  0.206
 0.768  1.504  0.404  0.147  0.217  0.207  0.207
 0.770  1.504  0.401  0.147  0.215  0.208  0.208
 0.772  1.505  0.398  0.147  0.212  0.209  0.209
 0.774  1.505  0.395  0.147  0.210  0.210  0.210
 0.776  1.505  0.391  0.147  0.207  0.211  0.211
 0.778  1.506  0.387  0.147  0.204  0.212  0.212
 0.780  1.506  0.383  0.146  0.201  0.212  0.212
 0.782  1.506  0.378  0.146  0.199  0.213  0.213
 0.784  1.507  0.374  0.146  0.195  0.214  0.214
 0.786  1.507  0.369  0.147  0.191  0.215  0.215
 0.788  1.507  0.363  0.147  0.188  0.215  0.215
 0.790  1.507  0.357  0.147  0.184  0.216  0.216
 0.792  1.508  0.352  0.147  0.180  0.217  0.217
 0.794  1.508  0.346  0.148  0.175  0.217  0.217
 0.796  1.508  0.340  0.148  0.171  0.218  0.218
 0.798  1.508  0.333  0.148  0.166  0.218  0.218
 0.800  1.508  0.326  0.150  0.161  0.219  0.219
 0.802  1.507  0.319  0.151  0.156  0.219  0.219
 0.804  1.507  0.312  0.152  0.151  0.220  0.220
 0.806  1.506  0.305  0.153  0.146  0.220  0.220
 0.808  1.504  0.296  0.154  0.141  0.220  0.220
