# IsPeriodic    : True
# Period        : 0.557553 days
# Normalization : <g_mag>=0
# 
# Phase u_mag  g_mag  r_mag  i_mag  z_mag  y_mag
 0.000  0.489 -0.678 -0.590 -0.532 -0.495 -0.495
 0.002  0.489 -0.678 -0.590 -0.532 -0.494 -0.494
 0.004  0.490 -0.678 -0.590 -0.531 -0.494 -0.494
 0.006  0.491 -0.677 -0.590 -0.531 -0.494 -0.494
 0.008  0.492 -0.676 -0.589 -0.530 -0.493 -0.493
 0.010  0.494 -0.675 -0.588 -0.529 -0.492 -0.492
 0.012  0.496 -0.674 -0.587 -0.527 -0.491 -0.491
 0.014  0.498 -0.673 -0.586 -0.525 -0.490 -0.490
 0.016  0.501 -0.671 -0.585 -0.524 -0.489 -0.489
 0.018  0.504 -0.669 -0.583 -0.522 -0.487 -0.487
 0.020  0.507 -0.667 -0.582 -0.520 -0.486 -0.486
 0.022  0.510 -0.665 -0.580 -0.518 -0.484 -0.484
 0.024  0.514 -0.661 -0.578 -0.516 -0.482 -0.482
 0.026  0.517 -0.659 -0.576 -0.514 -0.481 -0.481
 0.028  0.520 -0.656 -0.574 -0.512 -0.479 -0.479
 0.030  0.524 -0.652 -0.573 -0.510 -0.478 -0.478
 0.032  0.528 -0.649 -0.570 -0.508 -0.477 -0.477
 0.034  0.531 -0.645 -0.569 -0.506 -0.475 -0.475
 0.036  0.535 -0.641 -0.566 -0.503 -0.473 -0.473
 0.038  0.539 -0.637 -0.564 -0.501 -0.471 -0.471
 0.040  0.543 -0.632 -0.562 -0.499 -0.470 -0.470
 0.042  0.547 -0.627 -0.560 -0.496 -0.468 -0.468
 0.044  0.551 -0.622 -0.557 -0.494 -0.466 -0.466
 0.046  0.555 -0.617 -0.555 -0.491 -0.464 -0.464
 0.048  0.559 -0.612 -0.552 -0.488 -0.462 -0.462
 0.050  0.563 -0.605 -0.550 -0.486 -0.460 -0.460
 0.052  0.568 -0.599 -0.546 -0.483 -0.458 -0.458
 0.054  0.573 -0.593 -0.543 -0.480 -0.456 -0.456
 0.056  0.577 -0.586 -0.540 -0.477 -0.454 -0.454
 0.058  0.582 -0.580 -0.537 -0.474 -0.451 -0.451
 0.060  0.586 -0.572 -0.533 -0.471 -0.449 -0.449
 0.062  0.591 -0.565 -0.530 -0.467 -0.447 -0.447
 0.064  0.596 -0.558 -0.526 -0.464 -0.444 -0.444
 0.066  0.601 -0.550 -0.523 -0.461 -0.442 -0.442
 0.068  0.606 -0.542 -0.519 -0.457 -0.439 -0.439
 0.070  0.611 -0.535 -0.516 -0.454 -0.437 -0.437
 0.072  0.616 -0.527 -0.512 -0.450 -0.434 -0.434
 0.074  0.621 -0.519 -0.508 -0.447 -0.431 -0.431
 0.076  0.627 -0.511 -0.504 -0.443 -0.428 -0.428
 0.078  0.632 -0.503 -0.500 -0.439 -0.426 -0.426
 0.080  0.637 -0.495 -0.496 -0.436 -0.423 -0.423
 0.082  0.643 -0.487 -0.493 -0.432 -0.421 -0.421
 0.084  0.648 -0.480 -0.489 -0.429 -0.418 -0.418
 0.086  0.654 -0.473 -0.485 -0.425 -0.416 -0.416
 0.088  0.659 -0.465 -0.481 -0.422 -0.413 -0.413
 0.090  0.665 -0.458 -0.477 -0.419 -0.411 -0.411
 0.092  0.671 -0.452 -0.473 -0.416 -0.408 -0.408
 0.094  0.677 -0.445 -0.469 -0.413 -0.406 -0.406
 0.096  0.682 -0.438 -0.466 -0.409 -0.403 -0.403
 0.098  0.688 -0.432 -0.462 -0.406 -0.401 -0.401
 0.100  0.693 -0.426 -0.458 -0.404 -0.399 -0.399
 0.102  0.699 -0.420 -0.454 -0.401 -0.396 -0.396
 0.104  0.704 -0.414 -0.450 -0.398 -0.394 -0.394
 0.106  0.710 -0.407 -0.446 -0.395 -0.392 -0.392
 0.108  0.715 -0.402 -0.443 -0.392 -0.390 -0.390
 0.110  0.720 -0.396 -0.439 -0.390 -0.388 -0.388
 0.112  0.725 -0.391 -0.436 -0.386 -0.385 -0.385
 0.114  0.730 -0.386 -0.432 -0.384 -0.383 -0.383
 0.116  0.735 -0.379 -0.428 -0.381 -0.381 -0.381
 0.118  0.740 -0.374 -0.425 -0.379 -0.379 -0.379
 0.120  0.745 -0.369 -0.421 -0.377 -0.378 -0.378
 0.122  0.750 -0.364 -0.417 -0.374 -0.376 -0.376
 0.124  0.754 -0.360 -0.414 -0.372 -0.374 -0.374
 0.126  0.759 -0.354 -0.410 -0.370 -0.372 -0.372
 0.128  0.764 -0.350 -0.407 -0.368 -0.370 -0.370
 0.130  0.768 -0.346 -0.403 -0.366 -0.369 -0.369
 0.132  0.774 -0.342 -0.400 -0.364 -0.367 -0.367
 0.134  0.779 -0.338 -0.396 -0.362 -0.365 -0.365
 0.136  0.783 -0.334 -0.393 -0.360 -0.364 -0.364
 0.138  0.788 -0.329 -0.389 -0.358 -0.362 -0.362
 0.140  0.792 -0.326 -0.386 -0.357 -0.361 -0.361
 0.142  0.796 -0.322 -0.383 -0.355 -0.359 -0.359
 0.144  0.801 -0.318 -0.379 -0.353 -0.357 -0.357
 0.146  0.805 -0.315 -0.376 -0.351 -0.356 -0.356
 0.148  0.809 -0.311 -0.373 -0.350 -0.355 -0.355
 0.150  0.813 -0.308 -0.369 -0.348 -0.353 -0.353
 0.152  0.817 -0.304 -0.366 -0.346 -0.352 -0.352
 0.154  0.821 -0.300 -0.363 -0.345 -0.350 -0.350
 0.156  0.825 -0.296 -0.360 -0.344 -0.349 -0.349
 0.158  0.829 -0.292 -0.357 -0.342 -0.348 -0.348
 0.160  0.833 -0.289 -0.354 -0.341 -0.346 -0.346
 0.162  0.837 -0.285 -0.351 -0.339 -0.344 -0.344
 0.164  0.841 -0.281 -0.348 -0.337 -0.343 -0.343
 0.166  0.845 -0.278 -0.345 -0.335 -0.341 -0.341
 0.168  0.849 -0.273 -0.342 -0.334 -0.340 -0.340
 0.170  0.853 -0.269 -0.339 -0.332 -0.338 -0.338
 0.172  0.857 -0.265 -0.336 -0.331 -0.336 -0.336
 0.174  0.861 -0.261 -0.333 -0.329 -0.335 -0.335
 0.176  0.865 -0.258 -0.330 -0.328 -0.334 -0.334
 0.178  0.869 -0.254 -0.327 -0.326 -0.331 -0.331
 0.180  0.873 -0.250 -0.325 -0.324 -0.330 -0.330
 0.182  0.879 -0.245 -0.322 -0.323 -0.328 -0.328
 0.184  0.883 -0.241 -0.319 -0.321 -0.326 -0.326
 0.186  0.887 -0.237 -0.316 -0.319 -0.324 -0.324
 0.188  0.891 -0.233 -0.314 -0.318 -0.323 -0.323
 0.190  0.895 -0.229 -0.311 -0.316 -0.321 -0.321
 0.192  0.900 -0.225 -0.309 -0.314 -0.319 -0.319
 0.194  0.904 -0.221 -0.306 -0.313 -0.317 -0.317
 0.196  0.908 -0.216 -0.303 -0.311 -0.315 -0.315
 0.198  0.913 -0.212 -0.301 -0.309 -0.314 -0.314
 0.200  0.917 -0.208 -0.299 -0.307 -0.312 -0.312
 0.202  0.922 -0.204 -0.296 -0.306 -0.310 -0.310
 0.204  0.926 -0.200 -0.294 -0.304 -0.308 -0.308
 0.206  0.930 -0.196 -0.292 -0.302 -0.306 -0.306
 0.208  0.935 -0.192 -0.289 -0.300 -0.304 -0.304
 0.210  0.939 -0.187 -0.287 -0.299 -0.302 -0.302
 0.212  0.944 -0.183 -0.285 -0.297 -0.300 -0.300
 0.214  0.949 -0.178 -0.282 -0.295 -0.298 -0.298
 0.216  0.953 -0.174 -0.280 -0.293 -0.296 -0.296
 0.218  0.958 -0.170 -0.279 -0.292 -0.294 -0.294
 0.220  0.962 -0.166 -0.276 -0.290 -0.292 -0.292
 0.222  0.967 -0.161 -0.274 -0.288 -0.290 -0.290
 0.224  0.972 -0.157 -0.272 -0.286 -0.288 -0.288
 0.226  0.976 -0.153 -0.270 -0.284 -0.286 -0.286
 0.228  0.982 -0.149 -0.268 -0.283 -0.284 -0.284
 0.230  0.987 -0.145 -0.266 -0.281 -0.282 -0.282
 0.232  0.992 -0.141 -0.263 -0.279 -0.279 -0.279
 0.234  0.996 -0.137 -0.262 -0.277 -0.278 -0.278
 0.236  1.001 -0.132 -0.259 -0.276 -0.276 -0.276
 0.238  1.006 -0.129 -0.257 -0.274 -0.274 -0.274
 0.240  1.010 -0.125 -0.255 -0.272 -0.272 -0.272
 0.242  1.015 -0.121 -0.252 -0.270 -0.270 -0.270
 0.244  1.019 -0.118 -0.251 -0.269 -0.268 -0.268
 0.246  1.024 -0.114 -0.249 -0.267 -0.266 -0.266
 0.248  1.028 -0.110 -0.246 -0.265 -0.265 -0.265
 0.250  1.033 -0.106 -0.244 -0.263 -0.263 -0.263
 0.252  1.037 -0.102 -0.242 -0.262 -0.261 -0.261
 0.254  1.041 -0.099 -0.240 -0.260 -0.259 -0.259
 0.256  1.045 -0.095 -0.238 -0.258 -0.258 -0.258
 0.258  1.049 -0.092 -0.236 -0.257 -0.256 -0.256
 0.260  1.053 -0.088 -0.233 -0.255 -0.254 -0.254
 0.262  1.057 -0.085 -0.231 -0.254 -0.252 -0.252
 0.264  1.061 -0.081 -0.229 -0.252 -0.251 -0.251
 0.266  1.065 -0.077 -0.226 -0.250 -0.249 -0.249
 0.268  1.069 -0.074 -0.225 -0.249 -0.247 -0.247
 0.270  1.073 -0.071 -0.222 -0.248 -0.246 -0.246
 0.272  1.077 -0.067 -0.220 -0.246 -0.244 -0.244
 0.274  1.082 -0.064 -0.218 -0.244 -0.242 -0.242
 0.276  1.086 -0.061 -0.216 -0.242 -0.241 -0.241
 0.278  1.089 -0.058 -0.213 -0.241 -0.239 -0.239
 0.280  1.093 -0.055 -0.211 -0.239 -0.238 -0.238
 0.282  1.097 -0.051 -0.209 -0.238 -0.236 -0.236
 0.284  1.100 -0.048 -0.206 -0.236 -0.235 -0.235
 0.286  1.104 -0.045 -0.204 -0.235 -0.233 -0.233
 0.288  1.107 -0.042 -0.202 -0.233 -0.232 -0.232
 0.290  1.111 -0.039 -0.199 -0.232 -0.230 -0.230
 0.292  1.114 -0.036 -0.198 -0.230 -0.229 -0.229
 0.294  1.117 -0.032 -0.196 -0.229 -0.228 -0.228
 0.296  1.120 -0.029 -0.193 -0.227 -0.225 -0.225
 0.298  1.124 -0.026 -0.191 -0.226 -0.224 -0.224
 0.300  1.127 -0.022 -0.189 -0.224 -0.223 -0.223
 0.302  1.130 -0.019 -0.186 -0.223 -0.221 -0.221
 0.304  1.133 -0.016 -0.184 -0.221 -0.220 -0.220
 0.306  1.136 -0.013 -0.182 -0.219 -0.218 -0.218
 0.308  1.139 -0.010 -0.179 -0.218 -0.216 -0.216
 0.310  1.142 -0.007 -0.177 -0.216 -0.215 -0.215
 0.312  1.146 -0.004 -0.175 -0.215 -0.213 -0.213
 0.314  1.149 -0.001 -0.172 -0.214 -0.211 -0.211
 0.316  1.152  0.002 -0.171 -0.212 -0.210 -0.210
 0.318  1.155  0.006 -0.169 -0.211 -0.208 -0.208
 0.320  1.158  0.009 -0.166 -0.209 -0.206 -0.206
 0.322  1.161  0.012 -0.164 -0.207 -0.204 -0.204
 0.324  1.164  0.015 -0.162 -0.205 -0.203 -0.203
 0.326  1.167  0.018 -0.159 -0.204 -0.201 -0.201
 0.328  1.170  0.021 -0.157 -0.202 -0.199 -0.199
 0.330  1.174  0.024 -0.156 -0.201 -0.197 -0.197
 0.332  1.177  0.027 -0.153 -0.199 -0.195 -0.195
 0.334  1.180  0.030 -0.151 -0.198 -0.194 -0.194
 0.336  1.184  0.034 -0.149 -0.196 -0.192 -0.192
 0.338  1.187  0.037 -0.146 -0.195 -0.190 -0.190
 0.340  1.190  0.040 -0.145 -0.193 -0.188 -0.188
 0.342  1.193  0.043 -0.142 -0.191 -0.186 -0.186
 0.344  1.196  0.046 -0.140 -0.189 -0.184 -0.184
 0.346  1.200  0.049 -0.138 -0.188 -0.182 -0.182
 0.348  1.203  0.052 -0.136 -0.186 -0.181 -0.181
 0.350  1.206  0.055 -0.134 -0.184 -0.178 -0.178
 0.352  1.209  0.058 -0.132 -0.183 -0.176 -0.176
 0.354  1.212  0.062 -0.129 -0.181 -0.174 -0.174
 0.356  1.215  0.065 -0.127 -0.180 -0.172 -0.172
 0.358  1.218  0.068 -0.125 -0.178 -0.170 -0.170
 0.360  1.221  0.071 -0.123 -0.176 -0.168 -0.168
 0.362  1.224  0.074 -0.121 -0.175 -0.166 -0.166
 0.364  1.228  0.077 -0.119 -0.173 -0.164 -0.164
 0.366  1.231  0.080 -0.117 -0.172 -0.162 -0.162
 0.368  1.234  0.083 -0.115 -0.170 -0.159 -0.159
 0.370  1.237  0.086 -0.112 -0.168 -0.157 -0.157
 0.372  1.240  0.090 -0.111 -0.167 -0.155 -0.155
 0.374  1.243  0.093 -0.109 -0.165 -0.153 -0.153
 0.376  1.246  0.096 -0.106 -0.163 -0.152 -0.152
 0.378  1.249  0.098 -0.105 -0.161 -0.150 -0.150
 0.380  1.252  0.101 -0.102 -0.160 -0.148 -0.148
 0.382  1.255  0.104 -0.100 -0.158 -0.145 -0.145
 0.384  1.259  0.107 -0.099 -0.157 -0.143 -0.143
 0.386  1.262  0.110 -0.096 -0.155 -0.142 -0.142
 0.388  1.265  0.113 -0.094 -0.154 -0.140 -0.140
 0.390  1.268  0.116 -0.092 -0.152 -0.138 -0.138
 0.392  1.271  0.119 -0.090 -0.151 -0.136 -0.136
 0.394  1.273  0.122 -0.089 -0.149 -0.134 -0.134
 0.396  1.276  0.125 -0.086 -0.147 -0.132 -0.132
 0.398  1.279  0.127 -0.085 -0.146 -0.131 -0.131
 0.400  1.282  0.130 -0.082 -0.144 -0.129 -0.129
 0.402  1.286  0.133 -0.081 -0.143 -0.126 -0.126
 0.404  1.289  0.136 -0.079 -0.141 -0.125 -0.125
 0.406  1.292  0.138 -0.076 -0.140 -0.123 -0.123
 0.408  1.295  0.141 -0.075 -0.138 -0.122 -0.122
 0.410  1.298  0.145 -0.072 -0.137 -0.119 -0.119
 0.412  1.300  0.147 -0.071 -0.135 -0.118 -0.118
 0.414  1.303  0.150 -0.069 -0.133 -0.117 -0.117
 0.416  1.306  0.152 -0.067 -0.132 -0.115 -0.115
 0.418  1.309  0.155 -0.065 -0.131 -0.113 -0.113
 0.420  1.311  0.158 -0.063 -0.130 -0.111 -0.111
 0.422  1.314  0.160 -0.062 -0.128 -0.110 -0.110
 0.424  1.317  0.163 -0.059 -0.126 -0.108 -0.108
 0.426  1.320  0.165 -0.058 -0.125 -0.107 -0.107
 0.428  1.322  0.168 -0.055 -0.123 -0.105 -0.105
 0.430  1.325  0.171 -0.054 -0.122 -0.103 -0.103
 0.432  1.328  0.174 -0.052 -0.121 -0.102 -0.102
 0.434  1.330  0.176 -0.050 -0.119 -0.100 -0.100
 0.436  1.333  0.179 -0.049 -0.118 -0.098 -0.098
 0.438  1.335  0.181 -0.047 -0.116 -0.097 -0.097
 0.440  1.338  0.184 -0.045 -0.115 -0.096 -0.096
 0.442  1.341  0.186 -0.043 -0.114 -0.094 -0.094
 0.444  1.343  0.188 -0.042 -0.112 -0.092 -0.092
 0.446  1.346  0.190 -0.040 -0.110 -0.091 -0.091
 0.448  1.348  0.193 -0.039 -0.109 -0.089 -0.089
 0.450  1.350  0.195 -0.036 -0.108 -0.088 -0.088
 0.452  1.353  0.197 -0.035 -0.107 -0.086 -0.086
 0.454  1.355  0.200 -0.033 -0.105 -0.084 -0.084
 0.456  1.357  0.203 -0.032 -0.103 -0.083 -0.083
 0.458  1.360  0.205 -0.030 -0.102 -0.082 -0.082
 0.460  1.362  0.207 -0.029 -0.101 -0.080 -0.080
 0.462  1.364  0.209 -0.027 -0.100 -0.078 -0.078
 0.464  1.366  0.211 -0.025 -0.098 -0.077 -0.077
 0.466  1.368  0.213 -0.025 -0.096 -0.075 -0.075
 0.468  1.370  0.215 -0.023 -0.095 -0.073 -0.073
 0.470  1.372  0.217 -0.022 -0.094 -0.072 -0.072
 0.472  1.374  0.219 -0.020 -0.092 -0.070 -0.070
 0.474  1.376  0.220 -0.019 -0.091 -0.069 -0.069
 0.476  1.378  0.222 -0.018 -0.089 -0.067 -0.067
 0.478  1.380  0.224 -0.016 -0.088 -0.065 -0.065
 0.480  1.382  0.227 -0.015 -0.086 -0.064 -0.064
 0.482  1.383  0.229 -0.014 -0.085 -0.062 -0.062
 0.484  1.385  0.231 -0.012 -0.084 -0.060 -0.060
 0.486  1.388  0.232 -0.011 -0.082 -0.059 -0.059
 0.488  1.389  0.234 -0.010 -0.080 -0.057 -0.057
 0.490  1.391  0.236 -0.009 -0.079 -0.056 -0.056
 0.492  1.392  0.237 -0.008 -0.078 -0.054 -0.054
 0.494  1.393  0.239 -0.007 -0.077 -0.052 -0.052
 0.496  1.395  0.240 -0.005 -0.075 -0.051 -0.051
 0.498  1.396  0.242 -0.005 -0.073 -0.049 -0.049
 0.500  1.397  0.243 -0.003 -0.072 -0.047 -0.047
 0.502  1.399  0.245 -0.002 -0.070 -0.046 -0.046
 0.504  1.400  0.246 -0.002 -0.069 -0.044 -0.044
 0.506  1.401  0.248 -0.001 -0.068 -0.042 -0.042
 0.508  1.402  0.249  0.001 -0.066 -0.041 -0.041
 0.510  1.403  0.251  0.001 -0.065 -0.039 -0.039
 0.512  1.404  0.252  0.002 -0.064 -0.037 -0.037
 0.514  1.405  0.254  0.004 -0.063 -0.036 -0.036
 0.516  1.406  0.255  0.005 -0.061 -0.035 -0.035
 0.518  1.407  0.257  0.005 -0.060 -0.033 -0.033
 0.520  1.408  0.258  0.006 -0.059 -0.032 -0.032
 0.522  1.409  0.259  0.008 -0.058 -0.030 -0.030
 0.524  1.410  0.260  0.008 -0.056 -0.029 -0.029
 0.526  1.411  0.261  0.009 -0.055 -0.028 -0.028
 0.528  1.411  0.262  0.011 -0.054 -0.026 -0.026
 0.530  1.412  0.263  0.011 -0.053 -0.025 -0.025
 0.532  1.413  0.264  0.012 -0.052 -0.023 -0.023
 0.534  1.414  0.265  0.014 -0.051 -0.022 -0.022
 0.536  1.415  0.266  0.015 -0.050 -0.020 -0.020
 0.538  1.416  0.267  0.015 -0.049 -0.019 -0.019
 0.540  1.417  0.267  0.017 -0.049 -0.018 -0.018
 0.542  1.417  0.268  0.018 -0.047 -0.017 -0.017
 0.544  1.418  0.269  0.018 -0.047 -0.016 -0.016
 0.546  1.419  0.270  0.020 -0.046 -0.014 -0.014
 0.548  1.420  0.270  0.021 -0.045 -0.013 -0.013
 0.550  1.421  0.271  0.021 -0.044 -0.012 -0.012
 0.552  1.421  0.271  0.023 -0.044 -0.011 -0.011
 0.554  1.422  0.272  0.024 -0.043 -0.010 -0.010
 0.556  1.423  0.273  0.025 -0.042 -0.009 -0.009
 0.558  1.424  0.273  0.026 -0.042 -0.008 -0.008
 0.560  1.424  0.273  0.027 -0.042 -0.007 -0.007
 0.562  1.425  0.274  0.028 -0.041 -0.006 -0.006
 0.564  1.426  0.274  0.029 -0.040 -0.005 -0.005
 0.566  1.427  0.275  0.030 -0.040 -0.004 -0.004
 0.568  1.427  0.275  0.031 -0.040 -0.003 -0.003
 0.570  1.428  0.275  0.032 -0.039 -0.002 -0.002
 0.572  1.429  0.276  0.033 -0.038 -0.002 -0.002
 0.574  1.430  0.276  0.035 -0.038 -0.000 -0.000
 0.576  1.430  0.276  0.035 -0.038  0.001  0.001
 0.578  1.431  0.276  0.036 -0.038  0.001  0.001
 0.580  1.432  0.276  0.038 -0.037  0.002  0.002
 0.582  1.432  0.277  0.038 -0.037  0.003  0.003
 0.584  1.433  0.277  0.039 -0.036  0.003  0.003
 0.586  1.434  0.277  0.040 -0.036  0.005  0.005
 0.588  1.434  0.277  0.041 -0.036  0.005  0.005
 0.590  1.435  0.277  0.042 -0.036  0.006  0.006
 0.592  1.436  0.277  0.043 -0.036  0.007  0.007
 0.594  1.436  0.277  0.044 -0.035  0.008  0.008
 0.596  1.437  0.277  0.045 -0.035  0.008  0.008
 0.598  1.438  0.277  0.045 -0.035  0.010  0.010
 0.600  1.438  0.277  0.045 -0.035  0.010  0.010
 0.602  1.439  0.277  0.046 -0.035  0.011  0.011
 0.604  1.439  0.277  0.047 -0.034  0.012  0.012
 0.606  1.440  0.277  0.048 -0.034  0.013  0.013
 0.608  1.440  0.277  0.048 -0.033  0.014  0.014
 0.610  1.441  0.277  0.048 -0.033  0.015  0.015
 0.612  1.441  0.277  0.049 -0.033  0.015  0.015
 0.614  1.442  0.277  0.050 -0.033  0.017  0.017
 0.616  1.442  0.277  0.050 -0.033  0.017  0.017
 0.618  1.443  0.277  0.051 -0.032  0.018  0.018
 0.620  1.443  0.277  0.051 -0.032  0.019  0.019
 0.622  1.443  0.276  0.051 -0.031  0.020  0.020
 0.624  1.444  0.276  0.051 -0.031  0.021  0.021
 0.626  1.444  0.276  0.051 -0.031  0.022  0.022
 0.628  1.444  0.276  0.052 -0.031  0.023  0.023
 0.630  1.445  0.276  0.052 -0.031  0.024  0.024
 0.632  1.445  0.275  0.052 -0.031  0.024  0.024
 0.634  1.445  0.275  0.052 -0.030  0.025  0.025
 0.636  1.445  0.275  0.052 -0.030  0.027  0.027
 0.638  1.446  0.275  0.052 -0.029  0.027  0.027
 0.640  1.446  0.274  0.052 -0.029  0.028  0.028
 0.642  1.446  0.274  0.052 -0.029  0.029  0.029
 0.644  1.446  0.274  0.052 -0.029  0.030  0.030
 0.646  1.447  0.273  0.052 -0.029  0.031  0.031
 0.648  1.447  0.273  0.052 -0.029  0.032  0.032
 0.650  1.447  0.272  0.052 -0.028  0.033  0.033
 0.652  1.447  0.272  0.052 -0.028  0.034  0.034
 0.654  1.447  0.271  0.052 -0.028  0.035  0.035
 0.656  1.447  0.271  0.053 -0.028  0.036  0.036
 0.658  1.447  0.270  0.053 -0.028  0.036  0.036
 0.660  1.447  0.270  0.053 -0.028  0.038  0.038
 0.662  1.447  0.269  0.053 -0.028  0.038  0.038
 0.664  1.448  0.269  0.053 -0.028  0.039  0.039
 0.666  1.448  0.268  0.054 -0.028  0.040  0.040
 0.668  1.448  0.268  0.054 -0.027  0.041  0.041
 0.670  1.448  0.267  0.055 -0.027  0.042  0.042
 0.672  1.448  0.266  0.055 -0.027  0.043  0.043
 0.674  1.449  0.266  0.055 -0.027  0.043  0.043
 0.676  1.449  0.265  0.056 -0.027  0.044  0.044
 0.678  1.450  0.265  0.056 -0.027  0.045  0.045
 0.680  1.450  0.264  0.057 -0.027  0.045  0.045
 0.682  1.451  0.263  0.058 -0.027  0.046  0.046
 0.684  1.451  0.262  0.058 -0.027  0.047  0.047
 0.686  1.452  0.262  0.059 -0.027  0.048  0.048
 0.688  1.452  0.261  0.060 -0.027  0.048  0.048
 0.690  1.453  0.260  0.061 -0.027  0.049  0.049
 0.692  1.454  0.259  0.061 -0.027  0.050  0.050
 0.694  1.454  0.258  0.062 -0.027  0.050  0.050
 0.696  1.455  0.257  0.064 -0.028  0.051  0.051
 0.698  1.456  0.256  0.065 -0.028  0.052  0.052
 0.700  1.457  0.255  0.065 -0.028  0.053  0.053
 0.702  1.457  0.255  0.067 -0.028  0.053  0.053
 0.704  1.458  0.254  0.068 -0.028  0.054  0.054
 0.706  1.459  0.252  0.069 -0.028  0.055  0.055
 0.708  1.460  0.251  0.070 -0.028  0.055  0.055
 0.710  1.461  0.250  0.071 -0.028  0.056  0.056
 0.712  1.462  0.249  0.073 -0.029  0.056  0.056
 0.714  1.464  0.248  0.074 -0.029  0.057  0.057
 0.716  1.465  0.247  0.075 -0.029  0.057  0.057
 0.718  1.466  0.246  0.077 -0.029  0.058  0.058
 0.720  1.467  0.246  0.078 -0.029  0.059  0.059
 0.722  1.469  0.245  0.080 -0.029  0.060  0.060
 0.724  1.470  0.244  0.082 -0.029  0.060  0.060
 0.726  1.471  0.244  0.083 -0.029  0.061  0.061
 0.728  1.473  0.244  0.085 -0.029  0.062  0.062
 0.730  1.474  0.243  0.087 -0.029  0.064  0.064
 0.732  1.475  0.243  0.088 -0.029  0.065  0.065
 0.734  1.477  0.243  0.090 -0.029  0.067  0.067
 0.736  1.478  0.243  0.092 -0.029  0.068  0.068
 0.738  1.479  0.244  0.094 -0.028  0.070  0.070
 0.740  1.480  0.244  0.096 -0.028  0.072  0.072
 0.742  1.482  0.244  0.098 -0.028  0.074  0.074
 0.744  1.483  0.245  0.100 -0.027  0.076  0.076
 0.746  1.484  0.246  0.102 -0.026  0.079  0.079
 0.748  1.485  0.246  0.105 -0.026  0.081  0.081
 0.750  1.486  0.247  0.107 -0.024  0.084  0.084
 0.752  1.487  0.248  0.109 -0.024  0.087  0.087
 0.754  1.488  0.249  0.112 -0.022  0.090  0.090
 0.756  1.489  0.250  0.114 -0.022  0.093  0.093
 0.758  1.491  0.252  0.116 -0.021  0.095  0.095
 0.760  1.492  0.254  0.118 -0.020  0.099  0.099
 0.762  1.493  0.255  0.121 -0.019  0.102  0.102
 0.764  1.493  0.257  0.123 -0.017  0.105  0.105
 0.766  1.494  0.258  0.125 -0.016  0.109  0.109
 0.768  1.495  0.260  0.128 -0.014  0.113  0.113
 0.770  1.495  0.262  0.131 -0.013  0.117  0.117
 0.772  1.496  0.264  0.134 -0.012  0.121  0.121
 0.774  1.496  0.266  0.137 -0.010  0.125  0.125
 0.776  1.496  0.268  0.140 -0.008  0.130  0.130
 0.778  1.497  0.271  0.143 -0.006  0.135  0.135
 0.780  1.497  0.273  0.146 -0.004  0.140  0.140
 0.782  1.497  0.275  0.149 -0.002  0.145  0.145
 0.784  1.498  0.278  0.152 -0.000  0.150  0.150
 0.786  1.498  0.280  0.155  0.002  0.155  0.155
 0.788  1.498  0.284  0.158  0.004  0.160  0.160
 0.790  1.498  0.286  0.161  0.006  0.165  0.165
 0.792  1.499  0.289  0.164  0.008  0.170  0.170
 0.794  1.499  0.291  0.166  0.010  0.174  0.174
 0.796  1.499  0.294  0.168  0.013  0.179  0.179
 0.798  1.499  0.296  0.171  0.015  0.183  0.183
 0.800  1.499  0.299  0.173  0.017  0.187  0.187
 0.802  1.498  0.301  0.175  0.020  0.190  0.190
 0.804  1.498  0.304  0.176  0.022  0.194  0.194
 0.806  1.497  0.306  0.177  0.024  0.196  0.196
 0.808  1.495  0.308  0.178  0.027  0.199  0.199
