# IsPeriodic    : True
# Period        : 0.554792 days
# Normalization : <g_mag>=0
# 
# Phase u_mag  g_mag  r_mag  i_mag  z_mag  y_mag
 0.000  0.339 -0.870 -0.727 -0.613 -0.529 -0.529
 0.002  0.339 -0.869 -0.727 -0.613 -0.529 -0.529
 0.004  0.339 -0.868 -0.727 -0.613 -0.528 -0.528
 0.006  0.340 -0.865 -0.726 -0.612 -0.528 -0.528
 0.008  0.341 -0.863 -0.724 -0.611 -0.527 -0.527
 0.010  0.344 -0.859 -0.723 -0.611 -0.527 -0.527
 0.012  0.345 -0.854 -0.721 -0.610 -0.526 -0.526
 0.014  0.347 -0.847 -0.719 -0.608 -0.525 -0.525
 0.016  0.350 -0.841 -0.716 -0.607 -0.524 -0.524
 0.018  0.354 -0.835 -0.713 -0.605 -0.523 -0.523
 0.020  0.357 -0.828 -0.711 -0.604 -0.521 -0.521
 0.022  0.360 -0.822 -0.708 -0.602 -0.520 -0.520
 0.024  0.363 -0.814 -0.706 -0.600 -0.518 -0.518
 0.026  0.368 -0.808 -0.702 -0.598 -0.517 -0.517
 0.028  0.372 -0.800 -0.699 -0.596 -0.515 -0.515
 0.030  0.376 -0.794 -0.696 -0.594 -0.513 -0.513
 0.032  0.381 -0.787 -0.692 -0.592 -0.510 -0.510
 0.034  0.386 -0.781 -0.689 -0.589 -0.508 -0.508
 0.036  0.391 -0.774 -0.685 -0.587 -0.505 -0.505
 0.038  0.396 -0.768 -0.682 -0.584 -0.503 -0.503
 0.040  0.400 -0.761 -0.679 -0.582 -0.500 -0.500
 0.042  0.407 -0.755 -0.675 -0.579 -0.496 -0.496
 0.044  0.413 -0.749 -0.671 -0.576 -0.493 -0.493
 0.046  0.419 -0.742 -0.667 -0.573 -0.490 -0.490
 0.048  0.425 -0.736 -0.662 -0.570 -0.486 -0.486
 0.050  0.431 -0.728 -0.658 -0.567 -0.483 -0.483
 0.052  0.439 -0.722 -0.654 -0.563 -0.480 -0.480
 0.054  0.446 -0.714 -0.649 -0.559 -0.476 -0.476
 0.056  0.453 -0.706 -0.644 -0.555 -0.472 -0.472
 0.058  0.461 -0.700 -0.639 -0.551 -0.468 -0.468
 0.060  0.468 -0.692 -0.634 -0.548 -0.465 -0.465
 0.062  0.477 -0.685 -0.629 -0.543 -0.461 -0.461
 0.064  0.485 -0.677 -0.624 -0.539 -0.457 -0.457
 0.066  0.493 -0.669 -0.618 -0.535 -0.453 -0.453
 0.068  0.503 -0.661 -0.612 -0.530 -0.450 -0.450
 0.070  0.511 -0.654 -0.606 -0.526 -0.447 -0.447
 0.072  0.520 -0.646 -0.601 -0.521 -0.444 -0.444
 0.074  0.530 -0.638 -0.595 -0.517 -0.441 -0.441
 0.076  0.538 -0.631 -0.589 -0.512 -0.437 -0.437
 0.078  0.548 -0.623 -0.583 -0.507 -0.435 -0.435
 0.080  0.557 -0.615 -0.578 -0.503 -0.432 -0.432
 0.082  0.567 -0.608 -0.571 -0.498 -0.428 -0.428
 0.084  0.575 -0.600 -0.565 -0.494 -0.426 -0.426
 0.086  0.584 -0.592 -0.559 -0.489 -0.423 -0.423
 0.088  0.593 -0.585 -0.554 -0.485 -0.420 -0.420
 0.090  0.601 -0.577 -0.549 -0.480 -0.418 -0.418
 0.092  0.610 -0.569 -0.543 -0.476 -0.416 -0.416
 0.094  0.619 -0.563 -0.537 -0.472 -0.413 -0.413
 0.096  0.626 -0.555 -0.532 -0.468 -0.410 -0.410
 0.098  0.635 -0.547 -0.527 -0.464 -0.408 -0.408
 0.100  0.642 -0.540 -0.522 -0.460 -0.406 -0.406
 0.102  0.649 -0.533 -0.517 -0.456 -0.404 -0.404
 0.104  0.657 -0.526 -0.512 -0.452 -0.402 -0.402
 0.106  0.664 -0.518 -0.507 -0.449 -0.400 -0.400
 0.108  0.672 -0.511 -0.501 -0.445 -0.398 -0.398
 0.110  0.679 -0.505 -0.497 -0.441 -0.396 -0.396
 0.112  0.686 -0.497 -0.493 -0.438 -0.394 -0.394
 0.114  0.692 -0.491 -0.488 -0.435 -0.392 -0.392
 0.116  0.700 -0.485 -0.483 -0.431 -0.391 -0.391
 0.118  0.706 -0.478 -0.478 -0.428 -0.389 -0.389
 0.120  0.713 -0.472 -0.474 -0.424 -0.388 -0.388
 0.122  0.720 -0.465 -0.470 -0.421 -0.386 -0.386
 0.124  0.726 -0.459 -0.466 -0.418 -0.385 -0.385
 0.126  0.732 -0.452 -0.461 -0.415 -0.383 -0.383
 0.128  0.738 -0.446 -0.457 -0.412 -0.382 -0.382
 0.130  0.744 -0.440 -0.453 -0.409 -0.381 -0.381
 0.132  0.749 -0.433 -0.449 -0.407 -0.379 -0.379
 0.134  0.755 -0.428 -0.446 -0.404 -0.378 -0.378
 0.136  0.760 -0.422 -0.442 -0.401 -0.377 -0.377
 0.138  0.766 -0.415 -0.438 -0.398 -0.375 -0.375
 0.140  0.771 -0.410 -0.434 -0.396 -0.374 -0.374
 0.142  0.776 -0.404 -0.430 -0.393 -0.373 -0.373
 0.144  0.781 -0.399 -0.427 -0.391 -0.371 -0.371
 0.146  0.786 -0.392 -0.423 -0.388 -0.369 -0.369
 0.148  0.791 -0.387 -0.421 -0.386 -0.368 -0.368
 0.150  0.796 -0.382 -0.417 -0.383 -0.367 -0.367
 0.152  0.801 -0.377 -0.413 -0.381 -0.365 -0.365
 0.154  0.806 -0.370 -0.410 -0.379 -0.363 -0.363
 0.156  0.811 -0.365 -0.407 -0.376 -0.362 -0.362
 0.158  0.816 -0.360 -0.403 -0.374 -0.360 -0.360
 0.160  0.821 -0.355 -0.400 -0.372 -0.359 -0.359
 0.162  0.824 -0.350 -0.396 -0.369 -0.356 -0.356
 0.164  0.829 -0.345 -0.394 -0.367 -0.355 -0.355
 0.166  0.834 -0.340 -0.391 -0.365 -0.353 -0.353
 0.168  0.839 -0.335 -0.387 -0.363 -0.351 -0.351
 0.170  0.844 -0.329 -0.384 -0.360 -0.350 -0.350
 0.172  0.849 -0.324 -0.380 -0.358 -0.348 -0.348
 0.174  0.854 -0.318 -0.377 -0.356 -0.346 -0.346
 0.176  0.858 -0.313 -0.374 -0.354 -0.344 -0.344
 0.178  0.862 -0.308 -0.370 -0.351 -0.342 -0.342
 0.180  0.867 -0.302 -0.368 -0.349 -0.340 -0.340
 0.182  0.872 -0.297 -0.365 -0.347 -0.339 -0.339
 0.184  0.877 -0.292 -0.361 -0.344 -0.337 -0.337
 0.186  0.882 -0.287 -0.358 -0.342 -0.335 -0.335
 0.188  0.887 -0.282 -0.355 -0.341 -0.333 -0.333
 0.190  0.891 -0.277 -0.351 -0.338 -0.331 -0.331
 0.192  0.896 -0.272 -0.348 -0.336 -0.329 -0.329
 0.194  0.901 -0.267 -0.345 -0.334 -0.327 -0.327
 0.196  0.906 -0.261 -0.343 -0.332 -0.325 -0.325
 0.198  0.911 -0.256 -0.339 -0.329 -0.323 -0.323
 0.200  0.915 -0.251 -0.336 -0.327 -0.321 -0.321
 0.202  0.919 -0.246 -0.333 -0.325 -0.319 -0.319
 0.204  0.924 -0.241 -0.330 -0.323 -0.317 -0.317
 0.206  0.929 -0.236 -0.327 -0.321 -0.315 -0.315
 0.208  0.934 -0.231 -0.323 -0.319 -0.313 -0.313
 0.210  0.938 -0.226 -0.320 -0.316 -0.311 -0.311
 0.212  0.943 -0.220 -0.318 -0.315 -0.309 -0.309
 0.214  0.948 -0.217 -0.315 -0.313 -0.307 -0.307
 0.216  0.952 -0.211 -0.312 -0.310 -0.305 -0.305
 0.218  0.957 -0.206 -0.309 -0.308 -0.303 -0.303
 0.220  0.961 -0.201 -0.306 -0.306 -0.301 -0.301
 0.222  0.966 -0.196 -0.302 -0.304 -0.300 -0.300
 0.224  0.971 -0.191 -0.299 -0.302 -0.298 -0.298
 0.226  0.975 -0.186 -0.296 -0.300 -0.296 -0.296
 0.228  0.980 -0.181 -0.293 -0.298 -0.294 -0.294
 0.230  0.984 -0.177 -0.291 -0.296 -0.293 -0.293
 0.232  0.988 -0.172 -0.288 -0.294 -0.291 -0.291
 0.234  0.993 -0.167 -0.285 -0.292 -0.289 -0.289
 0.236  0.997 -0.161 -0.282 -0.290 -0.287 -0.287
 0.238  1.002 -0.158 -0.279 -0.288 -0.285 -0.285
 0.240  1.005 -0.152 -0.276 -0.286 -0.284 -0.284
 0.242  1.010 -0.147 -0.273 -0.284 -0.282 -0.282
 0.244  1.014 -0.143 -0.270 -0.282 -0.280 -0.280
 0.246  1.018 -0.138 -0.267 -0.280 -0.278 -0.278
 0.248  1.023 -0.135 -0.265 -0.278 -0.277 -0.277
 0.250  1.026 -0.129 -0.262 -0.276 -0.276 -0.276
 0.252  1.030 -0.124 -0.259 -0.274 -0.274 -0.274
 0.254  1.035 -0.120 -0.257 -0.272 -0.272 -0.272
 0.256  1.039 -0.117 -0.254 -0.270 -0.270 -0.270
 0.258  1.042 -0.111 -0.251 -0.268 -0.269 -0.269
 0.260  1.046 -0.108 -0.248 -0.266 -0.268 -0.268
 0.262  1.050 -0.102 -0.245 -0.264 -0.266 -0.266
 0.264  1.055 -0.099 -0.242 -0.263 -0.264 -0.264
 0.266  1.058 -0.095 -0.240 -0.260 -0.263 -0.263
 0.268  1.062 -0.091 -0.238 -0.259 -0.262 -0.262
 0.270  1.066 -0.086 -0.235 -0.256 -0.260 -0.260
 0.272  1.069 -0.082 -0.232 -0.255 -0.258 -0.258
 0.274  1.073 -0.078 -0.229 -0.253 -0.257 -0.257
 0.276  1.077 -0.074 -0.227 -0.251 -0.256 -0.256
 0.278  1.081 -0.070 -0.224 -0.250 -0.254 -0.254
 0.280  1.084 -0.067 -0.221 -0.247 -0.253 -0.253
 0.282  1.088 -0.061 -0.219 -0.246 -0.251 -0.251
 0.284  1.090 -0.058 -0.216 -0.244 -0.249 -0.249
 0.286  1.094 -0.054 -0.214 -0.242 -0.248 -0.248
 0.288  1.098 -0.050 -0.211 -0.241 -0.247 -0.247
 0.290  1.102 -0.046 -0.209 -0.238 -0.245 -0.245
 0.292  1.105 -0.043 -0.206 -0.237 -0.243 -0.243
 0.294  1.109 -0.040 -0.203 -0.235 -0.242 -0.242
 0.296  1.111 -0.036 -0.201 -0.233 -0.241 -0.241
 0.298  1.115 -0.032 -0.198 -0.231 -0.239 -0.239
 0.300  1.119 -0.028 -0.196 -0.229 -0.237 -0.237
 0.302  1.122 -0.024 -0.193 -0.228 -0.236 -0.236
 0.304  1.125 -0.020 -0.190 -0.225 -0.235 -0.235
 0.306  1.129 -0.017 -0.189 -0.224 -0.233 -0.233
 0.308  1.132 -0.014 -0.186 -0.222 -0.231 -0.231
 0.310  1.136 -0.010 -0.183 -0.220 -0.230 -0.230
 0.312  1.138 -0.006 -0.181 -0.219 -0.228 -0.228
 0.314  1.142 -0.002 -0.178 -0.216 -0.227 -0.227
 0.316  1.146  0.001 -0.176 -0.215 -0.225 -0.225
 0.318  1.150  0.005 -0.173 -0.213 -0.223 -0.223
 0.320  1.152  0.008 -0.170 -0.211 -0.222 -0.222
 0.322  1.156  0.012 -0.168 -0.209 -0.221 -0.221
 0.324  1.159  0.015 -0.165 -0.207 -0.219 -0.219
 0.326  1.162  0.019 -0.163 -0.205 -0.217 -0.217
 0.328  1.166  0.023 -0.161 -0.203 -0.216 -0.216
 0.330  1.169  0.026 -0.158 -0.201 -0.214 -0.214
 0.332  1.173  0.030 -0.156 -0.200 -0.212 -0.212
 0.334  1.175  0.033 -0.153 -0.197 -0.211 -0.211
 0.336  1.179  0.037 -0.151 -0.196 -0.209 -0.209
 0.338  1.183  0.041 -0.148 -0.194 -0.208 -0.208
 0.340  1.185  0.044 -0.146 -0.192 -0.206 -0.206
 0.342  1.189  0.048 -0.143 -0.190 -0.204 -0.204
 0.344  1.191  0.051 -0.140 -0.188 -0.203 -0.203
 0.346  1.195  0.055 -0.138 -0.186 -0.201 -0.201
 0.348  1.199  0.058 -0.136 -0.184 -0.200 -0.200
 0.350  1.201  0.062 -0.134 -0.182 -0.198 -0.198
 0.352  1.205  0.066 -0.131 -0.180 -0.196 -0.196
 0.354  1.209  0.069 -0.129 -0.178 -0.194 -0.194
 0.356  1.211  0.072 -0.126 -0.176 -0.193 -0.193
 0.358  1.215  0.076 -0.124 -0.174 -0.191 -0.191
 0.360  1.217  0.080 -0.121 -0.172 -0.190 -0.190
 0.362  1.221  0.082 -0.119 -0.170 -0.188 -0.188
 0.364  1.225  0.086 -0.116 -0.169 -0.186 -0.186
 0.366  1.227  0.090 -0.114 -0.166 -0.185 -0.185
 0.368  1.231  0.094 -0.111 -0.164 -0.183 -0.183
 0.370  1.233  0.096 -0.110 -0.162 -0.181 -0.181
 0.372  1.237  0.100 -0.107 -0.160 -0.179 -0.179
 0.374  1.240  0.104 -0.104 -0.159 -0.178 -0.178
 0.376  1.243  0.107 -0.102 -0.156 -0.176 -0.176
 0.378  1.246  0.110 -0.099 -0.155 -0.174 -0.174
 0.380  1.249  0.114 -0.097 -0.153 -0.173 -0.173
 0.382  1.252  0.118 -0.094 -0.151 -0.171 -0.171
 0.384  1.256  0.121 -0.092 -0.149 -0.169 -0.169
 0.386  1.258  0.124 -0.089 -0.147 -0.167 -0.167
 0.388  1.262  0.128 -0.087 -0.145 -0.166 -0.166
 0.390  1.264  0.132 -0.085 -0.144 -0.164 -0.164
 0.392  1.268  0.135 -0.083 -0.141 -0.162 -0.162
 0.394  1.270  0.139 -0.080 -0.140 -0.161 -0.161
 0.396  1.274  0.142 -0.078 -0.138 -0.159 -0.159
 0.398  1.276  0.146 -0.075 -0.136 -0.157 -0.157
 0.400  1.280  0.149 -0.073 -0.134 -0.155 -0.155
 0.402  1.283  0.153 -0.070 -0.132 -0.153 -0.153
 0.404  1.286  0.157 -0.067 -0.131 -0.152 -0.152
 0.406  1.289  0.160 -0.065 -0.129 -0.150 -0.150
 0.408  1.291  0.164 -0.062 -0.127 -0.148 -0.148
 0.410  1.295  0.167 -0.060 -0.125 -0.146 -0.146
 0.412  1.297  0.171 -0.058 -0.124 -0.144 -0.144
 0.414  1.300  0.174 -0.056 -0.122 -0.142 -0.142
 0.416  1.304  0.178 -0.053 -0.120 -0.141 -0.141
 0.418  1.306  0.182 -0.051 -0.119 -0.139 -0.139
 0.420  1.310  0.185 -0.048 -0.116 -0.138 -0.138
 0.422  1.312  0.189 -0.046 -0.115 -0.136 -0.136
 0.424  1.315  0.192 -0.043 -0.113 -0.134 -0.134
 0.426  1.318  0.196 -0.040 -0.112 -0.132 -0.132
 0.428  1.321  0.200 -0.038 -0.109 -0.130 -0.130
 0.430  1.323  0.204 -0.035 -0.108 -0.129 -0.129
 0.432  1.326  0.207 -0.033 -0.106 -0.127 -0.127
 0.434  1.329  0.210 -0.031 -0.105 -0.126 -0.126
 0.436  1.332  0.214 -0.029 -0.103 -0.124 -0.124
 0.438  1.334  0.218 -0.026 -0.101 -0.122 -0.122
 0.440  1.337  0.222 -0.024 -0.100 -0.121 -0.121
 0.442  1.341  0.226 -0.021 -0.098 -0.119 -0.119
 0.444  1.343  0.228 -0.019 -0.097 -0.118 -0.118
 0.446  1.345  0.232 -0.017 -0.094 -0.116 -0.116
 0.448  1.348  0.236 -0.014 -0.093 -0.114 -0.114
 0.450  1.350  0.239 -0.012 -0.091 -0.113 -0.113
 0.452  1.353  0.242 -0.010 -0.090 -0.111 -0.111
 0.454  1.355  0.245 -0.007 -0.088 -0.109 -0.109
 0.456  1.358  0.248 -0.006 -0.086 -0.108 -0.108
 0.458  1.360  0.251 -0.004 -0.084 -0.107 -0.107
 0.460  1.363  0.254 -0.002 -0.083 -0.105 -0.105
 0.462  1.365  0.257  0.001 -0.081 -0.104 -0.104
 0.464  1.368  0.259  0.003 -0.079 -0.102 -0.102
 0.466  1.370  0.262  0.005 -0.078 -0.101 -0.101
 0.468  1.373  0.264  0.007 -0.076 -0.099 -0.099
 0.470  1.375  0.267  0.009 -0.075 -0.098 -0.098
 0.472  1.378  0.269  0.011 -0.073 -0.097 -0.097
 0.474  1.380  0.272  0.013 -0.071 -0.095 -0.095
 0.476  1.382  0.274  0.015 -0.069 -0.094 -0.094
 0.478  1.384  0.277  0.017 -0.068 -0.093 -0.093
 0.480  1.386  0.278  0.019 -0.066 -0.091 -0.091
 0.482  1.389  0.281  0.020 -0.065 -0.090 -0.090
 0.484  1.391  0.283  0.022 -0.062 -0.089 -0.089
 0.486  1.392  0.285  0.024 -0.061 -0.087 -0.087
 0.488  1.395  0.287  0.026 -0.059 -0.086 -0.086
 0.490  1.397  0.289  0.028 -0.058 -0.085 -0.085
 0.492  1.398  0.290  0.029 -0.056 -0.083 -0.083
 0.494  1.401  0.292  0.031 -0.054 -0.082 -0.082
 0.496  1.403  0.294  0.033 -0.053 -0.081 -0.081
 0.498  1.405  0.295  0.035 -0.051 -0.080 -0.080
 0.500  1.407  0.296  0.037 -0.050 -0.079 -0.079
 0.502  1.408  0.298  0.038 -0.047 -0.077 -0.077
 0.504  1.411  0.299  0.040 -0.046 -0.076 -0.076
 0.506  1.412  0.300  0.042 -0.044 -0.075 -0.075
 0.508  1.414  0.301  0.043 -0.043 -0.074 -0.074
 0.510  1.416  0.303  0.045 -0.041 -0.072 -0.072
 0.512  1.418  0.304  0.045 -0.040 -0.072 -0.072
 0.514  1.419  0.305  0.047 -0.038 -0.070 -0.070
 0.516  1.421  0.305  0.048 -0.037 -0.069 -0.069
 0.518  1.422  0.307  0.050 -0.035 -0.068 -0.068
 0.520  1.424  0.308  0.051 -0.034 -0.067 -0.067
 0.522  1.426  0.308  0.053 -0.032 -0.066 -0.066
 0.524  1.427  0.309  0.054 -0.031 -0.065 -0.065
 0.526  1.428  0.310  0.055 -0.030 -0.064 -0.064
 0.528  1.429  0.312  0.057 -0.028 -0.063 -0.063
 0.530  1.431  0.312  0.058 -0.028 -0.062 -0.062
 0.532  1.432  0.313  0.059 -0.026 -0.061 -0.061
 0.534  1.433  0.313  0.060 -0.025 -0.060 -0.060
 0.536  1.434  0.314  0.062 -0.024 -0.059 -0.059
 0.538  1.435  0.316  0.063 -0.023 -0.058 -0.058
 0.540  1.437  0.316  0.064 -0.021 -0.057 -0.057
 0.542  1.438  0.317  0.065 -0.021 -0.056 -0.056
 0.544  1.439  0.318  0.066 -0.020 -0.055 -0.055
 0.546  1.440  0.318  0.067 -0.018 -0.054 -0.054
 0.548  1.442  0.319  0.068 -0.018 -0.054 -0.054
 0.550  1.442  0.319  0.069 -0.017 -0.052 -0.052
 0.552  1.443  0.321  0.070 -0.016 -0.052 -0.052
 0.554  1.444  0.321  0.071 -0.015 -0.051 -0.051
 0.556  1.444  0.322  0.071 -0.015 -0.050 -0.050
 0.558  1.445  0.322  0.071 -0.014 -0.049 -0.049
 0.560  1.445  0.323  0.072 -0.013 -0.048 -0.048
 0.562  1.447  0.323  0.073 -0.012 -0.048 -0.048
 0.564  1.447  0.325  0.074 -0.012 -0.047 -0.047
 0.566  1.448  0.325  0.074 -0.011 -0.046 -0.046
 0.568  1.448  0.325  0.075 -0.010 -0.045 -0.045
 0.570  1.449  0.326  0.076 -0.010 -0.044 -0.044
 0.572  1.449  0.326  0.076 -0.009 -0.044 -0.044
 0.574  1.449  0.327  0.077 -0.009 -0.043 -0.043
 0.576  1.450  0.327  0.078 -0.009 -0.041 -0.041
 0.578  1.450  0.327  0.078 -0.008 -0.041 -0.041
 0.580  1.450  0.328  0.079 -0.007 -0.040 -0.040
 0.582  1.450  0.328  0.079 -0.007 -0.039 -0.039
 0.584  1.451  0.328  0.080 -0.006 -0.039 -0.039
 0.586  1.451  0.330  0.080 -0.006 -0.037 -0.037
 0.588  1.451  0.330  0.081 -0.006 -0.037 -0.037
 0.590  1.451  0.330  0.081 -0.006 -0.036 -0.036
 0.592  1.451  0.330  0.082 -0.005 -0.035 -0.035
 0.594  1.453  0.331  0.082 -0.005 -0.035 -0.035
 0.596  1.453  0.331  0.082 -0.004 -0.033 -0.033
 0.598  1.453  0.331  0.083 -0.004 -0.033 -0.033
 0.600  1.453  0.331  0.083 -0.003 -0.032 -0.032
 0.602  1.453  0.332  0.084 -0.003 -0.031 -0.031
 0.604  1.453  0.332  0.084 -0.003 -0.031 -0.031
 0.606  1.453  0.332  0.084 -0.003 -0.030 -0.030
 0.608  1.453  0.332  0.085 -0.002 -0.029 -0.029
 0.610  1.453  0.332  0.085 -0.002 -0.028 -0.028
 0.612  1.453  0.333  0.085 -0.002 -0.027 -0.027
 0.614  1.453  0.333  0.086 -0.001 -0.027 -0.027
 0.616  1.453  0.333  0.086 -0.001 -0.026 -0.026
 0.618  1.453  0.333  0.086 -0.001 -0.025 -0.025
 0.620  1.453  0.333  0.087 -0.000 -0.025 -0.025
 0.622  1.453  0.333  0.087 -0.000 -0.023 -0.023
 0.624  1.453  0.333  0.087 -0.000 -0.023 -0.023
 0.626  1.451  0.335  0.087  0.001 -0.022 -0.022
 0.628  1.451  0.335  0.088  0.001 -0.021 -0.021
 0.630  1.451  0.335  0.088  0.001 -0.021 -0.021
 0.632  1.451  0.335  0.088  0.001 -0.020 -0.020
 0.634  1.451  0.335  0.088  0.001 -0.019 -0.019
 0.636  1.450  0.335  0.088  0.001 -0.019 -0.019
 0.638  1.450  0.335  0.089  0.001 -0.018 -0.018
 0.640  1.450  0.335  0.089  0.001 -0.017 -0.017
 0.642  1.450  0.335  0.089  0.001 -0.017 -0.017
 0.644  1.449  0.335  0.089  0.002 -0.016 -0.016
 0.646  1.449  0.335  0.089  0.002 -0.015 -0.015
 0.648  1.449  0.335  0.089  0.002 -0.015 -0.015
 0.650  1.448  0.335  0.089  0.002 -0.014 -0.014
 0.652  1.448  0.335  0.089  0.002 -0.013 -0.013
 0.654  1.448  0.335  0.089  0.002 -0.013 -0.013
 0.656  1.448  0.335  0.089  0.003 -0.013 -0.013
 0.658  1.447  0.335  0.089  0.003 -0.012 -0.012
 0.660  1.447  0.335  0.089  0.003 -0.011 -0.011
 0.662  1.447  0.333  0.089  0.003 -0.011 -0.011
 0.664  1.445  0.333  0.089  0.003 -0.011 -0.011
 0.666  1.445  0.333  0.089  0.004 -0.010 -0.010
 0.668  1.445  0.333  0.089  0.004 -0.009 -0.009
 0.670  1.444  0.333  0.088  0.004 -0.009 -0.009
 0.672  1.444  0.332  0.088  0.004 -0.009 -0.009
 0.674  1.444  0.332  0.088  0.004 -0.008 -0.008
 0.676  1.443  0.332  0.088  0.004 -0.008 -0.008
 0.678  1.443  0.331  0.087  0.004 -0.007 -0.007
 0.680  1.443  0.331  0.087  0.004 -0.006 -0.006
 0.682  1.443  0.330  0.087  0.004 -0.006 -0.006
 0.684  1.442  0.330  0.086  0.005 -0.006 -0.006
 0.686  1.442  0.330  0.086  0.005 -0.006 -0.006
 0.688  1.442  0.328  0.085  0.005 -0.005 -0.005
 0.690  1.440  0.328  0.085  0.005 -0.005 -0.005
 0.692  1.440  0.327  0.084  0.006 -0.004 -0.004
 0.694  1.440  0.327  0.084  0.006 -0.004 -0.004
 0.696  1.439  0.326  0.083  0.006 -0.004 -0.004
 0.698  1.439  0.325  0.083  0.007 -0.004 -0.004
 0.700  1.439  0.325  0.082  0.007 -0.003 -0.003
 0.702  1.438  0.323  0.082  0.007 -0.003 -0.003
 0.704  1.438  0.322  0.081  0.007 -0.002 -0.002
 0.706  1.438  0.322  0.080  0.007 -0.002 -0.002
 0.708  1.438  0.321  0.079  0.007 -0.002 -0.002
 0.710  1.437  0.319  0.079  0.007 -0.001 -0.001
 0.712  1.437  0.318  0.078  0.008 -0.000 -0.000
 0.714  1.437  0.317  0.077  0.008  0.000  0.000
 0.716  1.435  0.317  0.076  0.008  0.001  0.001
 0.718  1.435  0.316  0.076  0.009  0.002  0.002
 0.720  1.435  0.314  0.075  0.009  0.003  0.003
 0.722  1.435  0.313  0.074  0.009  0.004  0.004
 0.724  1.434  0.312  0.074  0.010  0.005  0.005
 0.726  1.434  0.310  0.073  0.010  0.006  0.006
 0.728  1.434  0.309  0.072  0.010  0.007  0.007
 0.730  1.434  0.309  0.072  0.010  0.008  0.008
 0.732  1.433  0.308  0.072  0.010  0.010  0.010
 0.734  1.433  0.307  0.072  0.010  0.010  0.010
 0.736  1.433  0.307  0.072  0.011  0.012  0.012
 0.738  1.433  0.307  0.072  0.011  0.013  0.013
 0.740  1.432  0.305  0.072  0.011  0.014  0.014
 0.742  1.432  0.305  0.072  0.011  0.016  0.016
 0.744  1.432  0.305  0.072  0.012  0.018  0.018
 0.746  1.432  0.305  0.073  0.012  0.019  0.019
 0.748  1.432  0.305  0.073  0.012  0.021  0.021
 0.750  1.432  0.305  0.074  0.013  0.022  0.022
 0.752  1.431  0.307  0.074  0.013  0.024  0.024
 0.754  1.431  0.307  0.075  0.013  0.026  0.026
 0.756  1.431  0.307  0.076  0.013  0.028  0.028
 0.758  1.431  0.308  0.077  0.013  0.030  0.030
 0.760  1.431  0.308  0.078  0.013  0.032  0.032
 0.762  1.431  0.309  0.079  0.014  0.034  0.034
 0.764  1.431  0.310  0.080  0.014  0.036  0.036
 0.766  1.431  0.312  0.081  0.014  0.038  0.038
 0.768  1.431  0.313  0.083  0.015  0.040  0.040
 0.770  1.431  0.314  0.084  0.015  0.043  0.043
 0.772  1.431  0.316  0.086  0.015  0.045  0.045
 0.774  1.431  0.318  0.088  0.015  0.047  0.047
 0.776  1.429  0.319  0.089  0.016  0.049  0.049
 0.778  1.429  0.322  0.091  0.016  0.051  0.051
 0.780  1.429  0.323  0.093  0.016  0.054  0.054
 0.782  1.429  0.326  0.095  0.016  0.056  0.056
 0.784  1.429  0.328  0.097  0.016  0.059  0.059
 0.786  1.429  0.331  0.099  0.016  0.061  0.061
 0.788  1.429  0.332  0.101  0.016  0.064  0.064
 0.790  1.431  0.335  0.103  0.017  0.066  0.066
 0.792  1.431  0.337  0.106  0.018  0.068  0.068
 0.794  1.432  0.340  0.108  0.019  0.071  0.071
 0.796  1.432  0.344  0.111  0.019  0.074  0.074
 0.798  1.433  0.346  0.113  0.020  0.076  0.076
 0.800  1.434  0.349  0.116  0.021  0.079  0.079
 0.802  1.435  0.351  0.119  0.022  0.082  0.082
 0.804  1.437  0.354  0.122  0.024  0.084  0.084
 0.806  1.438  0.357  0.124  0.025  0.087  0.087
 0.808  1.440  0.359  0.127  0.027  0.090  0.090
