# IsPeriodic    : True
# Period        : 0.542665 days
# Normalization : <g_mag>=0
# 
# Phase u_mag  g_mag  r_mag  i_mag  z_mag  y_mag
0 0.620 -0.496 -0.476 -0.540 -0.555 -0.555
0.00108533 0.620 -0.496 -0.476 -0.540 -0.554 -0.554
0.00217066 0.621 -0.495 -0.476 -0.539 -0.554 -0.554
0.00325599 0.621 -0.494 -0.475 -0.539 -0.554 -0.554
0.00434132 0.623 -0.493 -0.475 -0.538 -0.553 -0.553
0.00542665 0.624 -0.491 -0.475 -0.538 -0.553 -0.553
0.00651198 0.626 -0.489 -0.474 -0.537 -0.553 -0.553
0.00759731 0.628 -0.487 -0.474 -0.536 -0.552 -0.552
0.00868264 0.631 -0.485 -0.473 -0.536 -0.552 -0.552
0.00976797 0.633 -0.482 -0.473 -0.535 -0.551 -0.551
0.0108533 0.636 -0.479 -0.472 -0.534 -0.551 -0.551
0.0119386 0.638 -0.476 -0.471 -0.533 -0.550 -0.550
0.013024 0.640 -0.473 -0.471 -0.532 -0.549 -0.549
0.0141093 0.644 -0.470 -0.470 -0.531 -0.548 -0.548
0.0151946 0.646 -0.467 -0.469 -0.530 -0.547 -0.547
0.0162799 0.649 -0.464 -0.468 -0.528 -0.547 -0.547
0.0173653 0.652 -0.461 -0.467 -0.526 -0.545 -0.545
0.0184506 0.655 -0.458 -0.466 -0.525 -0.544 -0.544
0.0195359 0.657 -0.454 -0.465 -0.523 -0.543 -0.543
0.0206213 0.660 -0.451 -0.464 -0.521 -0.542 -0.542
0.0217066 0.664 -0.448 -0.462 -0.519 -0.541 -0.541
0.0227919 0.666 -0.444 -0.461 -0.517 -0.539 -0.539
0.0238773 0.670 -0.440 -0.459 -0.515 -0.538 -0.538
0.0249626 0.673 -0.437 -0.458 -0.513 -0.535 -0.535
0.0260479 0.676 -0.433 -0.456 -0.510 -0.534 -0.534
0.0271332 0.680 -0.430 -0.455 -0.508 -0.532 -0.532
0.0282186 0.683 -0.425 -0.453 -0.505 -0.530 -0.530
0.0293039 0.687 -0.421 -0.451 -0.502 -0.528 -0.528
0.0303892 0.690 -0.416 -0.450 -0.500 -0.527 -0.527
0.0314746 0.695 -0.412 -0.448 -0.497 -0.525 -0.525
0.0325599 0.698 -0.408 -0.446 -0.494 -0.523 -0.523
0.0336452 0.702 -0.403 -0.444 -0.492 -0.521 -0.521
0.0347306 0.706 -0.398 -0.441 -0.489 -0.519 -0.519
0.0358159 0.710 -0.393 -0.439 -0.486 -0.517 -0.517
0.0369012 0.715 -0.388 -0.437 -0.483 -0.514 -0.514
0.0379866 0.719 -0.383 -0.435 -0.481 -0.512 -0.512
0.0390719 0.724 -0.378 -0.433 -0.478 -0.510 -0.510
0.0401572 0.728 -0.373 -0.430 -0.475 -0.508 -0.508
0.0412425 0.732 -0.368 -0.428 -0.473 -0.505 -0.505
0.0423279 0.737 -0.363 -0.426 -0.470 -0.503 -0.503
0.0434132 0.741 -0.358 -0.423 -0.468 -0.501 -0.501
0.0444985 0.745 -0.352 -0.421 -0.465 -0.499 -0.499
0.0455839 0.750 -0.347 -0.419 -0.463 -0.497 -0.497
0.0466692 0.755 -0.342 -0.417 -0.461 -0.494 -0.494
0.0477545 0.759 -0.337 -0.414 -0.458 -0.493 -0.493
0.0488398 0.764 -0.332 -0.412 -0.456 -0.491 -0.491
0.0499252 0.768 -0.327 -0.410 -0.453 -0.489 -0.489
0.0510105 0.772 -0.322 -0.408 -0.451 -0.487 -0.487
0.0520958 0.777 -0.318 -0.406 -0.449 -0.485 -0.485
0.0531812 0.781 -0.312 -0.404 -0.447 -0.483 -0.483
0.0542665 0.785 -0.308 -0.402 -0.445 -0.481 -0.481
0.0553518 0.790 -0.303 -0.400 -0.443 -0.480 -0.480
0.0564372 0.794 -0.299 -0.399 -0.441 -0.478 -0.478
0.0575225 0.799 -0.294 -0.397 -0.439 -0.476 -0.476
0.0586078 0.803 -0.290 -0.395 -0.437 -0.475 -0.475
0.0596931 0.807 -0.286 -0.393 -0.435 -0.472 -0.472
0.0607785 0.811 -0.281 -0.392 -0.433 -0.471 -0.471
0.0618638 0.815 -0.278 -0.390 -0.431 -0.469 -0.469
0.0629491 0.819 -0.273 -0.388 -0.429 -0.467 -0.467
0.0640345 0.824 -0.270 -0.386 -0.427 -0.466 -0.466
0.0651198 0.828 -0.265 -0.385 -0.426 -0.464 -0.464
0.0662051 0.832 -0.262 -0.383 -0.424 -0.463 -0.463
0.0672905 0.835 -0.258 -0.382 -0.422 -0.461 -0.461
0.0683758 0.839 -0.254 -0.380 -0.421 -0.460 -0.460
0.0694611 0.844 -0.251 -0.379 -0.419 -0.458 -0.458
0.0705464 0.848 -0.247 -0.378 -0.418 -0.457 -0.457
0.0716318 0.852 -0.243 -0.376 -0.416 -0.455 -0.455
0.0727171 0.855 -0.240 -0.375 -0.414 -0.454 -0.454
0.0738024 0.859 -0.237 -0.374 -0.413 -0.452 -0.452
0.0748878 0.864 -0.233 -0.372 -0.411 -0.451 -0.451
0.0759731 0.867 -0.230 -0.371 -0.410 -0.449 -0.449
0.0770584 0.871 -0.227 -0.370 -0.408 -0.448 -0.448
0.0781438 0.875 -0.224 -0.369 -0.406 -0.447 -0.447
0.0792291 0.879 -0.221 -0.367 -0.405 -0.445 -0.445
0.0803144 0.883 -0.218 -0.366 -0.404 -0.444 -0.444
0.0813997 0.886 -0.215 -0.365 -0.402 -0.443 -0.443
0.0824851 0.890 -0.212 -0.364 -0.400 -0.441 -0.441
0.0835704 0.894 -0.209 -0.363 -0.399 -0.440 -0.440
0.0846557 0.898 -0.206 -0.362 -0.397 -0.439 -0.439
0.0857411 0.901 -0.203 -0.361 -0.396 -0.437 -0.437
0.0868264 0.904 -0.201 -0.359 -0.394 -0.436 -0.436
0.0879117 0.909 -0.198 -0.358 -0.393 -0.434 -0.434
0.0889971 0.912 -0.195 -0.357 -0.391 -0.432 -0.432
0.0900824 0.915 -0.192 -0.355 -0.389 -0.431 -0.431
0.0911677 0.919 -0.190 -0.354 -0.388 -0.429 -0.429
0.0922531 0.923 -0.187 -0.352 -0.387 -0.428 -0.428
0.0933384 0.926 -0.184 -0.351 -0.385 -0.427 -0.427
0.0944237 0.929 -0.181 -0.350 -0.383 -0.425 -0.425
0.095509 0.933 -0.178 -0.348 -0.382 -0.424 -0.424
0.0965944 0.937 -0.175 -0.347 -0.380 -0.422 -0.422
0.0976797 0.940 -0.172 -0.345 -0.379 -0.421 -0.421
0.098765 0.944 -0.169 -0.344 -0.377 -0.419 -0.419
0.0998504 0.947 -0.166 -0.342 -0.376 -0.418 -0.418
0.100936 0.950 -0.163 -0.341 -0.374 -0.416 -0.416
0.102021 0.954 -0.160 -0.339 -0.373 -0.415 -0.415
0.103106 0.957 -0.157 -0.337 -0.371 -0.413 -0.413
0.104192 0.960 -0.154 -0.336 -0.369 -0.411 -0.411
0.105277 0.963 -0.151 -0.334 -0.368 -0.410 -0.410
0.106362 0.966 -0.148 -0.333 -0.367 -0.408 -0.408
0.107448 0.969 -0.145 -0.331 -0.365 -0.407 -0.407
0.108533 0.973 -0.142 -0.329 -0.363 -0.405 -0.405
0.109618 0.976 -0.139 -0.327 -0.362 -0.404 -0.404
0.110704 0.978 -0.136 -0.326 -0.361 -0.402 -0.402
0.111789 0.982 -0.133 -0.324 -0.359 -0.401 -0.401
0.112874 0.985 -0.130 -0.323 -0.357 -0.399 -0.399
0.11396 0.988 -0.127 -0.321 -0.356 -0.398 -0.398
0.115045 0.991 -0.124 -0.319 -0.355 -0.396 -0.396
0.11613 0.994 -0.120 -0.317 -0.353 -0.395 -0.395
0.117216 0.997 -0.118 -0.315 -0.351 -0.393 -0.393
0.118301 1.000 -0.115 -0.313 -0.350 -0.392 -0.392
0.119386 1.003 -0.112 -0.311 -0.348 -0.390 -0.390
0.120472 1.006 -0.108 -0.309 -0.347 -0.388 -0.388
0.121557 1.008 -0.105 -0.308 -0.346 -0.387 -0.387
0.122642 1.012 -0.102 -0.306 -0.344 -0.385 -0.385
0.123728 1.014 -0.099 -0.304 -0.342 -0.384 -0.384
0.124813 1.018 -0.096 -0.302 -0.341 -0.382 -0.382
0.125898 1.020 -0.094 -0.300 -0.340 -0.381 -0.381
0.126984 1.023 -0.091 -0.298 -0.338 -0.379 -0.379
0.128069 1.026 -0.088 -0.296 -0.337 -0.378 -0.378
0.129154 1.028 -0.085 -0.294 -0.335 -0.377 -0.377
0.13024 1.031 -0.082 -0.292 -0.334 -0.375 -0.375
0.131325 1.034 -0.079 -0.290 -0.332 -0.374 -0.374
0.13241 1.037 -0.076 -0.288 -0.331 -0.373 -0.373
0.133496 1.039 -0.073 -0.286 -0.329 -0.371 -0.371
0.134581 1.043 -0.071 -0.284 -0.328 -0.369 -0.369
0.135666 1.045 -0.068 -0.282 -0.326 -0.368 -0.368
0.136752 1.048 -0.065 -0.280 -0.325 -0.367 -0.367
0.137837 1.051 -0.063 -0.279 -0.324 -0.366 -0.366
0.138922 1.053 -0.060 -0.277 -0.322 -0.364 -0.364
0.140008 1.056 -0.057 -0.275 -0.321 -0.363 -0.363
0.141093 1.058 -0.055 -0.273 -0.319 -0.362 -0.362
0.142178 1.062 -0.052 -0.271 -0.318 -0.361 -0.361
0.143264 1.064 -0.050 -0.269 -0.316 -0.359 -0.359
0.144349 1.067 -0.048 -0.267 -0.315 -0.358 -0.358
0.145434 1.069 -0.045 -0.265 -0.314 -0.357 -0.357
0.14652 1.072 -0.043 -0.263 -0.313 -0.356 -0.356
0.147605 1.075 -0.040 -0.261 -0.311 -0.354 -0.354
0.14869 1.078 -0.038 -0.259 -0.310 -0.353 -0.353
0.149776 1.080 -0.035 -0.257 -0.308 -0.352 -0.352
0.150861 1.083 -0.033 -0.255 -0.306 -0.351 -0.351
0.151946 1.085 -0.031 -0.253 -0.305 -0.350 -0.350
0.153032 1.088 -0.029 -0.251 -0.304 -0.348 -0.348
0.154117 1.090 -0.027 -0.250 -0.303 -0.347 -0.347
0.155202 1.093 -0.024 -0.248 -0.301 -0.346 -0.346
0.156288 1.095 -0.022 -0.246 -0.300 -0.345 -0.345
0.157373 1.098 -0.020 -0.244 -0.298 -0.344 -0.344
0.158458 1.100 -0.018 -0.242 -0.297 -0.343 -0.343
0.159544 1.103 -0.016 -0.240 -0.295 -0.341 -0.341
0.160629 1.106 -0.014 -0.238 -0.294 -0.340 -0.340
0.161714 1.108 -0.011 -0.237 -0.293 -0.339 -0.339
0.162799 1.111 -0.009 -0.235 -0.291 -0.338 -0.338
0.163885 1.113 -0.007 -0.233 -0.290 -0.337 -0.337
0.16497 1.116 -0.006 -0.231 -0.288 -0.336 -0.336
0.166055 1.118 -0.003 -0.229 -0.287 -0.334 -0.334
0.167141 1.120 -0.001 -0.227 -0.285 -0.333 -0.333
0.168226 1.123 0.001 -0.225 -0.284 -0.332 -0.332
0.169311 1.125 0.003 -0.223 -0.283 -0.331 -0.331
0.170397 1.128 0.005 -0.222 -0.281 -0.330 -0.330
0.171482 1.130 0.007 -0.220 -0.280 -0.328 -0.328
0.172567 1.132 0.009 -0.219 -0.278 -0.327 -0.327
0.173653 1.135 0.011 -0.217 -0.277 -0.326 -0.326
0.174738 1.137 0.013 -0.215 -0.275 -0.324 -0.324
0.175823 1.140 0.016 -0.213 -0.274 -0.323 -0.323
0.176909 1.142 0.017 -0.212 -0.272 -0.322 -0.322
0.177994 1.145 0.019 -0.210 -0.271 -0.321 -0.321
0.179079 1.147 0.021 -0.208 -0.269 -0.320 -0.320
0.180165 1.150 0.024 -0.207 -0.268 -0.318 -0.318
0.18125 1.152 0.025 -0.205 -0.267 -0.317 -0.317
0.182335 1.154 0.027 -0.204 -0.265 -0.316 -0.316
0.183421 1.157 0.029 -0.202 -0.264 -0.315 -0.315
0.184506 1.159 0.032 -0.201 -0.262 -0.313 -0.313
0.185591 1.162 0.034 -0.199 -0.261 -0.312 -0.312
0.186677 1.164 0.035 -0.197 -0.259 -0.311 -0.311
0.187762 1.167 0.037 -0.196 -0.258 -0.310 -0.310
0.188847 1.168 0.040 -0.194 -0.256 -0.308 -0.308
0.189933 1.171 0.041 -0.193 -0.255 -0.307 -0.307
0.191018 1.173 0.043 -0.192 -0.253 -0.305 -0.305
0.192103 1.176 0.045 -0.190 -0.252 -0.304 -0.304
0.193189 1.178 0.048 -0.189 -0.250 -0.303 -0.303
0.194274 1.180 0.049 -0.187 -0.249 -0.302 -0.302
0.195359 1.182 0.051 -0.186 -0.247 -0.300 -0.300
0.196445 1.185 0.053 -0.185 -0.246 -0.299 -0.299
0.19753 1.187 0.055 -0.183 -0.245 -0.298 -0.298
0.198615 1.190 0.057 -0.182 -0.243 -0.297 -0.297
0.199701 1.192 0.059 -0.180 -0.241 -0.295 -0.295
0.200786 1.194 0.061 -0.179 -0.240 -0.294 -0.294
0.201871 1.197 0.063 -0.178 -0.238 -0.293 -0.293
0.202957 1.198 0.065 -0.176 -0.237 -0.291 -0.291
0.204042 1.201 0.067 -0.175 -0.235 -0.290 -0.290
0.205127 1.203 0.069 -0.173 -0.234 -0.289 -0.289
0.206213 1.205 0.071 -0.172 -0.232 -0.287 -0.287
0.207298 1.207 0.073 -0.170 -0.231 -0.286 -0.286
0.208383 1.210 0.075 -0.169 -0.229 -0.284 -0.284
0.209469 1.212 0.077 -0.167 -0.228 -0.283 -0.283
0.210554 1.214 0.079 -0.166 -0.226 -0.282 -0.282
0.211639 1.217 0.081 -0.165 -0.225 -0.280 -0.280
0.212725 1.218 0.083 -0.163 -0.224 -0.279 -0.279
0.21381 1.221 0.085 -0.162 -0.222 -0.278 -0.278
0.214895 1.222 0.087 -0.160 -0.220 -0.276 -0.276
0.215981 1.225 0.089 -0.159 -0.219 -0.275 -0.275
0.217066 1.227 0.090 -0.157 -0.217 -0.274 -0.274
0.218151 1.229 0.093 -0.155 -0.216 -0.272 -0.272
0.219237 1.231 0.095 -0.154 -0.214 -0.271 -0.271
0.220322 1.233 0.097 -0.152 -0.212 -0.270 -0.270
0.221407 1.235 0.098 -0.151 -0.211 -0.268 -0.268
0.222493 1.237 0.101 -0.150 -0.210 -0.267 -0.267
0.223578 1.239 0.103 -0.148 -0.208 -0.265 -0.265
0.224663 1.242 0.105 -0.146 -0.206 -0.264 -0.264
0.225749 1.243 0.106 -0.145 -0.205 -0.262 -0.262
0.226834 1.245 0.109 -0.143 -0.204 -0.261 -0.261
0.227919 1.247 0.111 -0.141 -0.202 -0.259 -0.259
0.229005 1.249 0.113 -0.140 -0.200 -0.258 -0.258
0.23009 1.252 0.115 -0.138 -0.199 -0.257 -0.257
0.231175 1.253 0.117 -0.137 -0.198 -0.255 -0.255
0.232261 1.255 0.119 -0.135 -0.196 -0.254 -0.254
0.233346 1.257 0.121 -0.134 -0.195 -0.252 -0.252
0.234431 1.259 0.123 -0.132 -0.193 -0.251 -0.251
0.235517 1.261 0.125 -0.131 -0.192 -0.250 -0.250
0.236602 1.262 0.127 -0.129 -0.190 -0.248 -0.248
0.237687 1.265 0.129 -0.127 -0.189 -0.247 -0.247
0.238773 1.267 0.131 -0.126 -0.188 -0.246 -0.246
0.239858 1.268 0.133 -0.124 -0.187 -0.244 -0.244
0.240943 1.270 0.135 -0.123 -0.185 -0.242 -0.242
0.242029 1.272 0.136 -0.122 -0.184 -0.241 -0.241
0.243114 1.273 0.138 -0.120 -0.183 -0.240 -0.240
0.244199 1.276 0.140 -0.119 -0.182 -0.239 -0.239
0.245285 1.277 0.142 -0.118 -0.180 -0.237 -0.237
0.24637 1.279 0.144 -0.116 -0.179 -0.236 -0.236
0.247455 1.281 0.145 -0.115 -0.178 -0.235 -0.235
0.248541 1.282 0.147 -0.114 -0.177 -0.234 -0.234
0.249626 1.284 0.149 -0.113 -0.175 -0.232 -0.232
0.250711 1.286 0.150 -0.111 -0.174 -0.231 -0.231
0.251797 1.287 0.152 -0.110 -0.173 -0.230 -0.230
0.252882 1.288 0.153 -0.109 -0.172 -0.229 -0.229
0.253967 1.290 0.154 -0.108 -0.171 -0.227 -0.227
0.255053 1.292 0.156 -0.107 -0.170 -0.226 -0.226
0.256138 1.293 0.157 -0.106 -0.169 -0.225 -0.225
0.257223 1.295 0.159 -0.105 -0.168 -0.223 -0.223
0.258309 1.296 0.160 -0.104 -0.167 -0.222 -0.222
0.259394 1.297 0.162 -0.103 -0.166 -0.221 -0.221
0.260479 1.299 0.162 -0.102 -0.165 -0.220 -0.220
0.261565 1.301 0.164 -0.102 -0.164 -0.219 -0.219
0.26265 1.301 0.165 -0.101 -0.163 -0.218 -0.218
0.263735 1.303 0.166 -0.100 -0.162 -0.216 -0.216
0.264821 1.305 0.168 -0.099 -0.161 -0.215 -0.215
0.265906 1.306 0.168 -0.098 -0.161 -0.214 -0.214
0.266991 1.307 0.170 -0.098 -0.159 -0.213 -0.213
0.268077 1.308 0.170 -0.097 -0.159 -0.212 -0.212
0.269162 1.310 0.171 -0.096 -0.158 -0.211 -0.211
0.270247 1.311 0.173 -0.095 -0.157 -0.210 -0.210
0.271332 1.312 0.173 -0.095 -0.156 -0.209 -0.209
0.272418 1.313 0.174 -0.094 -0.155 -0.208 -0.208
0.273503 1.315 0.175 -0.094 -0.154 -0.207 -0.207
0.274588 1.316 0.176 -0.093 -0.153 -0.206 -0.206
0.275674 1.316 0.176 -0.093 -0.153 -0.205 -0.205
0.276759 1.318 0.177 -0.092 -0.152 -0.203 -0.203
0.277844 1.319 0.178 -0.092 -0.151 -0.202 -0.202
0.27893 1.320 0.178 -0.091 -0.150 -0.201 -0.201
0.280015 1.321 0.179 -0.090 -0.149 -0.200 -0.200
0.2811 1.322 0.180 -0.090 -0.148 -0.199 -0.199
0.282186 1.323 0.181 -0.089 -0.147 -0.198 -0.198
0.283271 1.324 0.181 -0.088 -0.147 -0.197 -0.197
0.284356 1.325 0.182 -0.088 -0.146 -0.196 -0.196
0.285442 1.326 0.183 -0.087 -0.145 -0.195 -0.195
0.286527 1.327 0.184 -0.087 -0.145 -0.194 -0.194
0.287612 1.328 0.184 -0.086 -0.143 -0.193 -0.193
0.288698 1.329 0.184 -0.085 -0.143 -0.192 -0.192
0.289783 1.330 0.185 -0.084 -0.142 -0.191 -0.191
0.290868 1.331 0.186 -0.084 -0.141 -0.190 -0.190
0.291954 1.331 0.186 -0.083 -0.140 -0.189 -0.189
0.293039 1.332 0.186 -0.082 -0.140 -0.188 -0.188
0.294124 1.333 0.187 -0.082 -0.139 -0.188 -0.188
0.29521 1.333 0.187 -0.081 -0.138 -0.187 -0.187
0.296295 1.334 0.188 -0.080 -0.137 -0.186 -0.186
0.29738 1.335 0.188 -0.080 -0.137 -0.185 -0.185
0.298466 1.336 0.189 -0.079 -0.136 -0.184 -0.184
0.299551 1.336 0.189 -0.079 -0.135 -0.183 -0.183
0.300636 1.336 0.189 -0.078 -0.134 -0.182 -0.182
0.301722 1.337 0.189 -0.077 -0.133 -0.181 -0.181
0.302807 1.338 0.190 -0.076 -0.133 -0.180 -0.180
0.303892 1.338 0.190 -0.076 -0.132 -0.179 -0.179
0.304978 1.339 0.190 -0.075 -0.131 -0.178 -0.178
0.306063 1.340 0.191 -0.074 -0.131 -0.178 -0.178
0.307148 1.340 0.191 -0.073 -0.130 -0.177 -0.177
0.308234 1.341 0.191 -0.072 -0.129 -0.176 -0.176
0.309319 1.341 0.192 -0.072 -0.128 -0.175 -0.175
0.310404 1.341 0.192 -0.071 -0.128 -0.174 -0.174
0.31149 1.341 0.192 -0.070 -0.127 -0.174 -0.174
0.312575 1.342 0.192 -0.069 -0.127 -0.173 -0.173
0.31366 1.342 0.192 -0.068 -0.126 -0.172 -0.172
0.314746 1.343 0.192 -0.068 -0.125 -0.171 -0.171
0.315831 1.343 0.192 -0.067 -0.125 -0.170 -0.170
0.316916 1.343 0.192 -0.066 -0.124 -0.170 -0.170
0.318002 1.344 0.192 -0.065 -0.124 -0.169 -0.169
0.319087 1.344 0.192 -0.065 -0.123 -0.168 -0.168
0.320172 1.344 0.192 -0.064 -0.122 -0.167 -0.167
0.321258 1.345 0.192 -0.063 -0.122 -0.166 -0.166
0.322343 1.345 0.192 -0.063 -0.121 -0.166 -0.166
0.323428 1.345 0.192 -0.062 -0.121 -0.165 -0.165
0.324514 1.345 0.192 -0.061 -0.120 -0.164 -0.164
0.325599 1.345 0.192 -0.060 -0.120 -0.163 -0.163
0.326684 1.345 0.192 -0.059 -0.119 -0.162 -0.162
0.32777 1.346 0.192 -0.059 -0.119 -0.162 -0.162
0.328855 1.346 0.192 -0.058 -0.118 -0.160 -0.160
0.32994 1.346 0.192 -0.057 -0.117 -0.160 -0.160
0.331026 1.346 0.192 -0.056 -0.117 -0.159 -0.159
0.332111 1.346 0.192 -0.056 -0.117 -0.158 -0.158
0.333196 1.346 0.192 -0.055 -0.116 -0.157 -0.157
0.334282 1.346 0.192 -0.054 -0.116 -0.156 -0.156
0.335367 1.346 0.192 -0.053 -0.115 -0.156 -0.156
0.336452 1.346 0.192 -0.052 -0.115 -0.155 -0.155
0.337538 1.346 0.192 -0.052 -0.115 -0.154 -0.154
0.338623 1.346 0.192 -0.051 -0.114 -0.153 -0.153
0.339708 1.346 0.192 -0.051 -0.114 -0.152 -0.152
0.340794 1.345 0.192 -0.050 -0.113 -0.152 -0.152
0.341879 1.345 0.192 -0.049 -0.113 -0.151 -0.151
0.342964 1.345 0.192 -0.048 -0.112 -0.150 -0.150
0.34405 1.345 0.192 -0.048 -0.112 -0.149 -0.149
0.345135 1.345 0.192 -0.047 -0.112 -0.148 -0.148
0.34622 1.344 0.192 -0.046 -0.111 -0.148 -0.148
0.347306 1.344 0.192 -0.045 -0.111 -0.147 -0.147
0.348391 1.344 0.192 -0.045 -0.111 -0.146 -0.146
0.349476 1.343 0.192 -0.044 -0.110 -0.145 -0.145
0.350562 1.343 0.191 -0.043 -0.110 -0.145 -0.145
0.351647 1.343 0.191 -0.042 -0.110 -0.144 -0.144
0.352732 1.342 0.191 -0.041 -0.110 -0.143 -0.143
0.353818 1.342 0.191 -0.040 -0.109 -0.143 -0.143
0.354903 1.342 0.190 -0.040 -0.109 -0.142 -0.142
0.355988 1.341 0.190 -0.039 -0.109 -0.142 -0.142
0.357074 1.341 0.190 -0.038 -0.109 -0.141 -0.141
0.358159 1.341 0.190 -0.037 -0.109 -0.140 -0.140
0.359244 1.341 0.189 -0.036 -0.108 -0.140 -0.140
0.36033 1.341 0.189 -0.035 -0.108 -0.139 -0.139
0.361415 1.341 0.189 -0.034 -0.108 -0.139 -0.139
0.3625 1.341 0.189 -0.033 -0.107 -0.139 -0.139
0.363586 1.341 0.189 -0.032 -0.107 -0.138 -0.138
0.364671 1.341 0.189 -0.031 -0.107 -0.138 -0.138
0.365756 1.340 0.188 -0.030 -0.107 -0.138 -0.138
0.366842 1.340 0.188 -0.029 -0.107 -0.137 -0.137
0.367927 1.340 0.188 -0.028 -0.107 -0.137 -0.137
0.369012 1.340 0.187 -0.027 -0.107 -0.137 -0.137
0.370098 1.340 0.187 -0.025 -0.106 -0.137 -0.137
0.371183 1.340 0.186 -0.024 -0.106 -0.136 -0.136
0.372268 1.340 0.186 -0.023 -0.106 -0.136 -0.136
0.373354 1.340 0.186 -0.022 -0.106 -0.136 -0.136
0.374439 1.340 0.186 -0.021 -0.106 -0.136 -0.136
0.375524 1.340 0.186 -0.019 -0.106 -0.136 -0.136
0.37661 1.340 0.185 -0.018 -0.106 -0.136 -0.136
0.377695 1.341 0.185 -0.017 -0.106 -0.136 -0.136
0.37878 1.341 0.184 -0.015 -0.106 -0.136 -0.136
0.379865 1.341 0.184 -0.014 -0.106 -0.136 -0.136
0.380951 1.341 0.184 -0.012 -0.106 -0.136 -0.136
0.382036 1.341 0.184 -0.011 -0.106 -0.136 -0.136
0.383121 1.341 0.183 -0.009 -0.106 -0.136 -0.136
0.384207 1.341 0.183 -0.008 -0.106 -0.137 -0.137
0.385292 1.341 0.182 -0.006 -0.106 -0.137 -0.137
0.386377 1.341 0.182 -0.005 -0.105 -0.137 -0.137
0.387463 1.341 0.181 -0.003 -0.105 -0.136 -0.136
0.388548 1.342 0.181 -0.002 -0.104 -0.136 -0.136
0.389633 1.342 0.181 -0.000 -0.104 -0.136 -0.136
0.390719 1.342 0.180 0.001 -0.103 -0.136 -0.136
0.391804 1.343 0.180 0.002 -0.103 -0.136 -0.136
0.392889 1.344 0.179 0.004 -0.101 -0.135 -0.135
0.393975 1.344 0.179 0.005 -0.101 -0.135 -0.135
0.39506 1.345 0.178 0.006 -0.100 -0.134 -0.134
0.396145 1.346 0.178 0.006 -0.099 -0.133 -0.133
0.397231 1.346 0.178 0.007 -0.098 -0.133 -0.133
0.398316 1.347 0.178 0.007 -0.097 -0.132 -0.132
0.399401 1.349 0.178 0.007 -0.095 -0.131 -0.131
0.400487 1.350 0.178 0.007 -0.094 -0.130 -0.130
0.401572 1.351 0.178 0.007 -0.093 -0.129 -0.129
0.402657 1.353 0.178 0.007 -0.091 -0.128 -0.128
0.403743 1.354 0.178 0.006 -0.090 -0.126 -0.126
0.404828 1.356 0.178 0.006 -0.089 -0.125 -0.125
0.405913 1.358 0.178 0.006 -0.087 -0.124 -0.124
0.406999 1.360 0.178 0.005 -0.085 -0.122 -0.122
0.408084 1.361 0.178 0.004 -0.084 -0.120 -0.120
0.409169 1.363 0.178 0.003 -0.082 -0.118 -0.118
0.410255 1.366 0.178 0.001 -0.080 -0.117 -0.117
0.41134 1.367 0.179 -0.000 -0.078 -0.115 -0.115
0.412425 1.370 0.179 -0.002 -0.075 -0.113 -0.113
0.413511 1.372 0.180 -0.004 -0.074 -0.111 -0.111
0.414596 1.375 0.180 -0.005 -0.072 -0.109 -0.109
0.415681 1.377 0.181 -0.008 -0.069 -0.107 -0.107
0.416767 1.381 0.181 -0.009 -0.067 -0.104 -0.104
0.417852 1.383 0.181 -0.012 -0.064 -0.102 -0.102
0.418937 1.386 0.182 -0.014 -0.062 -0.100 -0.100
0.420023 1.390 0.183 -0.017 -0.060 -0.097 -0.097
0.421108 1.393 0.184 -0.020 -0.057 -0.094 -0.094
0.422193 1.396 0.184 -0.022 -0.055 -0.092 -0.092
0.423279 1.401 0.185 -0.025 -0.053 -0.089 -0.089
0.424364 1.404 0.186 -0.029 -0.051 -0.086 -0.086
0.425449 1.408 0.186 -0.032 -0.048 -0.084 -0.084
0.426535 1.411 0.188 -0.036 -0.046 -0.081 -0.081
0.42762 1.416 0.189 -0.039 -0.043 -0.079 -0.079
0.428705 1.419 0.189 -0.043 -0.041 -0.076 -0.076
0.429791 1.422 0.190 -0.047 -0.038 -0.074 -0.074
0.430876 1.426 0.192 -0.051 -0.036 -0.071 -0.071
0.431961 1.430 0.192 -0.055 -0.034 -0.069 -0.069
0.433047 1.433 0.193 -0.059 -0.032 -0.067 -0.067
0.434132 1.436 0.194 -0.064 -0.030 -0.065 -0.065
