# IsPeriodic    : True
# Period        : 0.542617 days
# Normalization : <g_mag>=0
# 
# Phase u_mag  g_mag  r_mag  i_mag  z_mag  y_mag
 0.000  0.247 -0.944 -0.786 -0.649 -0.596 -0.596
 0.002  0.247 -0.944 -0.786 -0.649 -0.596 -0.596
 0.004  0.247 -0.943 -0.784 -0.649 -0.595 -0.595
 0.006  0.248 -0.942 -0.782 -0.648 -0.594 -0.594
 0.008  0.250 -0.939 -0.779 -0.646 -0.594 -0.594
 0.010  0.252 -0.936 -0.775 -0.644 -0.592 -0.592
 0.012  0.254 -0.932 -0.771 -0.643 -0.591 -0.591
 0.014  0.256 -0.928 -0.766 -0.640 -0.589 -0.589
 0.016  0.259 -0.924 -0.761 -0.638 -0.587 -0.587
 0.018  0.263 -0.918 -0.756 -0.634 -0.585 -0.585
 0.020  0.267 -0.913 -0.750 -0.632 -0.583 -0.583
 0.022  0.270 -0.907 -0.744 -0.628 -0.581 -0.581
 0.024  0.274 -0.902 -0.738 -0.626 -0.579 -0.579
 0.026  0.279 -0.896 -0.733 -0.623 -0.576 -0.576
 0.028  0.284 -0.890 -0.728 -0.619 -0.573 -0.573
 0.030  0.288 -0.883 -0.723 -0.617 -0.571 -0.571
 0.032  0.293 -0.878 -0.718 -0.613 -0.569 -0.569
 0.034  0.299 -0.872 -0.713 -0.611 -0.567 -0.567
 0.036  0.304 -0.865 -0.707 -0.608 -0.564 -0.564
 0.038  0.309 -0.860 -0.702 -0.604 -0.561 -0.561
 0.040  0.315 -0.853 -0.697 -0.602 -0.559 -0.559
 0.042  0.322 -0.846 -0.693 -0.598 -0.556 -0.556
 0.044  0.329 -0.839 -0.688 -0.595 -0.553 -0.553
 0.046  0.335 -0.832 -0.683 -0.592 -0.551 -0.551
 0.048  0.342 -0.825 -0.678 -0.588 -0.548 -0.548
 0.050  0.349 -0.818 -0.673 -0.585 -0.545 -0.545
 0.052  0.357 -0.810 -0.667 -0.581 -0.541 -0.541
 0.054  0.365 -0.802 -0.661 -0.577 -0.538 -0.538
 0.056  0.373 -0.793 -0.656 -0.573 -0.534 -0.534
 0.058  0.382 -0.785 -0.651 -0.569 -0.531 -0.531
 0.060  0.390 -0.777 -0.645 -0.565 -0.528 -0.528
 0.062  0.399 -0.767 -0.640 -0.561 -0.524 -0.524
 0.064  0.409 -0.759 -0.635 -0.557 -0.520 -0.520
 0.066  0.417 -0.749 -0.628 -0.552 -0.516 -0.516
 0.068  0.428 -0.739 -0.623 -0.548 -0.513 -0.513
 0.070  0.437 -0.730 -0.618 -0.544 -0.509 -0.509
 0.072  0.447 -0.720 -0.613 -0.540 -0.504 -0.504
 0.074  0.458 -0.710 -0.608 -0.536 -0.501 -0.501
 0.076  0.467 -0.701 -0.602 -0.531 -0.497 -0.497
 0.078  0.478 -0.691 -0.597 -0.526 -0.493 -0.493
 0.080  0.488 -0.681 -0.592 -0.522 -0.489 -0.489
 0.082  0.499 -0.671 -0.586 -0.518 -0.485 -0.485
 0.084  0.508 -0.662 -0.581 -0.513 -0.481 -0.481
 0.086  0.518 -0.652 -0.576 -0.509 -0.477 -0.477
 0.088  0.527 -0.642 -0.571 -0.505 -0.473 -0.473
 0.090  0.537 -0.633 -0.565 -0.500 -0.469 -0.469
 0.092  0.546 -0.623 -0.560 -0.496 -0.466 -0.466
 0.094  0.556 -0.613 -0.555 -0.492 -0.462 -0.462
 0.096  0.564 -0.605 -0.549 -0.489 -0.458 -0.458
 0.098  0.574 -0.595 -0.544 -0.485 -0.454 -0.454
 0.100  0.582 -0.587 -0.539 -0.480 -0.451 -0.451
 0.102  0.590 -0.577 -0.534 -0.477 -0.448 -0.448
 0.104  0.598 -0.569 -0.529 -0.473 -0.445 -0.445
 0.106  0.606 -0.561 -0.524 -0.470 -0.441 -0.441
 0.108  0.614 -0.552 -0.519 -0.465 -0.438 -0.438
 0.110  0.623 -0.544 -0.514 -0.462 -0.434 -0.434
 0.112  0.631 -0.536 -0.509 -0.459 -0.431 -0.431
 0.114  0.637 -0.529 -0.504 -0.455 -0.428 -0.428
 0.116  0.646 -0.520 -0.499 -0.452 -0.425 -0.425
 0.118  0.652 -0.514 -0.494 -0.449 -0.422 -0.422
 0.120  0.661 -0.505 -0.490 -0.445 -0.419 -0.419
 0.122  0.667 -0.498 -0.485 -0.442 -0.416 -0.416
 0.124  0.674 -0.491 -0.480 -0.439 -0.413 -0.413
 0.126  0.681 -0.484 -0.476 -0.436 -0.410 -0.410
 0.128  0.688 -0.478 -0.471 -0.433 -0.408 -0.408
 0.130  0.695 -0.471 -0.466 -0.430 -0.405 -0.405
 0.132  0.700 -0.464 -0.461 -0.427 -0.402 -0.402
 0.134  0.707 -0.457 -0.457 -0.424 -0.400 -0.400
 0.136  0.712 -0.451 -0.452 -0.422 -0.397 -0.397
 0.138  0.719 -0.444 -0.448 -0.418 -0.394 -0.394
 0.140  0.725 -0.439 -0.444 -0.416 -0.392 -0.392
 0.142  0.730 -0.433 -0.439 -0.413 -0.390 -0.390
 0.144  0.735 -0.426 -0.435 -0.411 -0.388 -0.388
 0.146  0.741 -0.421 -0.429 -0.408 -0.385 -0.385
 0.148  0.746 -0.415 -0.425 -0.406 -0.383 -0.383
 0.150  0.752 -0.410 -0.421 -0.403 -0.381 -0.381
 0.152  0.757 -0.404 -0.417 -0.402 -0.379 -0.379
 0.154  0.763 -0.399 -0.413 -0.399 -0.376 -0.376
 0.156  0.768 -0.393 -0.408 -0.397 -0.374 -0.374
 0.158  0.774 -0.387 -0.404 -0.394 -0.372 -0.372
 0.160  0.779 -0.383 -0.400 -0.392 -0.370 -0.370
 0.162  0.783 -0.378 -0.396 -0.390 -0.367 -0.367
 0.164  0.789 -0.372 -0.392 -0.388 -0.365 -0.365
 0.166  0.794 -0.367 -0.387 -0.385 -0.363 -0.363
 0.168  0.799 -0.361 -0.383 -0.383 -0.361 -0.361
 0.170  0.805 -0.356 -0.379 -0.381 -0.358 -0.358
 0.172  0.810 -0.350 -0.375 -0.378 -0.356 -0.356
 0.174  0.816 -0.344 -0.371 -0.376 -0.354 -0.354
 0.176  0.820 -0.339 -0.368 -0.373 -0.352 -0.352
 0.178  0.825 -0.333 -0.364 -0.371 -0.349 -0.349
 0.180  0.831 -0.328 -0.360 -0.368 -0.347 -0.347
 0.182  0.836 -0.322 -0.356 -0.366 -0.345 -0.345
 0.184  0.842 -0.317 -0.352 -0.363 -0.343 -0.343
 0.186  0.847 -0.311 -0.348 -0.362 -0.340 -0.340
 0.188  0.853 -0.304 -0.344 -0.359 -0.338 -0.338
 0.190  0.857 -0.299 -0.340 -0.357 -0.336 -0.336
 0.192  0.862 -0.293 -0.337 -0.354 -0.334 -0.334
 0.194  0.868 -0.288 -0.333 -0.352 -0.332 -0.332
 0.196  0.873 -0.282 -0.329 -0.349 -0.330 -0.330
 0.198  0.878 -0.277 -0.326 -0.347 -0.328 -0.328
 0.200  0.884 -0.271 -0.322 -0.344 -0.326 -0.326
 0.202  0.888 -0.266 -0.319 -0.342 -0.323 -0.323
 0.204  0.893 -0.260 -0.315 -0.339 -0.321 -0.321
 0.206  0.899 -0.253 -0.312 -0.337 -0.319 -0.319
 0.208  0.904 -0.247 -0.308 -0.335 -0.317 -0.317
 0.210  0.908 -0.242 -0.304 -0.332 -0.314 -0.314
 0.212  0.914 -0.236 -0.301 -0.330 -0.312 -0.312
 0.214  0.919 -0.229 -0.297 -0.327 -0.310 -0.310
 0.216  0.925 -0.224 -0.294 -0.325 -0.308 -0.308
 0.218  0.930 -0.218 -0.291 -0.322 -0.305 -0.305
 0.220  0.934 -0.213 -0.288 -0.320 -0.303 -0.303
 0.222  0.940 -0.206 -0.284 -0.317 -0.301 -0.301
 0.224  0.945 -0.200 -0.281 -0.315 -0.299 -0.299
 0.226  0.949 -0.195 -0.278 -0.312 -0.296 -0.296
 0.228  0.955 -0.189 -0.275 -0.310 -0.295 -0.295
 0.230  0.960 -0.184 -0.272 -0.307 -0.293 -0.293
 0.232  0.964 -0.178 -0.268 -0.305 -0.290 -0.290
 0.234  0.970 -0.173 -0.265 -0.302 -0.288 -0.288
 0.236  0.974 -0.167 -0.262 -0.300 -0.286 -0.286
 0.238  0.979 -0.162 -0.259 -0.298 -0.284 -0.284
 0.240  0.983 -0.156 -0.256 -0.296 -0.282 -0.282
 0.242  0.989 -0.150 -0.253 -0.293 -0.280 -0.280
 0.244  0.993 -0.145 -0.250 -0.291 -0.278 -0.278
 0.246  0.997 -0.139 -0.247 -0.288 -0.275 -0.275
 0.248  1.002 -0.135 -0.244 -0.286 -0.274 -0.274
 0.250  1.006 -0.130 -0.241 -0.284 -0.272 -0.272
 0.252  1.010 -0.124 -0.238 -0.281 -0.269 -0.269
 0.254  1.016 -0.120 -0.235 -0.279 -0.268 -0.268
 0.256  1.020 -0.114 -0.232 -0.277 -0.266 -0.266
 0.258  1.024 -0.109 -0.230 -0.275 -0.263 -0.263
 0.260  1.028 -0.105 -0.226 -0.272 -0.262 -0.262
 0.262  1.032 -0.099 -0.223 -0.270 -0.260 -0.260
 0.264  1.038 -0.095 -0.220 -0.268 -0.258 -0.258
 0.266  1.042 -0.091 -0.217 -0.265 -0.256 -0.256
 0.268  1.046 -0.085 -0.215 -0.264 -0.254 -0.254
 0.270  1.050 -0.081 -0.212 -0.261 -0.252 -0.252
 0.272  1.054 -0.077 -0.209 -0.259 -0.251 -0.251
 0.274  1.058 -0.072 -0.207 -0.257 -0.248 -0.248
 0.276  1.062 -0.067 -0.204 -0.255 -0.247 -0.247
 0.278  1.066 -0.063 -0.201 -0.253 -0.245 -0.245
 0.280  1.070 -0.059 -0.199 -0.250 -0.243 -0.243
 0.282  1.074 -0.055 -0.196 -0.249 -0.241 -0.241
 0.284  1.077 -0.051 -0.194 -0.246 -0.239 -0.239
 0.286  1.081 -0.047 -0.191 -0.244 -0.238 -0.238
 0.288  1.085 -0.042 -0.189 -0.242 -0.236 -0.236
 0.290  1.089 -0.038 -0.185 -0.240 -0.234 -0.234
 0.292  1.093 -0.034 -0.183 -0.238 -0.232 -0.232
 0.294  1.098 -0.030 -0.180 -0.236 -0.230 -0.230
 0.296  1.100 -0.026 -0.178 -0.234 -0.229 -0.229
 0.298  1.104 -0.022 -0.176 -0.232 -0.227 -0.227
 0.300  1.108 -0.017 -0.173 -0.230 -0.225 -0.225
 0.302  1.113 -0.013 -0.171 -0.228 -0.224 -0.224
 0.304  1.115 -0.011 -0.168 -0.226 -0.221 -0.221
 0.306  1.119 -0.006 -0.166 -0.224 -0.220 -0.220
 0.308  1.123 -0.002 -0.163 -0.222 -0.218 -0.218
 0.310  1.128  0.002 -0.161 -0.219 -0.216 -0.216
 0.312  1.130  0.006 -0.158 -0.218 -0.215 -0.215
 0.314  1.134  0.009 -0.156 -0.215 -0.213 -0.213
 0.316  1.138  0.013 -0.153 -0.214 -0.211 -0.211
 0.318  1.142  0.017 -0.151 -0.211 -0.209 -0.209
 0.320  1.145  0.021 -0.147 -0.209 -0.208 -0.208
 0.322  1.149  0.025 -0.145 -0.208 -0.206 -0.206
 0.324  1.153  0.030 -0.142 -0.205 -0.204 -0.204
 0.326  1.156  0.032 -0.140 -0.204 -0.203 -0.203
 0.328  1.160  0.037 -0.137 -0.201 -0.200 -0.200
 0.330  1.164  0.041 -0.135 -0.199 -0.199 -0.199
 0.332  1.168  0.045 -0.132 -0.197 -0.197 -0.197
 0.334  1.171  0.048 -0.129 -0.195 -0.196 -0.196
 0.336  1.175  0.052 -0.127 -0.193 -0.194 -0.194
 0.338  1.179  0.056 -0.124 -0.191 -0.192 -0.192
 0.340  1.182  0.060 -0.122 -0.188 -0.191 -0.191
 0.342  1.186  0.064 -0.119 -0.187 -0.188 -0.188
 0.344  1.189  0.067 -0.116 -0.184 -0.187 -0.187
 0.346  1.193  0.071 -0.114 -0.183 -0.185 -0.185
 0.348  1.197  0.075 -0.111 -0.180 -0.183 -0.183
 0.350  1.200  0.078 -0.109 -0.178 -0.182 -0.182
 0.352  1.204  0.082 -0.105 -0.176 -0.180 -0.180
 0.354  1.208  0.086 -0.102 -0.174 -0.178 -0.178
 0.356  1.211  0.091 -0.099 -0.172 -0.176 -0.176
 0.358  1.215  0.093 -0.097 -0.170 -0.175 -0.175
 0.360  1.217  0.098 -0.094 -0.168 -0.173 -0.173
 0.362  1.221  0.102 -0.091 -0.166 -0.171 -0.171
 0.364  1.226  0.104 -0.089 -0.163 -0.170 -0.170
 0.366  1.228  0.109 -0.086 -0.162 -0.168 -0.168
 0.368  1.232  0.113 -0.083 -0.159 -0.166 -0.166
 0.370  1.235  0.117 -0.081 -0.157 -0.165 -0.165
 0.372  1.239  0.120 -0.078 -0.155 -0.163 -0.163
 0.374  1.242  0.124 -0.075 -0.153 -0.161 -0.161
 0.376  1.246  0.128 -0.072 -0.152 -0.159 -0.159
 0.378  1.249  0.131 -0.070 -0.149 -0.157 -0.157
 0.380  1.253  0.135 -0.066 -0.147 -0.156 -0.156
 0.382  1.255  0.139 -0.063 -0.145 -0.154 -0.154
 0.384  1.260  0.143 -0.061 -0.143 -0.152 -0.152
 0.386  1.262  0.146 -0.058 -0.141 -0.150 -0.150
 0.388  1.266  0.150 -0.055 -0.139 -0.148 -0.148
 0.390  1.269  0.154 -0.053 -0.137 -0.147 -0.147
 0.392  1.273  0.158 -0.050 -0.135 -0.144 -0.144
 0.394  1.276  0.161 -0.047 -0.132 -0.143 -0.143
 0.396  1.280  0.165 -0.045 -0.131 -0.141 -0.141
 0.398  1.283  0.170 -0.042 -0.129 -0.139 -0.139
 0.400  1.287  0.172 -0.039 -0.127 -0.137 -0.137
 0.402  1.289  0.177 -0.037 -0.125 -0.135 -0.135
 0.404  1.294  0.181 -0.034 -0.122 -0.133 -0.133
 0.406  1.296  0.185 -0.031 -0.121 -0.132 -0.132
 0.408  1.299  0.188 -0.029 -0.118 -0.129 -0.129
 0.410  1.303  0.192 -0.025 -0.117 -0.127 -0.127
 0.412  1.306  0.196 -0.023 -0.115 -0.126 -0.126
 0.414  1.309  0.200 -0.020 -0.112 -0.123 -0.123
 0.416  1.313  0.203 -0.017 -0.111 -0.122 -0.122
 0.418  1.315  0.207 -0.015 -0.108 -0.120 -0.120
 0.420  1.319  0.211 -0.012 -0.106 -0.117 -0.117
 0.422  1.322  0.215 -0.010 -0.105 -0.116 -0.116
 0.424  1.325  0.219 -0.007 -0.102 -0.114 -0.114
 0.426  1.329  0.222 -0.004 -0.101 -0.111 -0.111
 0.428  1.332  0.226 -0.002 -0.099 -0.110 -0.110
 0.430  1.334  0.231  0.001 -0.096 -0.108 -0.108
 0.432  1.337  0.235  0.003 -0.095 -0.105 -0.105
 0.434  1.341  0.237  0.006 -0.092 -0.104 -0.104
 0.436  1.344  0.242  0.009 -0.091 -0.102 -0.102
 0.438  1.347  0.246  0.011 -0.089 -0.099 -0.099
 0.440  1.349  0.250  0.015 -0.086 -0.098 -0.098
 0.442  1.353  0.253  0.017 -0.085 -0.096 -0.096
 0.444  1.356  0.257  0.020 -0.083 -0.093 -0.093
 0.446  1.359  0.260  0.022 -0.081 -0.092 -0.092
 0.448  1.362  0.264  0.024 -0.079 -0.090 -0.090
 0.450  1.364  0.267  0.027 -0.077 -0.088 -0.088
 0.452  1.367  0.271  0.029 -0.076 -0.086 -0.086
 0.454  1.370  0.273  0.031 -0.073 -0.084 -0.084
 0.456  1.373  0.276  0.034 -0.071 -0.082 -0.082
 0.458  1.375  0.280  0.036 -0.070 -0.081 -0.081
 0.460  1.378  0.283  0.038 -0.067 -0.078 -0.078
 0.462  1.381  0.286  0.040 -0.065 -0.077 -0.077
 0.464  1.383  0.289  0.043 -0.064 -0.075 -0.075
 0.466  1.386  0.292  0.045 -0.062 -0.073 -0.073
 0.468  1.389  0.294  0.047 -0.060 -0.072 -0.072
 0.470  1.392  0.297  0.049 -0.058 -0.070 -0.070
 0.472  1.394  0.300  0.051 -0.056 -0.068 -0.068
 0.474  1.397  0.303  0.054 -0.055 -0.066 -0.066
 0.476  1.400  0.305  0.056 -0.053 -0.065 -0.065
 0.478  1.401  0.308  0.058 -0.051 -0.063 -0.063
 0.480  1.404  0.310  0.060 -0.049 -0.061 -0.061
 0.482  1.407  0.312  0.062 -0.047 -0.060 -0.060
 0.484  1.409  0.315  0.063 -0.045 -0.058 -0.058
 0.486  1.411  0.316  0.065 -0.044 -0.057 -0.057
 0.488  1.413  0.319  0.067 -0.042 -0.055 -0.055
 0.490  1.416  0.321  0.069 -0.040 -0.054 -0.054
 0.492  1.417  0.323  0.071 -0.039 -0.052 -0.052
 0.494  1.420  0.325  0.072 -0.037 -0.051 -0.051
 0.496  1.423  0.326  0.074 -0.035 -0.049 -0.049
 0.498  1.424  0.329  0.076 -0.033 -0.048 -0.048
 0.500  1.427  0.330  0.077 -0.031 -0.046 -0.046
 0.502  1.428  0.332  0.079 -0.030 -0.045 -0.045
 0.504  1.431  0.333  0.080 -0.028 -0.043 -0.043
 0.506  1.432  0.334  0.082 -0.026 -0.042 -0.042
 0.508  1.435  0.336  0.083 -0.024 -0.040 -0.040
 0.510  1.437  0.337  0.085 -0.023 -0.039 -0.039
 0.512  1.439  0.339  0.086 -0.021 -0.038 -0.038
 0.514  1.441  0.340  0.087 -0.019 -0.036 -0.036
 0.516  1.442  0.341  0.089 -0.018 -0.035 -0.035
 0.518  1.443  0.343  0.090 -0.017 -0.033 -0.033
 0.520  1.446  0.344  0.091 -0.015 -0.033 -0.033
 0.522  1.447  0.346  0.092 -0.014 -0.031 -0.031
 0.524  1.449  0.347  0.095 -0.012 -0.030 -0.030
 0.526  1.450  0.348  0.096 -0.011 -0.029 -0.029
 0.528  1.451  0.350  0.097 -0.009 -0.027 -0.027
 0.530  1.453  0.350  0.098 -0.009 -0.027 -0.027
 0.532  1.454  0.351  0.099 -0.007 -0.025 -0.025
 0.534  1.456  0.352  0.100 -0.006 -0.024 -0.024
 0.536  1.457  0.354  0.101 -0.004 -0.023 -0.023
 0.538  1.458  0.354  0.102 -0.004 -0.021 -0.021
 0.540  1.460  0.355  0.103 -0.002 -0.021 -0.021
 0.542  1.461  0.357  0.104 -0.001 -0.019 -0.019
 0.544  1.462  0.357  0.105 -0.000 -0.018 -0.018
 0.546  1.464  0.358  0.105  0.001 -0.018 -0.018
 0.548  1.465  0.358  0.106  0.002 -0.016 -0.016
 0.550  1.465  0.359  0.107  0.003 -0.015 -0.015
 0.552  1.466  0.359  0.107  0.004 -0.014 -0.014
 0.554  1.468  0.361  0.108  0.005 -0.013 -0.013
 0.556  1.468  0.361  0.109  0.006 -0.012 -0.012
 0.558  1.469  0.362  0.109  0.006 -0.012 -0.012
 0.560  1.469  0.362  0.110  0.007 -0.010 -0.010
 0.562  1.471  0.362  0.110  0.008 -0.009 -0.009
 0.564  1.471  0.364  0.111  0.009 -0.009 -0.009
 0.566  1.472  0.364  0.111  0.010 -0.008 -0.008
 0.568  1.472  0.364  0.112  0.011 -0.007 -0.007
 0.570  1.473  0.365  0.112  0.011 -0.006 -0.006
 0.572  1.473  0.365  0.112  0.011 -0.005 -0.005
 0.574  1.473  0.365  0.113  0.012 -0.004 -0.004
 0.576  1.475  0.365  0.113  0.013 -0.004 -0.004
 0.578  1.475  0.365  0.113  0.013 -0.003 -0.003
 0.580  1.475  0.366  0.113  0.014 -0.002 -0.002
 0.582  1.475  0.366  0.113  0.014 -0.001 -0.001
 0.584  1.476  0.366  0.114  0.015 -0.001 -0.001
 0.586  1.476  0.366  0.114  0.016  0.000  0.000
 0.588  1.476  0.366  0.114  0.016  0.001  0.001
 0.590  1.476  0.366  0.114  0.017  0.002  0.002
 0.592  1.476  0.366  0.114  0.017  0.002  0.002
 0.594  1.477  0.366  0.114  0.017  0.003  0.003
 0.596  1.477  0.366  0.115  0.017  0.003  0.003
 0.598  1.477  0.366  0.115  0.018  0.004  0.004
 0.600  1.477  0.366  0.115  0.018  0.005  0.005
 0.602  1.477  0.366  0.115  0.019  0.005  0.005
 0.604  1.477  0.366  0.115  0.019  0.006  0.006
 0.606  1.477  0.366  0.116  0.020  0.007  0.007
 0.608  1.477  0.366  0.116  0.020  0.007  0.007
 0.610  1.477  0.366  0.116  0.021  0.008  0.008
 0.612  1.477  0.366  0.116  0.021  0.008  0.008
 0.614  1.477  0.366  0.117  0.022  0.009  0.009
 0.616  1.477  0.366  0.117  0.022  0.009  0.009
 0.618  1.477  0.366  0.117  0.022  0.010  0.010
 0.620  1.477  0.366  0.117  0.022  0.011  0.011
 0.622  1.477  0.366  0.118  0.022  0.011  0.011
 0.624  1.477  0.366  0.118  0.023  0.011  0.011
 0.626  1.476  0.366  0.118  0.023  0.012  0.012
 0.628  1.476  0.366  0.119  0.024  0.012  0.012
 0.630  1.476  0.366  0.119  0.024  0.013  0.013
 0.632  1.476  0.366  0.119  0.024  0.014  0.014
 0.634  1.476  0.365  0.120  0.025  0.014  0.014
 0.636  1.475  0.365  0.120  0.025  0.014  0.014
 0.638  1.475  0.365  0.120  0.026  0.014  0.014
 0.640  1.475  0.365  0.121  0.026  0.015  0.015
 0.642  1.475  0.365  0.121  0.026  0.015  0.015
 0.644  1.473  0.365  0.121  0.027  0.016  0.016
 0.646  1.473  0.364  0.122  0.027  0.016  0.016
 0.648  1.473  0.364  0.122  0.027  0.017  0.017
 0.650  1.472  0.364  0.122  0.027  0.017  0.017
 0.652  1.472  0.364  0.123  0.027  0.017  0.017
 0.654  1.472  0.362  0.123  0.027  0.017  0.017
 0.656  1.472  0.362  0.123  0.027  0.017  0.017
 0.658  1.471  0.362  0.124  0.028  0.018  0.018
 0.660  1.471  0.362  0.124  0.028  0.018  0.018
 0.662  1.471  0.361  0.124  0.028  0.019  0.019
 0.664  1.469  0.361  0.125  0.029  0.019  0.019
 0.666  1.469  0.361  0.125  0.029  0.020  0.020
 0.668  1.469  0.359  0.125  0.029  0.020  0.020
 0.670  1.468  0.359  0.126  0.029  0.020  0.020
 0.672  1.468  0.359  0.126  0.030  0.020  0.020
 0.674  1.468  0.358  0.126  0.030  0.020  0.020
 0.676  1.466  0.358  0.126  0.030  0.021  0.021
 0.678  1.466  0.358  0.126  0.030  0.021  0.021
 0.680  1.466  0.357  0.126  0.030  0.022  0.022
 0.682  1.466  0.357  0.126  0.031  0.022  0.022
 0.684  1.465  0.355  0.127  0.031  0.023  0.023
 0.686  1.465  0.355  0.127  0.031  0.023  0.023
 0.688  1.465  0.355  0.127  0.031  0.023  0.023
 0.690  1.464  0.354  0.127  0.031  0.023  0.023
 0.692  1.464  0.354  0.127  0.032  0.023  0.023
 0.694  1.464  0.352  0.127  0.032  0.024  0.024
 0.696  1.462  0.352  0.127  0.032  0.024  0.024
 0.698  1.462  0.351  0.127  0.032  0.025  0.025
 0.700  1.462  0.351  0.127  0.032  0.025  0.025
 0.702  1.461  0.350  0.127  0.032  0.025  0.025
 0.704  1.461  0.350  0.127  0.032  0.026  0.026
 0.706  1.461  0.348  0.127  0.032  0.026  0.026
 0.708  1.461  0.348  0.126  0.032  0.026  0.026
 0.710  1.460  0.347  0.126  0.032  0.026  0.026
 0.712  1.460  0.347  0.126  0.032  0.027  0.027
 0.714  1.460  0.346  0.126  0.032  0.027  0.027
 0.716  1.458  0.346  0.126  0.032  0.027  0.027
 0.718  1.458  0.344  0.125  0.032  0.028  0.028
 0.720  1.458  0.343  0.125  0.033  0.028  0.028
 0.722  1.458  0.343  0.125  0.033  0.029  0.029
 0.724  1.457  0.341  0.125  0.033  0.029  0.029
 0.726  1.457  0.341  0.124  0.033  0.029  0.029
 0.728  1.457  0.340  0.124  0.034  0.030  0.030
 0.730  1.457  0.340  0.124  0.034  0.030  0.030
 0.732  1.456  0.340  0.124  0.034  0.031  0.031
 0.734  1.456  0.340  0.125  0.035  0.032  0.032
 0.736  1.456  0.339  0.125  0.036  0.032  0.032
 0.738  1.456  0.339  0.125  0.036  0.033  0.033
 0.740  1.454  0.339  0.126  0.037  0.034  0.034
 0.742  1.454  0.339  0.127  0.037  0.035  0.035
 0.744  1.454  0.339  0.127  0.038  0.036  0.036
 0.746  1.454  0.339  0.128  0.039  0.037  0.037
 0.748  1.454  0.339  0.129  0.040  0.038  0.038
 0.750  1.454  0.340  0.130  0.041  0.039  0.039
 0.752  1.453  0.340  0.131  0.042  0.040  0.040
 0.754  1.453  0.340  0.133  0.042  0.041  0.041
 0.756  1.453  0.340  0.135  0.043  0.042  0.042
 0.758  1.453  0.341  0.136  0.045  0.044  0.044
 0.760  1.453  0.341  0.138  0.046  0.044  0.044
 0.762  1.453  0.343  0.140  0.047  0.046  0.046
 0.764  1.453  0.343  0.142  0.048  0.047  0.047
 0.766  1.453  0.344  0.143  0.050  0.049  0.049
 0.768  1.453  0.346  0.145  0.051  0.050  0.050
 0.770  1.453  0.346  0.148  0.052  0.052  0.052
 0.772  1.453  0.347  0.150  0.054  0.053  0.053
 0.774  1.453  0.348  0.152  0.056  0.055  0.055
 0.776  1.451  0.350  0.155  0.057  0.056  0.056
 0.778  1.451  0.351  0.158  0.059  0.059  0.059
 0.780  1.451  0.352  0.160  0.061  0.060  0.060
 0.782  1.451  0.354  0.163  0.063  0.062  0.062
 0.784  1.451  0.355  0.166  0.065  0.064  0.064
 0.786  1.451  0.358  0.169  0.067  0.066  0.066
 0.788  1.451  0.359  0.172  0.068  0.068  0.068
 0.790  1.453  0.361  0.177  0.071  0.070  0.070
 0.792  1.453  0.362  0.180  0.073  0.071  0.071
 0.794  1.454  0.365  0.183  0.075  0.074  0.074
 0.796  1.454  0.366  0.186  0.077  0.076  0.076
 0.798  1.456  0.368  0.189  0.079  0.077  0.077
 0.800  1.457  0.370  0.193  0.081  0.080  0.080
 0.802  1.458  0.372  0.196  0.083  0.082  0.082
 0.804  1.460  0.373  0.199  0.086  0.084  0.084
 0.806  1.461  0.376  0.202  0.088  0.086  0.086
 0.808  1.464  0.377  0.205  0.091  0.088  0.088
