# IsPeriodic    : True
# Period        : 0.586535 days
# Normalization : <g_mag>=0
# 
# Phase u_mag  g_mag  r_mag  i_mag  z_mag  y_mag
 0.000  0.810 -0.449 -0.470 -0.480 -0.484 -0.484
 0.002  0.810 -0.449 -0.470 -0.480 -0.484 -0.484
 0.004  0.811 -0.448 -0.469 -0.480 -0.484 -0.484
 0.006  0.811 -0.447 -0.469 -0.480 -0.483 -0.483
 0.008  0.812 -0.446 -0.469 -0.479 -0.483 -0.483
 0.010  0.813 -0.444 -0.468 -0.479 -0.482 -0.482
 0.012  0.814 -0.443 -0.468 -0.478 -0.481 -0.481
 0.014  0.816 -0.441 -0.467 -0.477 -0.480 -0.480
 0.016  0.817 -0.438 -0.466 -0.477 -0.480 -0.480
 0.018  0.819 -0.435 -0.465 -0.475 -0.479 -0.479
 0.020  0.821 -0.433 -0.465 -0.475 -0.477 -0.477
 0.022  0.823 -0.430 -0.464 -0.474 -0.476 -0.476
 0.024  0.825 -0.427 -0.463 -0.473 -0.475 -0.475
 0.026  0.827 -0.425 -0.461 -0.472 -0.474 -0.474
 0.028  0.829 -0.422 -0.461 -0.471 -0.473 -0.473
 0.030  0.831 -0.419 -0.460 -0.470 -0.472 -0.472
 0.032  0.834 -0.417 -0.458 -0.468 -0.471 -0.471
 0.034  0.836 -0.414 -0.457 -0.467 -0.470 -0.470
 0.036  0.838 -0.411 -0.456 -0.466 -0.469 -0.469
 0.038  0.840 -0.409 -0.454 -0.465 -0.468 -0.468
 0.040  0.843 -0.406 -0.453 -0.464 -0.467 -0.467
 0.042  0.845 -0.403 -0.452 -0.462 -0.467 -0.467
 0.044  0.848 -0.401 -0.450 -0.461 -0.466 -0.466
 0.046  0.850 -0.398 -0.449 -0.460 -0.465 -0.465
 0.048  0.853 -0.394 -0.447 -0.459 -0.464 -0.464
 0.050  0.855 -0.391 -0.445 -0.457 -0.463 -0.463
 0.052  0.857 -0.388 -0.444 -0.456 -0.462 -0.462
 0.054  0.860 -0.385 -0.442 -0.455 -0.461 -0.461
 0.056  0.863 -0.381 -0.440 -0.453 -0.460 -0.460
 0.058  0.866 -0.378 -0.438 -0.452 -0.460 -0.460
 0.060  0.868 -0.375 -0.436 -0.451 -0.459 -0.459
 0.062  0.871 -0.371 -0.434 -0.449 -0.458 -0.458
 0.064  0.874 -0.367 -0.431 -0.448 -0.457 -0.457
 0.066  0.877 -0.364 -0.429 -0.447 -0.456 -0.456
 0.068  0.880 -0.361 -0.427 -0.445 -0.455 -0.455
 0.070  0.883 -0.357 -0.425 -0.443 -0.454 -0.454
 0.072  0.886 -0.353 -0.422 -0.442 -0.453 -0.453
 0.074  0.889 -0.350 -0.420 -0.441 -0.453 -0.453
 0.076  0.893 -0.345 -0.417 -0.439 -0.452 -0.452
 0.078  0.896 -0.341 -0.415 -0.438 -0.451 -0.451
 0.080  0.899 -0.338 -0.412 -0.436 -0.450 -0.450
 0.082  0.903 -0.334 -0.410 -0.434 -0.450 -0.450
 0.084  0.906 -0.330 -0.407 -0.433 -0.449 -0.449
 0.086  0.909 -0.327 -0.405 -0.431 -0.448 -0.448
 0.088  0.913 -0.323 -0.402 -0.430 -0.447 -0.447
 0.090  0.916 -0.319 -0.400 -0.428 -0.446 -0.446
 0.092  0.919 -0.316 -0.398 -0.426 -0.445 -0.445
 0.094  0.923 -0.311 -0.396 -0.424 -0.445 -0.445
 0.096  0.926 -0.307 -0.393 -0.423 -0.444 -0.444
 0.098  0.929 -0.304 -0.392 -0.421 -0.443 -0.443
 0.100  0.932 -0.300 -0.389 -0.420 -0.442 -0.442
 0.102  0.936 -0.296 -0.387 -0.418 -0.441 -0.441
 0.104  0.939 -0.293 -0.385 -0.417 -0.440 -0.440
 0.106  0.943 -0.290 -0.384 -0.415 -0.439 -0.439
 0.108  0.946 -0.286 -0.382 -0.414 -0.438 -0.438
 0.110  0.949 -0.282 -0.380 -0.412 -0.437 -0.437
 0.112  0.952 -0.279 -0.378 -0.411 -0.436 -0.436
 0.114  0.955 -0.275 -0.376 -0.409 -0.435 -0.435
 0.116  0.958 -0.272 -0.375 -0.408 -0.434 -0.434
 0.118  0.961 -0.268 -0.373 -0.407 -0.432 -0.432
 0.120  0.964 -0.265 -0.371 -0.406 -0.431 -0.431
 0.122  0.967 -0.262 -0.369 -0.404 -0.430 -0.430
 0.124  0.969 -0.258 -0.368 -0.403 -0.429 -0.429
 0.126  0.972 -0.255 -0.367 -0.402 -0.428 -0.428
 0.128  0.975 -0.251 -0.365 -0.400 -0.427 -0.427
 0.130  0.978 -0.248 -0.364 -0.399 -0.425 -0.425
 0.132  0.981 -0.245 -0.362 -0.398 -0.424 -0.424
 0.134  0.984 -0.242 -0.361 -0.397 -0.423 -0.423
 0.136  0.986 -0.238 -0.360 -0.396 -0.422 -0.422
 0.138  0.989 -0.235 -0.359 -0.394 -0.420 -0.420
 0.140  0.992 -0.232 -0.358 -0.393 -0.419 -0.419
 0.142  0.994 -0.228 -0.357 -0.392 -0.417 -0.417
 0.144  0.997 -0.225 -0.355 -0.391 -0.416 -0.416
 0.146  1.000 -0.222 -0.354 -0.390 -0.415 -0.415
 0.148  1.002 -0.219 -0.353 -0.389 -0.413 -0.413
 0.150  1.005 -0.216 -0.352 -0.388 -0.412 -0.412
 0.152  1.007 -0.213 -0.351 -0.387 -0.410 -0.410
 0.154  1.009 -0.210 -0.350 -0.386 -0.409 -0.409
 0.156  1.012 -0.207 -0.349 -0.385 -0.408 -0.408
 0.158  1.014 -0.204 -0.348 -0.384 -0.406 -0.406
 0.160  1.017 -0.201 -0.347 -0.383 -0.405 -0.405
 0.162  1.019 -0.197 -0.346 -0.383 -0.403 -0.403
 0.164  1.022 -0.194 -0.345 -0.381 -0.402 -0.402
 0.166  1.024 -0.191 -0.344 -0.381 -0.400 -0.400
 0.168  1.026 -0.188 -0.342 -0.380 -0.399 -0.399
 0.170  1.029 -0.185 -0.342 -0.379 -0.397 -0.397
 0.172  1.031 -0.183 -0.340 -0.378 -0.396 -0.396
 0.174  1.034 -0.180 -0.339 -0.377 -0.395 -0.395
 0.176  1.036 -0.177 -0.338 -0.376 -0.394 -0.394
 0.178  1.038 -0.174 -0.336 -0.375 -0.392 -0.392
 0.180  1.041 -0.171 -0.335 -0.374 -0.391 -0.391
 0.182  1.044 -0.168 -0.333 -0.373 -0.390 -0.390
 0.184  1.046 -0.166 -0.332 -0.372 -0.389 -0.389
 0.186  1.049 -0.163 -0.331 -0.371 -0.388 -0.388
 0.188  1.051 -0.160 -0.329 -0.370 -0.387 -0.387
 0.190  1.054 -0.157 -0.328 -0.369 -0.385 -0.385
 0.192  1.057 -0.154 -0.326 -0.368 -0.384 -0.384
 0.194  1.059 -0.151 -0.325 -0.367 -0.383 -0.383
 0.196  1.061 -0.148 -0.323 -0.366 -0.382 -0.382
 0.198  1.065 -0.146 -0.322 -0.365 -0.381 -0.381
 0.200  1.067 -0.143 -0.320 -0.364 -0.380 -0.380
 0.202  1.070 -0.140 -0.318 -0.363 -0.379 -0.379
 0.204  1.072 -0.137 -0.316 -0.362 -0.378 -0.378
 0.206  1.075 -0.134 -0.315 -0.360 -0.377 -0.377
 0.208  1.078 -0.132 -0.313 -0.359 -0.376 -0.376
 0.210  1.080 -0.129 -0.311 -0.358 -0.375 -0.375
 0.212  1.083 -0.126 -0.309 -0.357 -0.374 -0.374
 0.214  1.086 -0.123 -0.308 -0.356 -0.374 -0.374
 0.216  1.089 -0.120 -0.306 -0.355 -0.373 -0.373
 0.218  1.092 -0.118 -0.304 -0.353 -0.372 -0.372
 0.220  1.094 -0.115 -0.302 -0.352 -0.371 -0.371
 0.222  1.097 -0.112 -0.300 -0.351 -0.371 -0.371
 0.224  1.100 -0.110 -0.298 -0.350 -0.370 -0.370
 0.226  1.103 -0.107 -0.296 -0.349 -0.369 -0.369
 0.228  1.106 -0.105 -0.295 -0.347 -0.368 -0.368
 0.230  1.109 -0.102 -0.293 -0.346 -0.368 -0.368
 0.232  1.112 -0.099 -0.291 -0.345 -0.367 -0.367
 0.234  1.114 -0.097 -0.289 -0.344 -0.366 -0.366
 0.236  1.117 -0.094 -0.287 -0.343 -0.365 -0.365
 0.238  1.120 -0.092 -0.285 -0.341 -0.365 -0.365
 0.240  1.123 -0.089 -0.284 -0.340 -0.364 -0.364
 0.242  1.126 -0.086 -0.282 -0.339 -0.363 -0.363
 0.244  1.128 -0.084 -0.281 -0.338 -0.362 -0.362
 0.246  1.131 -0.081 -0.279 -0.336 -0.361 -0.361
 0.248  1.134 -0.079 -0.277 -0.335 -0.361 -0.361
 0.250  1.137 -0.077 -0.275 -0.334 -0.360 -0.360
 0.252  1.139 -0.074 -0.274 -0.333 -0.359 -0.359
 0.254  1.141 -0.072 -0.272 -0.332 -0.358 -0.358
 0.256  1.144 -0.069 -0.271 -0.330 -0.357 -0.357
 0.258  1.146 -0.066 -0.269 -0.329 -0.356 -0.356
 0.260  1.149 -0.064 -0.267 -0.328 -0.355 -0.355
 0.262  1.151 -0.062 -0.266 -0.327 -0.354 -0.354
 0.264  1.154 -0.059 -0.265 -0.326 -0.353 -0.353
 0.266  1.156 -0.057 -0.263 -0.324 -0.353 -0.353
 0.268  1.158 -0.055 -0.261 -0.323 -0.352 -0.352
 0.270  1.161 -0.052 -0.260 -0.322 -0.351 -0.351
 0.272  1.163 -0.050 -0.258 -0.321 -0.350 -0.350
 0.274  1.166 -0.047 -0.257 -0.320 -0.349 -0.349
 0.276  1.168 -0.045 -0.256 -0.319 -0.348 -0.348
 0.278  1.170 -0.043 -0.254 -0.318 -0.347 -0.347
 0.280  1.172 -0.041 -0.253 -0.317 -0.346 -0.346
 0.282  1.175 -0.038 -0.252 -0.316 -0.344 -0.344
 0.284  1.177 -0.036 -0.250 -0.315 -0.343 -0.343
 0.286  1.179 -0.034 -0.249 -0.313 -0.342 -0.342
 0.288  1.181 -0.032 -0.248 -0.312 -0.341 -0.341
 0.290  1.183 -0.030 -0.247 -0.311 -0.340 -0.340
 0.292  1.185 -0.027 -0.245 -0.310 -0.339 -0.339
 0.294  1.187 -0.025 -0.244 -0.309 -0.338 -0.338
 0.296  1.189 -0.023 -0.243 -0.308 -0.336 -0.336
 0.298  1.191 -0.021 -0.241 -0.307 -0.335 -0.335
 0.300  1.193 -0.018 -0.240 -0.306 -0.334 -0.334
 0.302  1.195 -0.016 -0.239 -0.305 -0.333 -0.333
 0.304  1.197 -0.014 -0.238 -0.304 -0.332 -0.332
 0.306  1.198 -0.012 -0.236 -0.303 -0.331 -0.331
 0.308  1.200 -0.010 -0.235 -0.302 -0.330 -0.330
 0.310  1.202 -0.007 -0.234 -0.301 -0.329 -0.329
 0.312  1.204 -0.005 -0.232 -0.300 -0.327 -0.327
 0.314  1.206 -0.003 -0.231 -0.299 -0.326 -0.326
 0.316  1.208 -0.001 -0.230 -0.298 -0.325 -0.325
 0.318  1.210  0.001 -0.228 -0.297 -0.324 -0.324
 0.320  1.212  0.003 -0.227 -0.296 -0.323 -0.323
 0.322  1.214  0.005 -0.225 -0.295 -0.322 -0.322
 0.324  1.215  0.007 -0.224 -0.294 -0.321 -0.321
 0.326  1.217  0.010 -0.223 -0.292 -0.320 -0.320
 0.328  1.219  0.012 -0.221 -0.292 -0.319 -0.319
 0.330  1.221  0.013 -0.220 -0.291 -0.318 -0.318
 0.332  1.223  0.016 -0.218 -0.290 -0.317 -0.317
 0.334  1.225  0.018 -0.217 -0.289 -0.316 -0.316
 0.336  1.227  0.020 -0.215 -0.287 -0.315 -0.315
 0.338  1.229  0.022 -0.214 -0.287 -0.314 -0.314
 0.340  1.230  0.024 -0.213 -0.285 -0.313 -0.313
 0.342  1.232  0.026 -0.211 -0.284 -0.312 -0.312
 0.344  1.234  0.028 -0.210 -0.283 -0.311 -0.311
 0.346  1.237  0.030 -0.208 -0.282 -0.311 -0.311
 0.348  1.238  0.032 -0.206 -0.281 -0.310 -0.310
 0.350  1.240  0.034 -0.205 -0.280 -0.309 -0.309
 0.352  1.242  0.036 -0.204 -0.279 -0.308 -0.308
 0.354  1.244  0.038 -0.202 -0.278 -0.307 -0.307
 0.356  1.246  0.040 -0.200 -0.277 -0.306 -0.306
 0.358  1.247  0.041 -0.199 -0.276 -0.305 -0.305
 0.360  1.249  0.044 -0.197 -0.275 -0.305 -0.305
 0.362  1.251  0.046 -0.196 -0.274 -0.304 -0.304
 0.364  1.253  0.047 -0.194 -0.272 -0.303 -0.303
 0.366  1.255  0.050 -0.192 -0.272 -0.302 -0.302
 0.368  1.257  0.051 -0.191 -0.270 -0.301 -0.301
 0.370  1.259  0.053 -0.189 -0.269 -0.301 -0.301
 0.372  1.261  0.056 -0.188 -0.268 -0.300 -0.300
 0.374  1.263  0.057 -0.186 -0.267 -0.299 -0.299
 0.376  1.264  0.059 -0.185 -0.266 -0.299 -0.299
 0.378  1.266  0.061 -0.183 -0.265 -0.298 -0.298
 0.380  1.268  0.063 -0.182 -0.264 -0.297 -0.297
 0.382  1.270  0.064 -0.180 -0.263 -0.296 -0.296
 0.384  1.272  0.067 -0.179 -0.262 -0.296 -0.296
 0.386  1.274  0.068 -0.177 -0.260 -0.295 -0.295
 0.388  1.276  0.070 -0.176 -0.260 -0.294 -0.294
 0.390  1.278  0.072 -0.174 -0.258 -0.293 -0.293
 0.392  1.280  0.073 -0.173 -0.257 -0.292 -0.292
 0.394  1.281  0.075 -0.172 -0.256 -0.292 -0.292
 0.396  1.283  0.077 -0.170 -0.255 -0.291 -0.291
 0.398  1.284  0.078 -0.169 -0.254 -0.290 -0.290
 0.400  1.286  0.081 -0.167 -0.253 -0.289 -0.289
 0.402  1.288  0.082 -0.166 -0.252 -0.288 -0.288
 0.404  1.290  0.084 -0.164 -0.251 -0.287 -0.287
 0.406  1.292  0.085 -0.163 -0.250 -0.286 -0.286
 0.408  1.293  0.087 -0.162 -0.249 -0.285 -0.285
 0.410  1.295  0.089 -0.161 -0.248 -0.284 -0.284
 0.412  1.296  0.090 -0.159 -0.247 -0.283 -0.283
 0.414  1.298  0.092 -0.158 -0.246 -0.282 -0.282
 0.416  1.300  0.093 -0.156 -0.245 -0.282 -0.282
 0.418  1.302  0.095 -0.155 -0.243 -0.281 -0.281
 0.420  1.303  0.097 -0.154 -0.243 -0.280 -0.280
 0.422  1.305  0.098 -0.153 -0.241 -0.279 -0.279
 0.424  1.307  0.100 -0.151 -0.241 -0.278 -0.278
 0.426  1.309  0.101 -0.150 -0.240 -0.277 -0.277
 0.428  1.310  0.103 -0.149 -0.238 -0.276 -0.276
 0.430  1.312  0.104 -0.148 -0.238 -0.275 -0.275
 0.432  1.313  0.106 -0.146 -0.236 -0.274 -0.274
 0.434  1.315  0.107 -0.146 -0.236 -0.273 -0.273
 0.436  1.316  0.109 -0.144 -0.234 -0.272 -0.272
 0.438  1.318  0.110 -0.143 -0.233 -0.271 -0.271
 0.440  1.319  0.112 -0.142 -0.232 -0.270 -0.270
 0.442  1.321  0.113 -0.141 -0.231 -0.268 -0.268
 0.444  1.323  0.115 -0.139 -0.230 -0.267 -0.267
 0.446  1.324  0.116 -0.138 -0.229 -0.266 -0.266
 0.448  1.326  0.118 -0.138 -0.228 -0.265 -0.265
 0.450  1.327  0.119 -0.136 -0.227 -0.264 -0.264
 0.452  1.329  0.121 -0.135 -0.226 -0.263 -0.263
 0.454  1.330  0.121 -0.134 -0.225 -0.262 -0.262
 0.456  1.331  0.123 -0.133 -0.224 -0.261 -0.261
 0.458  1.333  0.124 -0.132 -0.223 -0.261 -0.261
 0.460  1.334  0.126 -0.131 -0.223 -0.260 -0.260
 0.462  1.335  0.127 -0.130 -0.221 -0.259 -0.259
 0.464  1.336  0.128 -0.129 -0.221 -0.258 -0.258
 0.466  1.338  0.129 -0.129 -0.220 -0.257 -0.257
 0.468  1.339  0.131 -0.128 -0.219 -0.256 -0.256
 0.470  1.340  0.132 -0.127 -0.218 -0.255 -0.255
 0.472  1.341  0.133 -0.126 -0.217 -0.254 -0.254
 0.474  1.342  0.135 -0.125 -0.216 -0.253 -0.253
 0.476  1.344  0.135 -0.124 -0.215 -0.253 -0.253
 0.478  1.345  0.137 -0.123 -0.214 -0.252 -0.252
 0.480  1.346  0.138 -0.122 -0.213 -0.251 -0.251
 0.482  1.347  0.139 -0.121 -0.213 -0.250 -0.250
 0.484  1.348  0.141 -0.121 -0.212 -0.249 -0.249
 0.486  1.349  0.141 -0.120 -0.211 -0.248 -0.248
 0.488  1.350  0.143 -0.119 -0.210 -0.248 -0.248
 0.490  1.351  0.144 -0.119 -0.209 -0.247 -0.247
 0.492  1.352  0.145 -0.118 -0.209 -0.246 -0.246
 0.494  1.352  0.146 -0.117 -0.208 -0.245 -0.245
 0.496  1.353  0.147 -0.116 -0.207 -0.245 -0.245
 0.498  1.354  0.148 -0.116 -0.206 -0.244 -0.244
 0.500  1.355  0.149 -0.115 -0.206 -0.243 -0.243
 0.502  1.356  0.150 -0.114 -0.205 -0.243 -0.243
 0.504  1.356  0.151 -0.114 -0.204 -0.242 -0.242
 0.506  1.357  0.152 -0.113 -0.203 -0.242 -0.242
 0.508  1.358  0.153 -0.112 -0.202 -0.241 -0.241
 0.510  1.358  0.154 -0.112 -0.202 -0.240 -0.240
 0.512  1.359  0.155 -0.112 -0.201 -0.240 -0.240
 0.514  1.359  0.156 -0.111 -0.200 -0.239 -0.239
 0.516  1.360  0.157 -0.110 -0.200 -0.239 -0.239
 0.518  1.361  0.158 -0.110 -0.199 -0.238 -0.238
 0.520  1.361  0.158 -0.109 -0.198 -0.237 -0.237
 0.522  1.362  0.159 -0.109 -0.198 -0.237 -0.237
 0.524  1.362  0.161 -0.108 -0.197 -0.236 -0.236
 0.526  1.363  0.161 -0.107 -0.196 -0.236 -0.236
 0.528  1.363  0.162 -0.107 -0.196 -0.235 -0.235
 0.530  1.364  0.163 -0.106 -0.195 -0.235 -0.235
 0.532  1.364  0.163 -0.106 -0.194 -0.234 -0.234
 0.534  1.365  0.164 -0.105 -0.194 -0.234 -0.234
 0.536  1.366  0.165 -0.105 -0.193 -0.233 -0.233
 0.538  1.366  0.166 -0.104 -0.192 -0.233 -0.233
 0.540  1.367  0.166 -0.103 -0.192 -0.232 -0.232
 0.542  1.367  0.166 -0.103 -0.191 -0.231 -0.231
 0.544  1.367  0.167 -0.103 -0.190 -0.231 -0.231
 0.546  1.368  0.168 -0.102 -0.190 -0.230 -0.230
 0.548  1.369  0.169 -0.102 -0.190 -0.230 -0.230
 0.550  1.369  0.169 -0.101 -0.189 -0.229 -0.229
 0.552  1.369  0.169 -0.101 -0.189 -0.229 -0.229
 0.554  1.370  0.170 -0.100 -0.188 -0.228 -0.228
 0.556  1.370  0.171 -0.100 -0.187 -0.227 -0.227
 0.558  1.371  0.172 -0.099 -0.187 -0.227 -0.227
 0.560  1.371  0.172 -0.099 -0.186 -0.226 -0.226
 0.562  1.372  0.172 -0.098 -0.186 -0.226 -0.226
 0.564  1.372  0.172 -0.098 -0.185 -0.226 -0.226
 0.566  1.373  0.173 -0.097 -0.185 -0.225 -0.225
 0.568  1.373  0.174 -0.097 -0.184 -0.225 -0.225
 0.570  1.373  0.174 -0.096 -0.184 -0.224 -0.224
 0.572  1.374  0.175 -0.096 -0.183 -0.224 -0.224
 0.574  1.375  0.175 -0.095 -0.183 -0.223 -0.223
 0.576  1.375  0.175 -0.095 -0.183 -0.223 -0.223
 0.578  1.375  0.175 -0.095 -0.182 -0.222 -0.222
 0.580  1.376  0.175 -0.094 -0.181 -0.222 -0.222
 0.582  1.376  0.176 -0.094 -0.181 -0.221 -0.221
 0.584  1.376  0.176 -0.093 -0.181 -0.221 -0.221
 0.586  1.377  0.176 -0.093 -0.180 -0.220 -0.220
 0.588  1.377  0.177 -0.092 -0.180 -0.220 -0.220
 0.590  1.378  0.177 -0.092 -0.179 -0.219 -0.219
 0.592  1.378  0.177 -0.091 -0.179 -0.219 -0.219
 0.594  1.378  0.178 -0.090 -0.179 -0.219 -0.219
 0.596  1.379  0.178 -0.090 -0.178 -0.218 -0.218
 0.598  1.379  0.178 -0.089 -0.178 -0.218 -0.218
 0.600  1.379  0.178 -0.089 -0.177 -0.217 -0.217
 0.602  1.380  0.178 -0.088 -0.177 -0.217 -0.217
 0.604  1.380  0.178 -0.088 -0.177 -0.216 -0.216
 0.606  1.381  0.179 -0.087 -0.176 -0.216 -0.216
 0.608  1.381  0.179 -0.087 -0.176 -0.215 -0.215
 0.610  1.381  0.179 -0.086 -0.175 -0.215 -0.215
 0.612  1.381  0.180 -0.086 -0.175 -0.214 -0.214
 0.614  1.382  0.180 -0.085 -0.175 -0.214 -0.214
 0.616  1.382  0.180 -0.085 -0.174 -0.213 -0.213
 0.618  1.382  0.180 -0.084 -0.174 -0.213 -0.213
 0.620  1.382  0.180 -0.083 -0.174 -0.212 -0.212
 0.622  1.382  0.180 -0.083 -0.174 -0.212 -0.212
 0.624  1.383  0.181 -0.082 -0.173 -0.211 -0.211
 0.626  1.383  0.181 -0.082 -0.173 -0.211 -0.211
 0.628  1.383  0.181 -0.081 -0.172 -0.210 -0.210
 0.630  1.384  0.181 -0.080 -0.172 -0.210 -0.210
 0.632  1.384  0.182 -0.080 -0.172 -0.209 -0.209
 0.634  1.384  0.182 -0.079 -0.171 -0.209 -0.209
 0.636  1.384  0.182 -0.078 -0.171 -0.208 -0.208
 0.638  1.384  0.182 -0.078 -0.170 -0.208 -0.208
 0.640  1.384  0.183 -0.078 -0.170 -0.207 -0.207
 0.642  1.384  0.183 -0.077 -0.170 -0.207 -0.207
 0.644  1.384  0.183 -0.076 -0.169 -0.206 -0.206
 0.646  1.385  0.183 -0.076 -0.169 -0.206 -0.206
 0.648  1.385  0.183 -0.075 -0.169 -0.205 -0.205
 0.650  1.385  0.183 -0.074 -0.168 -0.205 -0.205
 0.652  1.385  0.183 -0.073 -0.168 -0.204 -0.204
 0.654  1.385  0.183 -0.073 -0.168 -0.204 -0.204
 0.656  1.385  0.184 -0.072 -0.167 -0.203 -0.203
 0.658  1.385  0.184 -0.071 -0.167 -0.203 -0.203
 0.660  1.385  0.184 -0.070 -0.167 -0.202 -0.202
 0.662  1.385  0.184 -0.069 -0.166 -0.202 -0.202
 0.664  1.385  0.184 -0.068 -0.166 -0.201 -0.201
 0.666  1.385  0.185 -0.067 -0.166 -0.201 -0.201
 0.668  1.385  0.185 -0.066 -0.165 -0.200 -0.200
 0.670  1.385  0.185 -0.065 -0.164 -0.200 -0.200
 0.672  1.385  0.185 -0.064 -0.164 -0.199 -0.199
 0.674  1.386  0.185 -0.063 -0.163 -0.199 -0.199
 0.676  1.386  0.186 -0.062 -0.162 -0.198 -0.198
 0.678  1.387  0.186 -0.061 -0.161 -0.198 -0.198
 0.680  1.387  0.186 -0.059 -0.160 -0.197 -0.197
 0.682  1.387  0.186 -0.058 -0.159 -0.197 -0.197
 0.684  1.387  0.186 -0.057 -0.158 -0.196 -0.196
 0.686  1.388  0.186 -0.055 -0.157 -0.196 -0.196
 0.688  1.388  0.186 -0.054 -0.156 -0.195 -0.195
 0.690  1.389  0.186 -0.052 -0.155 -0.194 -0.194
 0.692  1.389  0.186 -0.051 -0.154 -0.194 -0.194
 0.694  1.389  0.186 -0.049 -0.152 -0.193 -0.193
 0.696  1.390  0.186 -0.048 -0.151 -0.192 -0.192
 0.698  1.390  0.186 -0.046 -0.149 -0.192 -0.192
 0.700  1.391  0.187 -0.044 -0.148 -0.191 -0.191
 0.702  1.391  0.187 -0.043 -0.147 -0.191 -0.191
 0.704  1.392  0.187 -0.041 -0.145 -0.190 -0.190
 0.706  1.392  0.187 -0.039 -0.143 -0.190 -0.190
 0.708  1.393  0.187 -0.037 -0.141 -0.189 -0.189
 0.710  1.393  0.187 -0.035 -0.140 -0.188 -0.188
 0.712  1.394  0.187 -0.034 -0.138 -0.188 -0.188
 0.714  1.395  0.187 -0.032 -0.136 -0.187 -0.187
 0.716  1.396  0.187 -0.029 -0.134 -0.187 -0.187
 0.718  1.396  0.187 -0.027 -0.131 -0.186 -0.186
 0.720  1.397  0.188 -0.026 -0.129 -0.185 -0.185
 0.722  1.398  0.188 -0.024 -0.127 -0.185 -0.185
 0.724  1.399  0.188 -0.021 -0.124 -0.184 -0.184
 0.726  1.399  0.188 -0.019 -0.123 -0.183 -0.183
 0.728  1.401  0.189 -0.018 -0.120 -0.183 -0.183
 0.730  1.401  0.189 -0.016 -0.118 -0.182 -0.182
 0.732  1.402  0.189 -0.014 -0.115 -0.182 -0.182
 0.734  1.403  0.190 -0.013 -0.113 -0.181 -0.181
 0.736  1.404  0.191 -0.011 -0.111 -0.180 -0.180
 0.738  1.404  0.192 -0.010 -0.108 -0.179 -0.179
 0.740  1.405  0.193 -0.008 -0.106 -0.179 -0.179
 0.742  1.406  0.194 -0.007 -0.104 -0.178 -0.178
 0.744  1.407  0.195 -0.006 -0.102 -0.177 -0.177
 0.746  1.407  0.197 -0.005 -0.100 -0.176 -0.176
 0.748  1.408  0.198 -0.003 -0.098 -0.176 -0.176
 0.750  1.409  0.200 -0.002 -0.096 -0.174 -0.174
 0.752  1.409  0.201 -0.002 -0.095 -0.174 -0.174
 0.754  1.410  0.203 -0.001 -0.093 -0.173 -0.173
 0.756  1.410  0.205 -0.001 -0.092 -0.172 -0.172
 0.758  1.411  0.207  0.000 -0.091 -0.171 -0.171
 0.760  1.412  0.209  0.001 -0.090 -0.170 -0.170
 0.762  1.412  0.211  0.001 -0.089 -0.169 -0.169
 0.764  1.412  0.214  0.002 -0.088 -0.168 -0.168
 0.766  1.413  0.216  0.002 -0.087 -0.167 -0.167
 0.768  1.413  0.218  0.002 -0.087 -0.166 -0.166
 0.770  1.413  0.221  0.003 -0.086 -0.165 -0.165
 0.772  1.414  0.224  0.003 -0.086 -0.164 -0.164
 0.774  1.414  0.227  0.003 -0.085 -0.163 -0.163
 0.776  1.414  0.231  0.003 -0.085 -0.162 -0.162
 0.778  1.415  0.234  0.003 -0.085 -0.161 -0.161
 0.780  1.415  0.237  0.002 -0.085 -0.160 -0.160
 0.782  1.415  0.240  0.002 -0.085 -0.159 -0.159
 0.784  1.415  0.244  0.002 -0.085 -0.158 -0.158
 0.786  1.415  0.248  0.001 -0.085 -0.156 -0.156
 0.788  1.415  0.251  0.001 -0.086 -0.155 -0.155
 0.790  1.415  0.255 -0.000 -0.086 -0.154 -0.154
 0.792  1.416  0.259 -0.001 -0.087 -0.153 -0.153
 0.794  1.416  0.263 -0.001 -0.087 -0.152 -0.152
 0.796  1.416  0.266 -0.003 -0.088 -0.150 -0.150
 0.798  1.416  0.269 -0.004 -0.089 -0.149 -0.149
 0.800  1.416  0.273 -0.006 -0.090 -0.148 -0.148
 0.802  1.415  0.276 -0.007 -0.091 -0.147 -0.147
 0.804  1.415  0.279 -0.009 -0.093 -0.146 -0.146
 0.806  1.415  0.281 -0.011 -0.094 -0.146 -0.146
 0.808  1.413  0.283 -0.013 -0.096 -0.145 -0.145
