# IsPeriodic    : True
# Period        : 0.758405 days
# Normalization : <g_mag>=0
# 
# Phase u_mag  g_mag  r_mag  i_mag  z_mag  y_mag
 0.000  0.711 -0.444 -0.519 -0.516 -0.514 -0.514
 0.002  0.711 -0.444 -0.519 -0.516 -0.514 -0.514
 0.004  0.712 -0.444 -0.518 -0.516 -0.514 -0.514
 0.006  0.712 -0.443 -0.518 -0.516 -0.513 -0.513
 0.008  0.713 -0.443 -0.517 -0.516 -0.513 -0.513
 0.010  0.715 -0.442 -0.517 -0.516 -0.512 -0.512
 0.012  0.716 -0.442 -0.516 -0.515 -0.511 -0.511
 0.014  0.717 -0.440 -0.516 -0.515 -0.511 -0.511
 0.016  0.719 -0.439 -0.515 -0.515 -0.510 -0.510
 0.018  0.721 -0.439 -0.514 -0.514 -0.509 -0.509
 0.020  0.724 -0.437 -0.513 -0.513 -0.508 -0.508
 0.022  0.726 -0.436 -0.512 -0.513 -0.507 -0.507
 0.024  0.728 -0.434 -0.511 -0.513 -0.505 -0.505
 0.026  0.730 -0.432 -0.509 -0.512 -0.504 -0.504
 0.028  0.733 -0.431 -0.508 -0.511 -0.503 -0.503
 0.030  0.735 -0.429 -0.507 -0.510 -0.502 -0.502
 0.032  0.738 -0.426 -0.505 -0.509 -0.501 -0.501
 0.034  0.740 -0.425 -0.504 -0.509 -0.499 -0.499
 0.036  0.743 -0.423 -0.503 -0.508 -0.498 -0.498
 0.038  0.746 -0.420 -0.501 -0.507 -0.497 -0.497
 0.040  0.748 -0.417 -0.499 -0.505 -0.495 -0.495
 0.042  0.751 -0.415 -0.498 -0.505 -0.494 -0.494
 0.044  0.754 -0.412 -0.496 -0.503 -0.493 -0.493
 0.046  0.757 -0.409 -0.494 -0.502 -0.492 -0.492
 0.048  0.760 -0.406 -0.492 -0.501 -0.490 -0.490
 0.050  0.762 -0.403 -0.490 -0.499 -0.489 -0.489
 0.052  0.765 -0.400 -0.488 -0.498 -0.488 -0.488
 0.054  0.769 -0.396 -0.486 -0.497 -0.487 -0.487
 0.056  0.771 -0.393 -0.484 -0.495 -0.486 -0.486
 0.058  0.775 -0.390 -0.482 -0.493 -0.484 -0.484
 0.060  0.778 -0.386 -0.479 -0.492 -0.483 -0.483
 0.062  0.781 -0.381 -0.477 -0.490 -0.482 -0.482
 0.064  0.784 -0.378 -0.474 -0.489 -0.481 -0.481
 0.066  0.788 -0.374 -0.472 -0.487 -0.480 -0.480
 0.068  0.791 -0.369 -0.469 -0.485 -0.479 -0.479
 0.070  0.795 -0.365 -0.466 -0.483 -0.478 -0.478
 0.072  0.798 -0.361 -0.464 -0.481 -0.477 -0.477
 0.074  0.802 -0.356 -0.461 -0.479 -0.475 -0.475
 0.076  0.806 -0.352 -0.457 -0.477 -0.474 -0.474
 0.078  0.809 -0.347 -0.455 -0.475 -0.473 -0.473
 0.080  0.813 -0.343 -0.452 -0.473 -0.472 -0.472
 0.082  0.817 -0.338 -0.449 -0.472 -0.471 -0.471
 0.084  0.820 -0.335 -0.446 -0.470 -0.470 -0.470
 0.086  0.825 -0.330 -0.443 -0.468 -0.469 -0.469
 0.088  0.828 -0.326 -0.440 -0.466 -0.468 -0.468
 0.090  0.832 -0.322 -0.438 -0.465 -0.467 -0.467
 0.092  0.836 -0.318 -0.435 -0.463 -0.465 -0.465
 0.094  0.840 -0.314 -0.433 -0.461 -0.465 -0.465
 0.096  0.843 -0.310 -0.430 -0.460 -0.463 -0.463
 0.098  0.847 -0.306 -0.428 -0.458 -0.462 -0.462
 0.100  0.851 -0.302 -0.425 -0.457 -0.461 -0.461
 0.102  0.855 -0.298 -0.423 -0.455 -0.460 -0.460
 0.104  0.858 -0.295 -0.421 -0.453 -0.459 -0.459
 0.106  0.863 -0.292 -0.418 -0.452 -0.458 -0.458
 0.108  0.866 -0.288 -0.416 -0.451 -0.457 -0.457
 0.110  0.870 -0.284 -0.414 -0.449 -0.456 -0.456
 0.112  0.873 -0.280 -0.412 -0.448 -0.455 -0.455
 0.114  0.876 -0.277 -0.410 -0.446 -0.454 -0.454
 0.116  0.880 -0.274 -0.408 -0.445 -0.453 -0.453
 0.118  0.883 -0.271 -0.406 -0.444 -0.452 -0.452
 0.120  0.887 -0.267 -0.404 -0.443 -0.451 -0.451
 0.122  0.890 -0.264 -0.402 -0.441 -0.450 -0.450
 0.124  0.893 -0.261 -0.400 -0.440 -0.449 -0.449
 0.126  0.897 -0.258 -0.399 -0.439 -0.448 -0.448
 0.128  0.900 -0.255 -0.397 -0.438 -0.447 -0.447
 0.130  0.903 -0.252 -0.395 -0.437 -0.446 -0.446
 0.132  0.906 -0.249 -0.394 -0.436 -0.445 -0.445
 0.134  0.910 -0.246 -0.393 -0.435 -0.444 -0.444
 0.136  0.912 -0.243 -0.391 -0.434 -0.443 -0.443
 0.138  0.916 -0.240 -0.389 -0.433 -0.442 -0.442
 0.140  0.919 -0.237 -0.388 -0.432 -0.441 -0.441
 0.142  0.921 -0.234 -0.387 -0.431 -0.440 -0.440
 0.144  0.925 -0.232 -0.385 -0.430 -0.440 -0.440
 0.146  0.928 -0.229 -0.384 -0.429 -0.438 -0.438
 0.148  0.930 -0.226 -0.383 -0.429 -0.438 -0.438
 0.150  0.933 -0.224 -0.382 -0.428 -0.437 -0.437
 0.152  0.936 -0.221 -0.380 -0.427 -0.435 -0.435
 0.154  0.939 -0.218 -0.379 -0.426 -0.435 -0.435
 0.156  0.942 -0.216 -0.378 -0.425 -0.434 -0.434
 0.158  0.944 -0.213 -0.377 -0.424 -0.433 -0.433
 0.160  0.947 -0.210 -0.376 -0.423 -0.432 -0.432
 0.162  0.950 -0.207 -0.375 -0.422 -0.431 -0.431
 0.164  0.953 -0.204 -0.373 -0.421 -0.430 -0.430
 0.166  0.955 -0.201 -0.372 -0.421 -0.429 -0.429
 0.168  0.958 -0.198 -0.370 -0.420 -0.428 -0.428
 0.170  0.961 -0.195 -0.369 -0.419 -0.427 -0.427
 0.172  0.964 -0.192 -0.368 -0.418 -0.427 -0.427
 0.174  0.966 -0.189 -0.367 -0.417 -0.426 -0.426
 0.176  0.969 -0.186 -0.365 -0.416 -0.425 -0.425
 0.178  0.972 -0.183 -0.363 -0.415 -0.424 -0.424
 0.180  0.975 -0.180 -0.362 -0.413 -0.423 -0.423
 0.182  0.978 -0.177 -0.360 -0.413 -0.422 -0.422
 0.184  0.981 -0.174 -0.358 -0.412 -0.421 -0.421
 0.186  0.984 -0.171 -0.357 -0.410 -0.421 -0.421
 0.188  0.987 -0.168 -0.355 -0.409 -0.419 -0.419
 0.190  0.989 -0.164 -0.353 -0.408 -0.419 -0.419
 0.192  0.993 -0.161 -0.351 -0.407 -0.418 -0.418
 0.194  0.996 -0.158 -0.350 -0.406 -0.417 -0.417
 0.196  0.998 -0.155 -0.348 -0.405 -0.416 -0.416
 0.198  1.002 -0.152 -0.346 -0.404 -0.415 -0.415
 0.200  1.005 -0.149 -0.344 -0.403 -0.414 -0.414
 0.202  1.008 -0.146 -0.342 -0.401 -0.413 -0.413
 0.204  1.011 -0.142 -0.340 -0.400 -0.412 -0.412
 0.206  1.014 -0.139 -0.339 -0.399 -0.412 -0.412
 0.208  1.017 -0.135 -0.336 -0.398 -0.411 -0.411
 0.210  1.020 -0.132 -0.334 -0.397 -0.410 -0.410
 0.212  1.023 -0.128 -0.332 -0.396 -0.409 -0.409
 0.214  1.027 -0.125 -0.330 -0.394 -0.408 -0.408
 0.216  1.029 -0.122 -0.328 -0.393 -0.407 -0.407
 0.218  1.033 -0.119 -0.325 -0.392 -0.406 -0.406
 0.220  1.036 -0.115 -0.323 -0.391 -0.406 -0.406
 0.222  1.039 -0.112 -0.321 -0.389 -0.405 -0.405
 0.224  1.043 -0.109 -0.319 -0.388 -0.404 -0.404
 0.226  1.045 -0.105 -0.317 -0.387 -0.403 -0.403
 0.228  1.049 -0.102 -0.315 -0.386 -0.402 -0.402
 0.230  1.052 -0.099 -0.313 -0.385 -0.401 -0.401
 0.232  1.056 -0.096 -0.310 -0.383 -0.400 -0.400
 0.234  1.058 -0.092 -0.308 -0.382 -0.400 -0.400
 0.236  1.062 -0.089 -0.306 -0.381 -0.399 -0.399
 0.238  1.065 -0.086 -0.304 -0.380 -0.398 -0.398
 0.240  1.068 -0.083 -0.302 -0.378 -0.397 -0.397
 0.242  1.072 -0.080 -0.300 -0.377 -0.396 -0.396
 0.244  1.074 -0.078 -0.298 -0.376 -0.395 -0.395
 0.246  1.078 -0.075 -0.296 -0.375 -0.394 -0.394
 0.248  1.081 -0.072 -0.294 -0.373 -0.393 -0.393
 0.250  1.084 -0.069 -0.292 -0.373 -0.393 -0.393
 0.252  1.087 -0.066 -0.290 -0.371 -0.391 -0.391
 0.254  1.090 -0.064 -0.288 -0.370 -0.391 -0.391
 0.256  1.092 -0.061 -0.287 -0.369 -0.390 -0.390
 0.258  1.095 -0.058 -0.285 -0.368 -0.389 -0.389
 0.260  1.098 -0.055 -0.283 -0.366 -0.388 -0.388
 0.262  1.101 -0.052 -0.281 -0.365 -0.387 -0.387
 0.264  1.103 -0.050 -0.280 -0.364 -0.386 -0.386
 0.266  1.106 -0.048 -0.277 -0.363 -0.385 -0.385
 0.268  1.109 -0.045 -0.276 -0.361 -0.384 -0.384
 0.270  1.112 -0.042 -0.274 -0.360 -0.383 -0.383
 0.272  1.115 -0.040 -0.272 -0.359 -0.382 -0.382
 0.274  1.117 -0.038 -0.271 -0.358 -0.381 -0.381
 0.276  1.120 -0.035 -0.269 -0.357 -0.380 -0.380
 0.278  1.122 -0.033 -0.268 -0.356 -0.379 -0.379
 0.280  1.125 -0.030 -0.266 -0.354 -0.378 -0.378
 0.282  1.128 -0.028 -0.265 -0.353 -0.377 -0.377
 0.284  1.130 -0.026 -0.263 -0.352 -0.375 -0.375
 0.286  1.133 -0.024 -0.261 -0.351 -0.374 -0.374
 0.288  1.135 -0.021 -0.260 -0.349 -0.373 -0.373
 0.290  1.137 -0.019 -0.259 -0.349 -0.372 -0.372
 0.292  1.139 -0.017 -0.257 -0.347 -0.371 -0.371
 0.294  1.142 -0.015 -0.255 -0.346 -0.370 -0.370
 0.296  1.144 -0.012 -0.254 -0.345 -0.368 -0.368
 0.298  1.146 -0.010 -0.253 -0.343 -0.367 -0.367
 0.300  1.148 -0.008 -0.251 -0.342 -0.366 -0.366
 0.302  1.151 -0.006 -0.250 -0.341 -0.365 -0.365
 0.304  1.153 -0.003 -0.248 -0.340 -0.364 -0.364
 0.306  1.155 -0.001 -0.247 -0.338 -0.363 -0.363
 0.308  1.157  0.001 -0.246 -0.337 -0.362 -0.362
 0.310  1.159  0.003 -0.244 -0.336 -0.360 -0.360
 0.312  1.162  0.006 -0.242 -0.334 -0.359 -0.359
 0.314  1.164  0.008 -0.241 -0.333 -0.358 -0.358
 0.316  1.166  0.010 -0.239 -0.332 -0.357 -0.357
 0.318  1.168  0.013 -0.237 -0.330 -0.356 -0.356
 0.320  1.170  0.015 -0.236 -0.329 -0.354 -0.354
 0.322  1.172  0.018 -0.234 -0.328 -0.353 -0.353
 0.324  1.174  0.020 -0.232 -0.326 -0.352 -0.352
 0.326  1.176  0.022 -0.231 -0.325 -0.351 -0.351
 0.328  1.178  0.025 -0.229 -0.324 -0.349 -0.349
 0.330  1.181  0.027 -0.227 -0.322 -0.349 -0.349
 0.332  1.183  0.029 -0.226 -0.321 -0.347 -0.347
 0.334  1.185  0.032 -0.224 -0.319 -0.346 -0.346
 0.336  1.187  0.034 -0.222 -0.318 -0.345 -0.345
 0.338  1.189  0.037 -0.221 -0.317 -0.344 -0.344
 0.340  1.191  0.039 -0.219 -0.315 -0.343 -0.343
 0.342  1.193  0.042 -0.217 -0.313 -0.342 -0.342
 0.344  1.195  0.044 -0.216 -0.312 -0.341 -0.341
 0.346  1.198  0.046 -0.214 -0.311 -0.340 -0.340
 0.348  1.200  0.049 -0.212 -0.309 -0.339 -0.339
 0.350  1.202  0.052 -0.210 -0.308 -0.338 -0.338
 0.352  1.204  0.054 -0.209 -0.306 -0.337 -0.337
 0.354  1.207  0.057 -0.207 -0.305 -0.336 -0.336
 0.356  1.209  0.059 -0.205 -0.303 -0.335 -0.335
 0.358  1.211  0.061 -0.203 -0.301 -0.334 -0.334
 0.360  1.213  0.064 -0.201 -0.300 -0.332 -0.332
 0.362  1.215  0.067 -0.199 -0.298 -0.332 -0.332
 0.364  1.218  0.069 -0.198 -0.297 -0.330 -0.330
 0.366  1.220  0.072 -0.195 -0.295 -0.330 -0.330
 0.368  1.222  0.074 -0.194 -0.294 -0.329 -0.329
 0.370  1.224  0.077 -0.192 -0.293 -0.328 -0.328
 0.372  1.226  0.079 -0.190 -0.291 -0.327 -0.327
 0.374  1.228  0.081 -0.188 -0.289 -0.326 -0.326
 0.376  1.230  0.083 -0.187 -0.288 -0.325 -0.325
 0.378  1.232  0.086 -0.185 -0.287 -0.324 -0.324
 0.380  1.234  0.088 -0.183 -0.285 -0.323 -0.323
 0.382  1.236  0.090 -0.181 -0.284 -0.322 -0.322
 0.384  1.239  0.092 -0.179 -0.282 -0.321 -0.321
 0.386  1.241  0.095 -0.178 -0.281 -0.320 -0.320
 0.388  1.243  0.097 -0.176 -0.280 -0.320 -0.320
 0.390  1.245  0.099 -0.174 -0.278 -0.318 -0.318
 0.392  1.247  0.101 -0.173 -0.277 -0.318 -0.318
 0.394  1.249  0.103 -0.171 -0.276 -0.316 -0.316
 0.396  1.251  0.105 -0.170 -0.274 -0.316 -0.316
 0.398  1.253  0.107 -0.168 -0.273 -0.314 -0.314
 0.400  1.255  0.109 -0.166 -0.272 -0.313 -0.313
 0.402  1.257  0.111 -0.165 -0.271 -0.312 -0.312
 0.404  1.259  0.113 -0.163 -0.269 -0.311 -0.311
 0.406  1.261  0.115 -0.161 -0.268 -0.310 -0.310
 0.408  1.263  0.117 -0.160 -0.267 -0.309 -0.309
 0.410  1.265  0.119 -0.159 -0.266 -0.308 -0.308
 0.412  1.267  0.120 -0.157 -0.265 -0.307 -0.307
 0.414  1.269  0.122 -0.155 -0.263 -0.306 -0.306
 0.416  1.271  0.124 -0.154 -0.262 -0.305 -0.305
 0.418  1.273  0.126 -0.152 -0.261 -0.304 -0.304
 0.420  1.274  0.128 -0.151 -0.260 -0.303 -0.303
 0.422  1.276  0.129 -0.149 -0.259 -0.301 -0.301
 0.424  1.279  0.131 -0.148 -0.257 -0.300 -0.300
 0.426  1.281  0.133 -0.146 -0.257 -0.299 -0.299
 0.428  1.282  0.134 -0.145 -0.255 -0.298 -0.298
 0.430  1.284  0.136 -0.144 -0.254 -0.297 -0.297
 0.432  1.286  0.137 -0.142 -0.253 -0.296 -0.296
 0.434  1.288  0.139 -0.141 -0.252 -0.295 -0.295
 0.436  1.290  0.141 -0.139 -0.251 -0.293 -0.293
 0.438  1.291  0.142 -0.138 -0.250 -0.292 -0.292
 0.440  1.293  0.144 -0.136 -0.249 -0.290 -0.290
 0.442  1.295  0.145 -0.135 -0.248 -0.289 -0.289
 0.444  1.297  0.147 -0.134 -0.247 -0.288 -0.288
 0.446  1.299  0.148 -0.133 -0.246 -0.287 -0.287
 0.448  1.300  0.150 -0.132 -0.245 -0.286 -0.286
 0.450  1.301  0.151 -0.130 -0.244 -0.284 -0.284
 0.452  1.303  0.153 -0.129 -0.243 -0.283 -0.283
 0.454  1.305  0.154 -0.128 -0.242 -0.282 -0.282
 0.456  1.306  0.156 -0.127 -0.241 -0.280 -0.280
 0.458  1.308  0.157 -0.125 -0.240 -0.279 -0.279
 0.460  1.310  0.159 -0.124 -0.239 -0.278 -0.278
 0.462  1.311  0.160 -0.123 -0.238 -0.277 -0.277
 0.464  1.312  0.162 -0.122 -0.237 -0.276 -0.276
 0.466  1.314  0.163 -0.121 -0.236 -0.274 -0.274
 0.468  1.315  0.164 -0.120 -0.235 -0.273 -0.273
 0.470  1.317  0.165 -0.119 -0.234 -0.272 -0.272
 0.472  1.318  0.167 -0.118 -0.234 -0.271 -0.271
 0.474  1.319  0.168 -0.117 -0.233 -0.270 -0.270
 0.476  1.321  0.170 -0.116 -0.232 -0.269 -0.269
 0.478  1.322  0.171 -0.115 -0.231 -0.268 -0.268
 0.480  1.324  0.172 -0.114 -0.230 -0.267 -0.267
 0.482  1.324  0.174 -0.113 -0.229 -0.266 -0.266
 0.484  1.326  0.175 -0.112 -0.228 -0.265 -0.265
 0.486  1.327  0.176 -0.111 -0.227 -0.264 -0.264
 0.488  1.328  0.177 -0.110 -0.226 -0.263 -0.263
 0.490  1.329  0.179 -0.110 -0.226 -0.262 -0.262
 0.492  1.330  0.180 -0.108 -0.225 -0.261 -0.261
 0.494  1.330  0.181 -0.108 -0.224 -0.260 -0.260
 0.496  1.332  0.182 -0.107 -0.223 -0.259 -0.259
 0.498  1.333  0.183 -0.106 -0.222 -0.259 -0.259
 0.500  1.333  0.185 -0.106 -0.222 -0.258 -0.258
 0.502  1.335  0.186 -0.105 -0.221 -0.257 -0.257
 0.504  1.335  0.187 -0.104 -0.220 -0.256 -0.256
 0.506  1.336  0.188 -0.103 -0.219 -0.255 -0.255
 0.508  1.337  0.189 -0.102 -0.218 -0.255 -0.255
 0.510  1.337  0.190 -0.102 -0.218 -0.254 -0.254
 0.512  1.338  0.191 -0.101 -0.217 -0.253 -0.253
 0.514  1.339  0.192 -0.101 -0.216 -0.252 -0.252
 0.516  1.339  0.193 -0.100 -0.216 -0.252 -0.252
 0.518  1.340  0.194 -0.099 -0.215 -0.251 -0.251
 0.520  1.341  0.195 -0.099 -0.214 -0.250 -0.250
 0.522  1.342  0.195 -0.098 -0.214 -0.250 -0.250
 0.524  1.342  0.196 -0.097 -0.213 -0.250 -0.250
 0.526  1.343  0.197 -0.096 -0.212 -0.249 -0.249
 0.528  1.343  0.198 -0.096 -0.211 -0.248 -0.248
 0.530  1.344  0.198 -0.095 -0.210 -0.248 -0.248
 0.532  1.344  0.199 -0.095 -0.210 -0.247 -0.247
 0.534  1.345  0.200 -0.094 -0.209 -0.246 -0.246
 0.536  1.346  0.201 -0.094 -0.208 -0.246 -0.246
 0.538  1.346  0.201 -0.093 -0.207 -0.245 -0.245
 0.540  1.347  0.201 -0.092 -0.206 -0.245 -0.245
 0.542  1.347  0.202 -0.091 -0.206 -0.244 -0.244
 0.544  1.348  0.203 -0.091 -0.205 -0.244 -0.244
 0.546  1.348  0.203 -0.090 -0.204 -0.243 -0.243
 0.548  1.349  0.204 -0.090 -0.204 -0.242 -0.242
 0.550  1.350  0.204 -0.089 -0.203 -0.242 -0.242
 0.552  1.350  0.205 -0.089 -0.202 -0.241 -0.241
 0.554  1.350  0.205 -0.088 -0.202 -0.241 -0.241
 0.556  1.351  0.205 -0.087 -0.201 -0.240 -0.240
 0.558  1.352  0.205 -0.087 -0.200 -0.240 -0.240
 0.560  1.352  0.205 -0.086 -0.199 -0.239 -0.239
 0.562  1.353  0.205 -0.086 -0.199 -0.238 -0.238
 0.564  1.353  0.205 -0.085 -0.198 -0.238 -0.238
 0.566  1.354  0.205 -0.085 -0.197 -0.237 -0.237
 0.568  1.354  0.205 -0.084 -0.197 -0.236 -0.236
 0.570  1.355  0.206 -0.084 -0.196 -0.236 -0.236
 0.572  1.355  0.206 -0.083 -0.195 -0.235 -0.235
 0.574  1.356  0.206 -0.083 -0.194 -0.235 -0.235
 0.576  1.356  0.206 -0.082 -0.194 -0.234 -0.234
 0.578  1.357  0.206 -0.081 -0.193 -0.234 -0.234
 0.580  1.357  0.206 -0.081 -0.192 -0.233 -0.233
 0.582  1.357  0.206 -0.080 -0.191 -0.232 -0.232
 0.584  1.358  0.206 -0.080 -0.191 -0.231 -0.231
 0.586  1.359  0.206 -0.079 -0.190 -0.231 -0.231
 0.588  1.359  0.206 -0.079 -0.189 -0.230 -0.230
 0.590  1.359  0.206 -0.078 -0.188 -0.230 -0.230
 0.592  1.360  0.206 -0.078 -0.187 -0.229 -0.229
 0.594  1.360  0.206 -0.076 -0.187 -0.229 -0.229
 0.596  1.361  0.206 -0.076 -0.186 -0.228 -0.228
 0.598  1.362  0.207 -0.075 -0.185 -0.227 -0.227
 0.600  1.362  0.207 -0.075 -0.184 -0.227 -0.227
 0.602  1.362  0.207 -0.074 -0.183 -0.226 -0.226
 0.604  1.362  0.207 -0.074 -0.182 -0.225 -0.225
 0.606  1.363  0.208 -0.073 -0.182 -0.225 -0.225
 0.608  1.363  0.208 -0.073 -0.180 -0.224 -0.224
 0.610  1.364  0.208 -0.072 -0.179 -0.223 -0.223
 0.612  1.364  0.208 -0.071 -0.178 -0.223 -0.223
 0.614  1.364  0.208 -0.070 -0.178 -0.222 -0.222
 0.616  1.364  0.208 -0.070 -0.177 -0.221 -0.221
 0.618  1.365  0.208 -0.069 -0.175 -0.220 -0.220
 0.620  1.365  0.209 -0.068 -0.174 -0.220 -0.220
 0.622  1.365  0.209 -0.068 -0.174 -0.219 -0.219
 0.624  1.366  0.209 -0.067 -0.172 -0.218 -0.218
 0.626  1.366  0.210 -0.067 -0.171 -0.217 -0.217
 0.628  1.366  0.210 -0.065 -0.170 -0.217 -0.217
 0.630  1.366  0.210 -0.065 -0.169 -0.216 -0.216
 0.632  1.366  0.211 -0.064 -0.168 -0.215 -0.215
 0.634  1.366  0.211 -0.064 -0.167 -0.214 -0.214
 0.636  1.366  0.211 -0.063 -0.166 -0.213 -0.213
 0.638  1.367  0.211 -0.062 -0.165 -0.212 -0.212
 0.640  1.367  0.211 -0.062 -0.164 -0.211 -0.211
 0.642  1.367  0.212 -0.061 -0.162 -0.210 -0.210
 0.644  1.367  0.212 -0.060 -0.161 -0.210 -0.210
 0.646  1.368  0.213 -0.059 -0.160 -0.209 -0.209
 0.648  1.368  0.214 -0.058 -0.159 -0.208 -0.208
 0.650  1.368  0.214 -0.058 -0.158 -0.207 -0.207
 0.652  1.368  0.214 -0.057 -0.156 -0.206 -0.206
 0.654  1.368  0.215 -0.056 -0.155 -0.205 -0.205
 0.656  1.368  0.216 -0.055 -0.154 -0.204 -0.204
 0.658  1.368  0.216 -0.054 -0.153 -0.203 -0.203
 0.660  1.368  0.217 -0.053 -0.151 -0.202 -0.202
 0.662  1.368  0.217 -0.052 -0.150 -0.201 -0.201
 0.664  1.368  0.218 -0.051 -0.148 -0.200 -0.200
 0.666  1.368  0.220 -0.050 -0.147 -0.199 -0.199
 0.668  1.368  0.220 -0.048 -0.146 -0.198 -0.198
 0.670  1.368  0.221 -0.047 -0.144 -0.197 -0.197
 0.672  1.368  0.222 -0.046 -0.143 -0.196 -0.196
 0.674  1.369  0.223 -0.045 -0.142 -0.195 -0.195
 0.676  1.369  0.224 -0.043 -0.140 -0.194 -0.194
 0.678  1.370  0.225 -0.042 -0.138 -0.192 -0.192
 0.680  1.370  0.226 -0.040 -0.137 -0.191 -0.191
 0.682  1.371  0.227 -0.039 -0.135 -0.189 -0.189
 0.684  1.371  0.229 -0.037 -0.134 -0.188 -0.188
 0.686  1.371  0.229 -0.036 -0.132 -0.187 -0.187
 0.688  1.371  0.231 -0.034 -0.131 -0.185 -0.185
 0.690  1.372  0.232 -0.032 -0.129 -0.184 -0.184
 0.692  1.373  0.234 -0.030 -0.127 -0.183 -0.183
 0.694  1.373  0.235 -0.029 -0.126 -0.181 -0.181
 0.696  1.373  0.236 -0.027 -0.124 -0.179 -0.179
 0.698  1.374  0.238 -0.025 -0.122 -0.178 -0.178
 0.700  1.375  0.239 -0.023 -0.121 -0.176 -0.176
 0.702  1.375  0.241 -0.021 -0.119 -0.175 -0.175
 0.704  1.375  0.243 -0.019 -0.117 -0.173 -0.173
 0.706  1.376  0.244 -0.017 -0.115 -0.171 -0.171
 0.708  1.377  0.246 -0.015 -0.114 -0.169 -0.169
 0.710  1.377  0.247 -0.013 -0.112 -0.167 -0.167
 0.712  1.378  0.250 -0.010 -0.110 -0.166 -0.166
 0.714  1.380  0.251 -0.008 -0.109 -0.164 -0.164
 0.716  1.380  0.253 -0.005 -0.107 -0.162 -0.162
 0.718  1.381  0.255 -0.003 -0.105 -0.160 -0.160
 0.720  1.382  0.256 -0.001 -0.103 -0.158 -0.158
 0.722  1.383  0.258  0.001 -0.102 -0.156 -0.156
 0.724  1.384  0.260  0.004 -0.100 -0.153 -0.153
 0.726  1.384  0.262  0.006 -0.098 -0.151 -0.151
 0.728  1.386  0.263  0.008 -0.097 -0.149 -0.149
 0.730  1.386  0.265  0.010 -0.095 -0.147 -0.147
 0.732  1.387  0.267  0.012 -0.094 -0.145 -0.145
 0.734  1.389  0.269  0.014 -0.092 -0.142 -0.142
 0.736  1.389  0.271  0.016 -0.091 -0.140 -0.140
 0.738  1.390  0.272  0.018 -0.090 -0.138 -0.138
 0.740  1.391  0.274  0.019 -0.088 -0.136 -0.136
 0.742  1.392  0.275  0.020 -0.087 -0.134 -0.134
 0.744  1.393  0.278  0.022 -0.086 -0.132 -0.132
 0.746  1.393  0.279  0.023 -0.085 -0.130 -0.130
 0.748  1.394  0.281  0.025 -0.084 -0.128 -0.128
 0.750  1.395  0.282  0.026 -0.083 -0.126 -0.126
 0.752  1.395  0.284  0.026 -0.082 -0.124 -0.124
 0.754  1.396  0.285  0.028 -0.081 -0.122 -0.122
 0.756  1.397  0.287  0.028 -0.080 -0.121 -0.121
 0.758  1.398  0.288  0.029 -0.079 -0.120 -0.120
 0.760  1.398  0.289  0.030 -0.078 -0.118 -0.118
 0.762  1.399  0.290  0.030 -0.078 -0.117 -0.117
 0.764  1.399  0.292  0.031 -0.077 -0.116 -0.116
 0.766  1.400  0.293  0.031 -0.076 -0.115 -0.115
 0.768  1.400  0.295  0.031 -0.076 -0.114 -0.114
 0.770  1.400  0.296  0.032 -0.075 -0.113 -0.113
 0.772  1.401  0.298  0.032 -0.074 -0.113 -0.113
 0.774  1.401  0.299  0.032 -0.074 -0.112 -0.112
 0.776  1.401  0.301  0.032 -0.073 -0.112 -0.112
 0.778  1.402  0.302  0.032 -0.073 -0.111 -0.111
 0.780  1.402  0.304  0.031 -0.072 -0.111 -0.111
 0.782  1.402  0.305  0.031 -0.072 -0.110 -0.110
 0.784  1.402  0.307  0.031 -0.072 -0.110 -0.110
 0.786  1.402  0.308  0.030 -0.072 -0.110 -0.110
 0.788  1.402  0.308  0.030 -0.072 -0.110 -0.110
 0.790  1.402  0.309  0.029 -0.072 -0.110 -0.110
 0.792  1.403  0.309  0.028 -0.073 -0.110 -0.110
 0.794  1.403  0.309  0.027 -0.073 -0.110 -0.110
 0.796  1.403  0.308  0.025 -0.074 -0.110 -0.110
 0.798  1.403  0.308  0.024 -0.075 -0.111 -0.111
 0.800  1.403  0.306  0.022 -0.077 -0.112 -0.112
 0.802  1.402  0.305  0.020 -0.078 -0.112 -0.112
 0.804  1.402  0.303  0.018 -0.080 -0.113 -0.113
 0.806  1.402  0.301  0.015 -0.082 -0.114 -0.114
 0.808  1.400  0.298  0.013 -0.084 -0.114 -0.114
