# IsPeriodic    : True
# Period        : 0.793004 days
# Normalization : <g_mag>=0
# 
# Phase u_mag  g_mag  r_mag  i_mag  z_mag  y_mag
 0.000  0.774 -0.318 -0.429 -0.441 -0.450 -0.450
 0.002  0.774 -0.318 -0.429 -0.441 -0.450 -0.450
 0.004  0.774 -0.318 -0.428 -0.441 -0.450 -0.450
 0.006  0.774 -0.318 -0.428 -0.441 -0.450 -0.450
 0.008  0.775 -0.317 -0.428 -0.441 -0.449 -0.449
 0.010  0.775 -0.317 -0.427 -0.441 -0.449 -0.449
 0.012  0.776 -0.316 -0.427 -0.440 -0.449 -0.449
 0.014  0.777 -0.315 -0.427 -0.440 -0.449 -0.449
 0.016  0.778 -0.314 -0.426 -0.440 -0.448 -0.448
 0.018  0.779 -0.313 -0.425 -0.440 -0.448 -0.448
 0.020  0.781 -0.312 -0.425 -0.439 -0.447 -0.447
 0.022  0.781 -0.311 -0.424 -0.439 -0.447 -0.447
 0.024  0.783 -0.310 -0.423 -0.439 -0.446 -0.446
 0.026  0.785 -0.308 -0.422 -0.438 -0.446 -0.446
 0.028  0.786 -0.307 -0.421 -0.438 -0.445 -0.445
 0.030  0.787 -0.305 -0.420 -0.437 -0.445 -0.445
 0.032  0.789 -0.304 -0.419 -0.436 -0.445 -0.445
 0.034  0.791 -0.302 -0.418 -0.436 -0.444 -0.444
 0.036  0.793 -0.301 -0.417 -0.435 -0.443 -0.443
 0.038  0.795 -0.299 -0.416 -0.435 -0.443 -0.443
 0.040  0.797 -0.297 -0.415 -0.434 -0.442 -0.442
 0.042  0.799 -0.295 -0.414 -0.433 -0.442 -0.442
 0.044  0.801 -0.293 -0.413 -0.432 -0.441 -0.441
 0.046  0.804 -0.291 -0.411 -0.431 -0.440 -0.440
 0.048  0.806 -0.289 -0.410 -0.430 -0.440 -0.440
 0.050  0.808 -0.287 -0.408 -0.429 -0.439 -0.439
 0.052  0.811 -0.285 -0.407 -0.428 -0.438 -0.438
 0.054  0.814 -0.283 -0.406 -0.427 -0.437 -0.437
 0.056  0.816 -0.280 -0.404 -0.426 -0.437 -0.437
 0.058  0.819 -0.278 -0.402 -0.425 -0.436 -0.436
 0.060  0.822 -0.276 -0.400 -0.424 -0.435 -0.435
 0.062  0.825 -0.273 -0.399 -0.423 -0.434 -0.434
 0.064  0.828 -0.270 -0.397 -0.422 -0.433 -0.433
 0.066  0.831 -0.268 -0.395 -0.420 -0.432 -0.432
 0.068  0.835 -0.264 -0.393 -0.419 -0.431 -0.431
 0.070  0.838 -0.262 -0.392 -0.418 -0.430 -0.430
 0.072  0.841 -0.259 -0.390 -0.416 -0.429 -0.429
 0.074  0.845 -0.255 -0.388 -0.415 -0.428 -0.428
 0.076  0.848 -0.253 -0.385 -0.414 -0.428 -0.428
 0.078  0.852 -0.250 -0.383 -0.412 -0.426 -0.426
 0.080  0.855 -0.246 -0.381 -0.411 -0.426 -0.426
 0.082  0.859 -0.243 -0.379 -0.410 -0.425 -0.425
 0.084  0.862 -0.240 -0.377 -0.409 -0.424 -0.424
 0.086  0.865 -0.237 -0.375 -0.407 -0.423 -0.423
 0.088  0.869 -0.234 -0.373 -0.406 -0.422 -0.422
 0.090  0.872 -0.230 -0.371 -0.405 -0.421 -0.421
 0.092  0.875 -0.227 -0.370 -0.404 -0.420 -0.420
 0.094  0.878 -0.224 -0.368 -0.402 -0.419 -0.419
 0.096  0.881 -0.221 -0.366 -0.401 -0.418 -0.418
 0.098  0.884 -0.218 -0.364 -0.400 -0.417 -0.417
 0.100  0.887 -0.215 -0.362 -0.399 -0.416 -0.416
 0.102  0.890 -0.212 -0.361 -0.398 -0.416 -0.416
 0.104  0.892 -0.209 -0.359 -0.397 -0.415 -0.415
 0.106  0.895 -0.207 -0.358 -0.396 -0.414 -0.414
 0.108  0.898 -0.203 -0.356 -0.395 -0.413 -0.413
 0.110  0.901 -0.201 -0.354 -0.394 -0.412 -0.412
 0.112  0.904 -0.198 -0.353 -0.393 -0.411 -0.411
 0.114  0.906 -0.195 -0.351 -0.392 -0.411 -0.411
 0.116  0.909 -0.193 -0.350 -0.391 -0.410 -0.410
 0.118  0.911 -0.190 -0.349 -0.390 -0.409 -0.409
 0.120  0.914 -0.187 -0.347 -0.389 -0.408 -0.408
 0.122  0.916 -0.185 -0.346 -0.388 -0.408 -0.408
 0.124  0.918 -0.182 -0.345 -0.388 -0.407 -0.407
 0.126  0.921 -0.180 -0.344 -0.387 -0.406 -0.406
 0.128  0.923 -0.177 -0.342 -0.386 -0.405 -0.405
 0.130  0.925 -0.175 -0.341 -0.385 -0.405 -0.405
 0.132  0.927 -0.173 -0.340 -0.385 -0.404 -0.404
 0.134  0.929 -0.170 -0.339 -0.384 -0.403 -0.403
 0.136  0.931 -0.168 -0.338 -0.383 -0.402 -0.402
 0.138  0.933 -0.166 -0.337 -0.383 -0.402 -0.402
 0.140  0.935 -0.164 -0.336 -0.382 -0.401 -0.401
 0.142  0.937 -0.161 -0.335 -0.381 -0.400 -0.400
 0.144  0.939 -0.159 -0.334 -0.381 -0.400 -0.400
 0.146  0.941 -0.157 -0.333 -0.380 -0.399 -0.399
 0.148  0.943 -0.155 -0.333 -0.379 -0.398 -0.398
 0.150  0.945 -0.153 -0.332 -0.379 -0.398 -0.398
 0.152  0.946 -0.151 -0.331 -0.378 -0.397 -0.397
 0.154  0.948 -0.149 -0.330 -0.378 -0.396 -0.396
 0.156  0.950 -0.147 -0.329 -0.377 -0.396 -0.396
 0.158  0.952 -0.145 -0.328 -0.376 -0.395 -0.395
 0.160  0.954 -0.143 -0.328 -0.376 -0.394 -0.394
 0.162  0.955 -0.141 -0.327 -0.375 -0.394 -0.394
 0.164  0.957 -0.139 -0.326 -0.374 -0.393 -0.393
 0.166  0.959 -0.137 -0.325 -0.374 -0.392 -0.392
 0.168  0.961 -0.135 -0.324 -0.373 -0.392 -0.392
 0.170  0.962 -0.133 -0.323 -0.373 -0.391 -0.391
 0.172  0.964 -0.131 -0.322 -0.372 -0.390 -0.390
 0.174  0.966 -0.128 -0.321 -0.371 -0.390 -0.390
 0.176  0.968 -0.126 -0.320 -0.370 -0.389 -0.389
 0.178  0.969 -0.124 -0.319 -0.370 -0.388 -0.388
 0.180  0.971 -0.122 -0.317 -0.369 -0.388 -0.388
 0.182  0.973 -0.120 -0.316 -0.368 -0.387 -0.387
 0.184  0.975 -0.118 -0.315 -0.368 -0.387 -0.387
 0.186  0.977 -0.116 -0.314 -0.367 -0.386 -0.386
 0.188  0.979 -0.114 -0.313 -0.366 -0.385 -0.385
 0.190  0.980 -0.111 -0.312 -0.365 -0.385 -0.385
 0.192  0.982 -0.109 -0.310 -0.364 -0.384 -0.384
 0.194  0.984 -0.107 -0.309 -0.363 -0.383 -0.383
 0.196  0.986 -0.105 -0.308 -0.363 -0.382 -0.382
 0.198  0.987 -0.102 -0.306 -0.362 -0.382 -0.382
 0.200  0.989 -0.100 -0.305 -0.361 -0.381 -0.381
 0.202  0.991 -0.098 -0.304 -0.360 -0.381 -0.381
 0.204  0.992 -0.096 -0.302 -0.359 -0.380 -0.380
 0.206  0.994 -0.093 -0.301 -0.359 -0.379 -0.379
 0.208  0.996 -0.091 -0.299 -0.358 -0.379 -0.379
 0.210  0.997 -0.089 -0.298 -0.357 -0.378 -0.378
 0.212  0.999 -0.087 -0.296 -0.356 -0.377 -0.377
 0.214  1.001 -0.084 -0.295 -0.355 -0.377 -0.377
 0.216  1.003 -0.082 -0.293 -0.354 -0.376 -0.376
 0.218  1.005 -0.079 -0.292 -0.354 -0.375 -0.375
 0.220  1.006 -0.077 -0.290 -0.353 -0.374 -0.374
 0.222  1.008 -0.074 -0.289 -0.352 -0.374 -0.374
 0.224  1.010 -0.072 -0.287 -0.351 -0.373 -0.373
 0.226  1.011 -0.070 -0.285 -0.350 -0.373 -0.373
 0.228  1.013 -0.067 -0.284 -0.349 -0.372 -0.372
 0.230  1.015 -0.065 -0.283 -0.348 -0.371 -0.371
 0.232  1.016 -0.063 -0.281 -0.347 -0.371 -0.371
 0.234  1.018 -0.061 -0.280 -0.347 -0.370 -0.370
 0.236  1.020 -0.058 -0.278 -0.346 -0.369 -0.369
 0.238  1.021 -0.056 -0.276 -0.345 -0.369 -0.369
 0.240  1.023 -0.054 -0.275 -0.344 -0.368 -0.368
 0.242  1.025 -0.051 -0.274 -0.343 -0.367 -0.367
 0.244  1.026 -0.049 -0.273 -0.342 -0.367 -0.367
 0.246  1.027 -0.047 -0.271 -0.342 -0.366 -0.366
 0.248  1.029 -0.045 -0.269 -0.341 -0.365 -0.365
 0.250  1.031 -0.043 -0.268 -0.340 -0.365 -0.365
 0.252  1.032 -0.041 -0.267 -0.339 -0.364 -0.364
 0.254  1.034 -0.039 -0.266 -0.338 -0.363 -0.363
 0.256  1.035 -0.037 -0.264 -0.337 -0.363 -0.363
 0.258  1.037 -0.035 -0.263 -0.337 -0.362 -0.362
 0.260  1.038 -0.033 -0.262 -0.336 -0.361 -0.361
 0.262  1.039 -0.031 -0.260 -0.335 -0.361 -0.361
 0.264  1.041 -0.029 -0.259 -0.334 -0.360 -0.360
 0.266  1.043 -0.028 -0.258 -0.333 -0.359 -0.359
 0.268  1.044 -0.025 -0.257 -0.332 -0.359 -0.359
 0.270  1.045 -0.024 -0.255 -0.331 -0.358 -0.358
 0.272  1.047 -0.022 -0.254 -0.331 -0.357 -0.357
 0.274  1.048 -0.020 -0.253 -0.330 -0.357 -0.357
 0.276  1.050 -0.019 -0.252 -0.329 -0.356 -0.356
 0.278  1.051 -0.017 -0.251 -0.328 -0.355 -0.355
 0.280  1.052 -0.015 -0.250 -0.327 -0.355 -0.355
 0.282  1.054 -0.014 -0.249 -0.326 -0.354 -0.354
 0.284  1.055 -0.012 -0.248 -0.326 -0.353 -0.353
 0.286  1.056 -0.011 -0.246 -0.325 -0.353 -0.353
 0.288  1.057 -0.009 -0.245 -0.324 -0.352 -0.352
 0.290  1.059 -0.007 -0.244 -0.323 -0.351 -0.351
 0.292  1.060 -0.006 -0.243 -0.322 -0.351 -0.351
 0.294  1.062 -0.005 -0.242 -0.321 -0.350 -0.350
 0.296  1.062 -0.003 -0.241 -0.320 -0.349 -0.349
 0.298  1.064 -0.002 -0.240 -0.319 -0.348 -0.348
 0.300  1.065 -0.000 -0.239 -0.319 -0.348 -0.348
 0.302  1.067  0.001 -0.238 -0.318 -0.347 -0.347
 0.304  1.068  0.003 -0.237 -0.317 -0.347 -0.347
 0.306  1.069  0.004 -0.236 -0.316 -0.346 -0.346
 0.308  1.070  0.005 -0.235 -0.315 -0.345 -0.345
 0.310  1.072  0.007 -0.234 -0.314 -0.344 -0.344
 0.312  1.073  0.009 -0.233 -0.313 -0.344 -0.344
 0.314  1.074  0.010 -0.232 -0.312 -0.343 -0.343
 0.316  1.075  0.012 -0.230 -0.311 -0.342 -0.342
 0.318  1.077  0.013 -0.229 -0.310 -0.342 -0.342
 0.320  1.078  0.015 -0.228 -0.309 -0.341 -0.341
 0.322  1.079  0.017 -0.227 -0.308 -0.340 -0.340
 0.324  1.080  0.018 -0.226 -0.307 -0.340 -0.340
 0.326  1.081  0.020 -0.225 -0.306 -0.339 -0.339
 0.328  1.083  0.021 -0.223 -0.306 -0.338 -0.338
 0.330  1.084  0.023 -0.222 -0.305 -0.338 -0.338
 0.332  1.085  0.024 -0.221 -0.303 -0.337 -0.337
 0.334  1.086  0.026 -0.220 -0.302 -0.336 -0.336
 0.336  1.088  0.028 -0.219 -0.301 -0.335 -0.335
 0.338  1.089  0.030 -0.218 -0.300 -0.335 -0.335
 0.340  1.090  0.031 -0.216 -0.300 -0.334 -0.334
 0.342  1.091  0.033 -0.215 -0.298 -0.333 -0.333
 0.344  1.092  0.035 -0.214 -0.297 -0.333 -0.333
 0.346  1.094  0.037 -0.213 -0.296 -0.332 -0.332
 0.348  1.095  0.038 -0.211 -0.295 -0.331 -0.331
 0.350  1.096  0.040 -0.210 -0.294 -0.330 -0.330
 0.352  1.097  0.042 -0.209 -0.293 -0.330 -0.330
 0.354  1.099  0.044 -0.208 -0.292 -0.329 -0.329
 0.356  1.100  0.046 -0.206 -0.291 -0.329 -0.329
 0.358  1.101  0.047 -0.205 -0.290 -0.328 -0.328
 0.360  1.102  0.049 -0.204 -0.289 -0.327 -0.327
 0.362  1.103  0.051 -0.202 -0.288 -0.326 -0.326
 0.364  1.105  0.053 -0.201 -0.287 -0.325 -0.325
 0.366  1.106  0.055 -0.200 -0.285 -0.325 -0.325
 0.368  1.107  0.057 -0.198 -0.285 -0.324 -0.324
 0.370  1.108  0.059 -0.197 -0.284 -0.323 -0.323
 0.372  1.109  0.061 -0.196 -0.282 -0.323 -0.323
 0.374  1.110  0.063 -0.195 -0.281 -0.322 -0.322
 0.376  1.112  0.064 -0.193 -0.280 -0.321 -0.321
 0.378  1.113  0.066 -0.192 -0.280 -0.321 -0.321
 0.380  1.114  0.068 -0.191 -0.279 -0.320 -0.320
 0.382  1.115  0.070 -0.189 -0.277 -0.319 -0.319
 0.384  1.116  0.072 -0.188 -0.276 -0.318 -0.318
 0.386  1.117  0.073 -0.187 -0.275 -0.318 -0.318
 0.388  1.119  0.075 -0.186 -0.274 -0.317 -0.317
 0.390  1.120  0.077 -0.185 -0.274 -0.316 -0.316
 0.392  1.121  0.078 -0.184 -0.273 -0.316 -0.316
 0.394  1.122  0.080 -0.182 -0.272 -0.315 -0.315
 0.396  1.123  0.081 -0.181 -0.271 -0.314 -0.314
 0.398  1.124  0.083 -0.180 -0.270 -0.313 -0.313
 0.400  1.126  0.084 -0.179 -0.269 -0.313 -0.313
 0.402  1.126  0.086 -0.178 -0.268 -0.312 -0.312
 0.404  1.128  0.087 -0.177 -0.267 -0.312 -0.312
 0.406  1.129  0.089 -0.175 -0.266 -0.311 -0.311
 0.408  1.130  0.090 -0.174 -0.265 -0.310 -0.310
 0.410  1.131  0.092 -0.173 -0.265 -0.309 -0.309
 0.412  1.132  0.093 -0.172 -0.264 -0.309 -0.309
 0.414  1.133  0.095 -0.171 -0.263 -0.308 -0.308
 0.416  1.134  0.096 -0.170 -0.262 -0.307 -0.307
 0.418  1.135  0.097 -0.169 -0.261 -0.307 -0.307
 0.420  1.137  0.098 -0.168 -0.260 -0.306 -0.306
 0.422  1.138  0.099 -0.167 -0.260 -0.305 -0.305
 0.424  1.138  0.101 -0.166 -0.259 -0.304 -0.304
 0.426  1.140  0.102 -0.165 -0.258 -0.304 -0.304
 0.428  1.141  0.103 -0.164 -0.257 -0.303 -0.303
 0.430  1.142  0.104 -0.163 -0.257 -0.303 -0.303
 0.432  1.143  0.105 -0.162 -0.256 -0.302 -0.302
 0.434  1.144  0.106 -0.161 -0.255 -0.301 -0.301
 0.436  1.145  0.107 -0.160 -0.254 -0.300 -0.300
 0.438  1.146  0.108 -0.159 -0.254 -0.300 -0.300
 0.440  1.147  0.109 -0.158 -0.253 -0.299 -0.299
 0.442  1.148  0.111 -0.157 -0.252 -0.298 -0.298
 0.444  1.149  0.112 -0.156 -0.251 -0.298 -0.298
 0.446  1.150  0.113 -0.155 -0.251 -0.297 -0.297
 0.448  1.151  0.114 -0.154 -0.250 -0.296 -0.296
 0.450  1.152  0.115 -0.153 -0.249 -0.296 -0.296
 0.452  1.153  0.115 -0.152 -0.249 -0.295 -0.295
 0.454  1.154  0.116 -0.152 -0.248 -0.295 -0.295
 0.456  1.155  0.117 -0.151 -0.247 -0.294 -0.294
 0.458  1.156  0.118 -0.150 -0.247 -0.293 -0.293
 0.460  1.156  0.119 -0.149 -0.246 -0.293 -0.293
 0.462  1.157  0.120 -0.148 -0.245 -0.292 -0.292
 0.464  1.158  0.121 -0.148 -0.244 -0.292 -0.292
 0.466  1.159  0.122 -0.147 -0.244 -0.291 -0.291
 0.468  1.160  0.123 -0.146 -0.243 -0.290 -0.290
 0.470  1.161  0.124 -0.145 -0.243 -0.290 -0.290
 0.472  1.162  0.124 -0.145 -0.242 -0.289 -0.289
 0.474  1.163  0.125 -0.144 -0.241 -0.289 -0.289
 0.476  1.164  0.126 -0.143 -0.241 -0.288 -0.288
 0.478  1.164  0.127 -0.143 -0.240 -0.287 -0.287
 0.480  1.165  0.128 -0.142 -0.239 -0.287 -0.287
 0.482  1.166  0.129 -0.141 -0.239 -0.286 -0.286
 0.484  1.167  0.129 -0.140 -0.238 -0.286 -0.286
 0.486  1.167  0.130 -0.140 -0.238 -0.285 -0.285
 0.488  1.168  0.131 -0.139 -0.237 -0.285 -0.285
 0.490  1.169  0.132 -0.139 -0.237 -0.284 -0.284
 0.492  1.170  0.132 -0.138 -0.236 -0.284 -0.284
 0.494  1.171  0.133 -0.138 -0.235 -0.283 -0.283
 0.496  1.172  0.134 -0.137 -0.235 -0.283 -0.283
 0.498  1.172  0.134 -0.136 -0.234 -0.282 -0.282
 0.500  1.173  0.135 -0.136 -0.233 -0.282 -0.282
 0.502  1.173  0.135 -0.135 -0.233 -0.281 -0.281
 0.504  1.174  0.137 -0.135 -0.233 -0.281 -0.281
 0.506  1.175  0.137 -0.134 -0.232 -0.280 -0.280
 0.508  1.176  0.138 -0.134 -0.231 -0.280 -0.280
 0.510  1.176  0.138 -0.133 -0.231 -0.279 -0.279
 0.512  1.177  0.139 -0.133 -0.230 -0.279 -0.279
 0.514  1.178  0.140 -0.132 -0.230 -0.278 -0.278
 0.516  1.178  0.140 -0.132 -0.229 -0.278 -0.278
 0.518  1.179  0.141 -0.131 -0.229 -0.277 -0.277
 0.520  1.179  0.141 -0.131 -0.228 -0.277 -0.277
 0.522  1.180  0.142 -0.131 -0.228 -0.277 -0.277
 0.524  1.180  0.142 -0.130 -0.227 -0.276 -0.276
 0.526  1.181  0.143 -0.129 -0.227 -0.275 -0.275
 0.528  1.181  0.143 -0.129 -0.226 -0.275 -0.275
 0.530  1.182  0.144 -0.129 -0.226 -0.274 -0.274
 0.532  1.182  0.145 -0.128 -0.225 -0.274 -0.274
 0.534  1.183  0.145 -0.128 -0.224 -0.273 -0.273
 0.536  1.183  0.145 -0.127 -0.224 -0.273 -0.273
 0.538  1.184  0.146 -0.127 -0.223 -0.272 -0.272
 0.540  1.184  0.146 -0.126 -0.223 -0.272 -0.272
 0.542  1.185  0.147 -0.126 -0.223 -0.271 -0.271
 0.544  1.185  0.147 -0.125 -0.222 -0.271 -0.271
 0.546  1.185  0.147 -0.125 -0.221 -0.270 -0.270
 0.548  1.186  0.148 -0.125 -0.221 -0.270 -0.270
 0.550  1.186  0.148 -0.124 -0.220 -0.269 -0.269
 0.552  1.186  0.148 -0.124 -0.220 -0.269 -0.269
 0.554  1.187  0.148 -0.123 -0.219 -0.268 -0.268
 0.556  1.187  0.149 -0.123 -0.219 -0.268 -0.268
 0.558  1.187  0.149 -0.123 -0.218 -0.267 -0.267
 0.560  1.187  0.149 -0.122 -0.218 -0.267 -0.267
 0.562  1.188  0.149 -0.122 -0.217 -0.266 -0.266
 0.564  1.188  0.150 -0.122 -0.217 -0.266 -0.266
 0.566  1.188  0.150 -0.121 -0.216 -0.265 -0.265
 0.568  1.188  0.150 -0.121 -0.216 -0.265 -0.265
 0.570  1.189  0.150 -0.120 -0.215 -0.264 -0.264
 0.572  1.189  0.150 -0.120 -0.215 -0.264 -0.264
 0.574  1.189  0.150 -0.120 -0.214 -0.263 -0.263
 0.576  1.189  0.151 -0.119 -0.214 -0.263 -0.263
 0.578  1.189  0.151 -0.119 -0.213 -0.262 -0.262
 0.580  1.189  0.151 -0.118 -0.213 -0.261 -0.261
 0.582  1.189  0.151 -0.118 -0.212 -0.261 -0.261
 0.584  1.190  0.151 -0.118 -0.212 -0.261 -0.261
 0.586  1.190  0.151 -0.117 -0.211 -0.260 -0.260
 0.588  1.190  0.151 -0.117 -0.211 -0.260 -0.260
 0.590  1.190  0.151 -0.116 -0.210 -0.259 -0.259
 0.592  1.190  0.151 -0.116 -0.209 -0.259 -0.259
 0.594  1.190  0.151 -0.115 -0.209 -0.258 -0.258
 0.596  1.190  0.151 -0.115 -0.208 -0.258 -0.258
 0.598  1.190  0.152 -0.115 -0.208 -0.257 -0.257
 0.600  1.190  0.152 -0.114 -0.207 -0.257 -0.257
 0.602  1.190  0.152 -0.114 -0.207 -0.257 -0.257
 0.604  1.190  0.152 -0.113 -0.206 -0.256 -0.256
 0.606  1.190  0.152 -0.113 -0.205 -0.256 -0.256
 0.608  1.190  0.152 -0.113 -0.204 -0.255 -0.255
 0.610  1.190  0.152 -0.112 -0.204 -0.255 -0.255
 0.612  1.190  0.152 -0.111 -0.203 -0.254 -0.254
 0.614  1.190  0.152 -0.111 -0.202 -0.254 -0.254
 0.616  1.190  0.152 -0.111 -0.202 -0.254 -0.254
 0.618  1.190  0.152 -0.110 -0.201 -0.253 -0.253
 0.620  1.190  0.153 -0.109 -0.200 -0.253 -0.253
 0.622  1.190  0.153 -0.109 -0.200 -0.253 -0.253
 0.624  1.190  0.153 -0.109 -0.199 -0.252 -0.252
 0.626  1.190  0.153 -0.108 -0.198 -0.252 -0.252
 0.628  1.190  0.154 -0.108 -0.197 -0.252 -0.252
 0.630  1.190  0.154 -0.107 -0.197 -0.251 -0.251
 0.632  1.190  0.154 -0.107 -0.196 -0.251 -0.251
 0.634  1.190  0.154 -0.106 -0.195 -0.251 -0.251
 0.636  1.189  0.154 -0.106 -0.194 -0.251 -0.251
 0.638  1.189  0.154 -0.105 -0.193 -0.250 -0.250
 0.640  1.189  0.154 -0.105 -0.193 -0.250 -0.250
 0.642  1.189  0.154 -0.104 -0.192 -0.250 -0.250
 0.644  1.189  0.154 -0.104 -0.191 -0.249 -0.249
 0.646  1.189  0.154 -0.103 -0.190 -0.249 -0.249
 0.648  1.189  0.155 -0.102 -0.189 -0.249 -0.249
 0.650  1.188  0.155 -0.102 -0.188 -0.249 -0.249
 0.652  1.188  0.155 -0.101 -0.187 -0.248 -0.248
 0.654  1.188  0.155 -0.101 -0.186 -0.248 -0.248
 0.656  1.188  0.155 -0.100 -0.186 -0.247 -0.247
 0.658  1.188  0.155 -0.099 -0.185 -0.247 -0.247
 0.660  1.188  0.156 -0.099 -0.184 -0.247 -0.247
 0.662  1.188  0.156 -0.098 -0.183 -0.246 -0.246
 0.664  1.187  0.156 -0.097 -0.182 -0.246 -0.246
 0.666  1.187  0.157 -0.096 -0.181 -0.246 -0.246
 0.668  1.187  0.157 -0.095 -0.180 -0.245 -0.245
 0.670  1.187  0.158 -0.095 -0.179 -0.245 -0.245
 0.672  1.187  0.158 -0.094 -0.178 -0.244 -0.244
 0.674  1.187  0.159 -0.093 -0.177 -0.244 -0.244
 0.676  1.186  0.159 -0.092 -0.176 -0.244 -0.244
 0.678  1.186  0.160 -0.091 -0.175 -0.243 -0.243
 0.680  1.186  0.161 -0.090 -0.174 -0.243 -0.243
 0.682  1.186  0.162 -0.089 -0.173 -0.242 -0.242
 0.684  1.186  0.163 -0.088 -0.172 -0.242 -0.242
 0.686  1.186  0.164 -0.086 -0.171 -0.241 -0.241
 0.688  1.186  0.165 -0.085 -0.170 -0.241 -0.241
 0.690  1.185  0.166 -0.084 -0.168 -0.240 -0.240
 0.692  1.185  0.167 -0.083 -0.167 -0.240 -0.240
 0.694  1.185  0.168 -0.081 -0.166 -0.239 -0.239
 0.696  1.185  0.169 -0.080 -0.165 -0.238 -0.238
 0.698  1.185  0.170 -0.079 -0.164 -0.238 -0.238
 0.700  1.185  0.172 -0.077 -0.162 -0.237 -0.237
 0.702  1.185  0.173 -0.076 -0.161 -0.237 -0.237
 0.704  1.185  0.174 -0.075 -0.160 -0.236 -0.236
 0.706  1.185  0.175 -0.073 -0.159 -0.235 -0.235
 0.708  1.185  0.177 -0.072 -0.158 -0.235 -0.235
 0.710  1.184  0.179 -0.070 -0.156 -0.234 -0.234
 0.712  1.184  0.180 -0.068 -0.155 -0.233 -0.233
 0.714  1.184  0.182 -0.067 -0.154 -0.232 -0.232
 0.716  1.184  0.183 -0.065 -0.153 -0.232 -0.232
 0.718  1.184  0.185 -0.063 -0.151 -0.231 -0.231
 0.720  1.184  0.187 -0.062 -0.150 -0.230 -0.230
 0.722  1.184  0.189 -0.060 -0.149 -0.229 -0.229
 0.724  1.183  0.191 -0.058 -0.148 -0.229 -0.229
 0.726  1.183  0.192 -0.057 -0.147 -0.228 -0.228
 0.728  1.183  0.194 -0.055 -0.145 -0.227 -0.227
 0.730  1.183  0.196 -0.054 -0.145 -0.226 -0.226
 0.732  1.183  0.198 -0.052 -0.144 -0.225 -0.225
 0.734  1.183  0.199 -0.051 -0.142 -0.225 -0.225
 0.736  1.183  0.200 -0.050 -0.141 -0.223 -0.223
 0.738  1.183  0.202 -0.049 -0.140 -0.223 -0.223
 0.740  1.182  0.203 -0.047 -0.140 -0.221 -0.221
 0.742  1.182  0.205 -0.047 -0.139 -0.220 -0.220
 0.744  1.182  0.206 -0.045 -0.138 -0.219 -0.219
 0.746  1.182  0.207 -0.045 -0.137 -0.218 -0.218
 0.748  1.182  0.208 -0.044 -0.136 -0.217 -0.217
 0.750  1.182  0.209 -0.043 -0.136 -0.216 -0.216
 0.752  1.182  0.209 -0.042 -0.135 -0.215 -0.215
 0.754  1.182  0.210 -0.042 -0.134 -0.214 -0.214
 0.756  1.182  0.211 -0.041 -0.134 -0.213 -0.213
 0.758  1.182  0.211 -0.040 -0.133 -0.212 -0.212
 0.760  1.182  0.212 -0.040 -0.133 -0.211 -0.211
 0.762  1.182  0.212 -0.040 -0.132 -0.209 -0.209
 0.764  1.182  0.213 -0.039 -0.132 -0.208 -0.208
 0.766  1.182  0.213 -0.039 -0.131 -0.207 -0.207
 0.768  1.182  0.213 -0.039 -0.131 -0.206 -0.206
 0.770  1.182  0.213 -0.038 -0.130 -0.204 -0.204
 0.772  1.182  0.213 -0.038 -0.130 -0.203 -0.203
 0.774  1.182  0.213 -0.038 -0.129 -0.201 -0.201
 0.776  1.181  0.213 -0.038 -0.129 -0.200 -0.200
 0.778  1.181  0.213 -0.038 -0.129 -0.199 -0.199
 0.780  1.181  0.213 -0.039 -0.128 -0.197 -0.197
 0.782  1.181  0.212 -0.039 -0.128 -0.195 -0.195
 0.784  1.181  0.211 -0.039 -0.128 -0.194 -0.194
 0.786  1.181  0.211 -0.040 -0.128 -0.192 -0.192
 0.788  1.181  0.210 -0.040 -0.128 -0.191 -0.191
 0.790  1.182  0.209 -0.041 -0.128 -0.190 -0.190
 0.792  1.182  0.209 -0.041 -0.129 -0.188 -0.188
 0.794  1.182  0.208 -0.042 -0.129 -0.187 -0.187
 0.796  1.182  0.207 -0.043 -0.129 -0.186 -0.186
 0.798  1.183  0.206 -0.044 -0.130 -0.185 -0.185
 0.800  1.183  0.204 -0.045 -0.131 -0.183 -0.183
 0.802  1.184  0.202 -0.047 -0.132 -0.183 -0.183
 0.804  1.184  0.201 -0.048 -0.134 -0.182 -0.182
 0.806  1.185  0.199 -0.050 -0.135 -0.181 -0.181
 0.808  1.185  0.197 -0.052 -0.137 -0.180 -0.180
