# IsPeriodic    : True
# Period        : 0.486792 days
# Normalization : <g_mag>=0
# 
# Phase u_mag  g_mag  r_mag  i_mag  z_mag  y_mag
 0.000  0.194 -0.902 -0.789 -0.648 -0.570 -0.570
 0.002  0.194 -0.904 -0.789 -0.648 -0.570 -0.570
 0.004  0.194 -0.902 -0.788 -0.647 -0.570 -0.570
 0.006  0.195 -0.901 -0.787 -0.646 -0.569 -0.569
 0.008  0.196 -0.900 -0.784 -0.645 -0.569 -0.569
 0.010  0.198 -0.897 -0.781 -0.644 -0.567 -0.567
 0.012  0.200 -0.894 -0.778 -0.642 -0.566 -0.566
 0.014  0.202 -0.891 -0.774 -0.639 -0.564 -0.564
 0.016  0.205 -0.888 -0.770 -0.637 -0.562 -0.562
 0.018  0.208 -0.884 -0.766 -0.635 -0.560 -0.560
 0.020  0.212 -0.880 -0.762 -0.632 -0.558 -0.558
 0.022  0.215 -0.876 -0.757 -0.629 -0.554 -0.554
 0.024  0.218 -0.871 -0.752 -0.626 -0.552 -0.552
 0.026  0.223 -0.867 -0.748 -0.623 -0.548 -0.548
 0.028  0.227 -0.863 -0.743 -0.620 -0.544 -0.544
 0.030  0.231 -0.857 -0.739 -0.617 -0.541 -0.541
 0.032  0.236 -0.853 -0.734 -0.614 -0.537 -0.537
 0.034  0.241 -0.847 -0.730 -0.612 -0.532 -0.532
 0.036  0.245 -0.843 -0.725 -0.608 -0.528 -0.528
 0.038  0.250 -0.838 -0.721 -0.605 -0.523 -0.523
 0.040  0.255 -0.832 -0.717 -0.602 -0.518 -0.518
 0.042  0.262 -0.826 -0.712 -0.598 -0.514 -0.514
 0.044  0.268 -0.821 -0.707 -0.595 -0.510 -0.510
 0.046  0.274 -0.814 -0.702 -0.591 -0.506 -0.506
 0.048  0.280 -0.808 -0.697 -0.588 -0.501 -0.501
 0.050  0.286 -0.801 -0.692 -0.584 -0.497 -0.497
 0.052  0.294 -0.794 -0.687 -0.580 -0.493 -0.493
 0.054  0.301 -0.787 -0.682 -0.576 -0.489 -0.489
 0.056  0.309 -0.780 -0.676 -0.572 -0.486 -0.486
 0.058  0.316 -0.771 -0.671 -0.567 -0.482 -0.482
 0.060  0.323 -0.764 -0.666 -0.563 -0.478 -0.478
 0.062  0.332 -0.756 -0.660 -0.558 -0.475 -0.475
 0.064  0.341 -0.748 -0.655 -0.554 -0.472 -0.472
 0.066  0.348 -0.739 -0.649 -0.549 -0.469 -0.469
 0.068  0.358 -0.731 -0.643 -0.544 -0.466 -0.466
 0.070  0.367 -0.722 -0.637 -0.540 -0.462 -0.462
 0.072  0.375 -0.714 -0.632 -0.534 -0.460 -0.460
 0.074  0.385 -0.705 -0.626 -0.530 -0.457 -0.457
 0.076  0.394 -0.695 -0.619 -0.525 -0.454 -0.454
 0.078  0.404 -0.687 -0.613 -0.519 -0.451 -0.451
 0.080  0.412 -0.679 -0.608 -0.515 -0.449 -0.449
 0.082  0.422 -0.669 -0.602 -0.509 -0.446 -0.446
 0.084  0.431 -0.660 -0.596 -0.505 -0.444 -0.444
 0.086  0.440 -0.652 -0.590 -0.500 -0.441 -0.441
 0.088  0.448 -0.643 -0.585 -0.495 -0.440 -0.440
 0.090  0.457 -0.633 -0.579 -0.491 -0.437 -0.437
 0.092  0.466 -0.625 -0.573 -0.486 -0.436 -0.436
 0.094  0.474 -0.617 -0.568 -0.482 -0.434 -0.434
 0.096  0.482 -0.610 -0.562 -0.477 -0.432 -0.432
 0.098  0.490 -0.601 -0.557 -0.473 -0.431 -0.431
 0.100  0.498 -0.593 -0.551 -0.469 -0.430 -0.430
 0.102  0.505 -0.584 -0.546 -0.465 -0.428 -0.428
 0.104  0.513 -0.577 -0.540 -0.461 -0.426 -0.426
 0.106  0.520 -0.569 -0.535 -0.457 -0.426 -0.426
 0.108  0.527 -0.562 -0.529 -0.453 -0.424 -0.424
 0.110  0.535 -0.553 -0.524 -0.450 -0.423 -0.423
 0.112  0.542 -0.546 -0.519 -0.445 -0.421 -0.421
 0.114  0.548 -0.539 -0.514 -0.442 -0.421 -0.421
 0.116  0.556 -0.531 -0.509 -0.438 -0.419 -0.419
 0.118  0.562 -0.524 -0.504 -0.436 -0.418 -0.418
 0.120  0.570 -0.517 -0.499 -0.432 -0.416 -0.416
 0.122  0.576 -0.510 -0.495 -0.429 -0.415 -0.415
 0.124  0.582 -0.503 -0.490 -0.426 -0.414 -0.414
 0.126  0.588 -0.496 -0.485 -0.422 -0.412 -0.412
 0.128  0.594 -0.488 -0.481 -0.420 -0.411 -0.411
 0.130  0.600 -0.483 -0.476 -0.417 -0.409 -0.409
 0.132  0.605 -0.476 -0.472 -0.414 -0.407 -0.407
 0.134  0.612 -0.470 -0.468 -0.412 -0.406 -0.406
 0.136  0.617 -0.463 -0.463 -0.409 -0.404 -0.404
 0.138  0.623 -0.457 -0.459 -0.406 -0.402 -0.402
 0.140  0.628 -0.450 -0.455 -0.404 -0.400 -0.400
 0.142  0.633 -0.445 -0.451 -0.401 -0.398 -0.398
 0.144  0.638 -0.439 -0.447 -0.399 -0.396 -0.396
 0.146  0.642 -0.432 -0.442 -0.397 -0.394 -0.394
 0.148  0.647 -0.427 -0.438 -0.394 -0.392 -0.392
 0.150  0.652 -0.421 -0.434 -0.392 -0.390 -0.390
 0.152  0.657 -0.415 -0.430 -0.389 -0.388 -0.388
 0.154  0.662 -0.410 -0.426 -0.388 -0.385 -0.385
 0.156  0.667 -0.404 -0.422 -0.386 -0.383 -0.383
 0.158  0.672 -0.397 -0.418 -0.383 -0.381 -0.381
 0.160  0.677 -0.391 -0.415 -0.381 -0.379 -0.379
 0.162  0.681 -0.386 -0.411 -0.379 -0.376 -0.376
 0.164  0.686 -0.380 -0.407 -0.377 -0.374 -0.374
 0.166  0.691 -0.374 -0.403 -0.374 -0.371 -0.371
 0.168  0.696 -0.369 -0.400 -0.373 -0.369 -0.369
 0.170  0.701 -0.363 -0.396 -0.370 -0.366 -0.366
 0.172  0.706 -0.358 -0.392 -0.368 -0.364 -0.364
 0.174  0.711 -0.352 -0.389 -0.365 -0.360 -0.360
 0.176  0.714 -0.346 -0.385 -0.364 -0.358 -0.358
 0.178  0.719 -0.341 -0.382 -0.361 -0.355 -0.355
 0.180  0.724 -0.335 -0.378 -0.358 -0.352 -0.352
 0.182  0.729 -0.329 -0.374 -0.357 -0.349 -0.349
 0.184  0.734 -0.324 -0.371 -0.354 -0.347 -0.347
 0.186  0.739 -0.318 -0.367 -0.351 -0.344 -0.344
 0.188  0.744 -0.312 -0.364 -0.350 -0.341 -0.341
 0.190  0.748 -0.307 -0.360 -0.347 -0.339 -0.339
 0.192  0.753 -0.301 -0.357 -0.345 -0.336 -0.336
 0.194  0.758 -0.296 -0.352 -0.342 -0.334 -0.334
 0.196  0.762 -0.290 -0.349 -0.340 -0.331 -0.331
 0.198  0.767 -0.284 -0.345 -0.337 -0.328 -0.328
 0.200  0.772 -0.279 -0.342 -0.335 -0.325 -0.325
 0.202  0.776 -0.273 -0.338 -0.333 -0.324 -0.324
 0.204  0.781 -0.267 -0.335 -0.330 -0.321 -0.321
 0.206  0.786 -0.262 -0.332 -0.328 -0.319 -0.319
 0.208  0.791 -0.256 -0.328 -0.326 -0.316 -0.316
 0.210  0.795 -0.251 -0.325 -0.323 -0.314 -0.314
 0.212  0.800 -0.245 -0.322 -0.320 -0.311 -0.311
 0.214  0.805 -0.239 -0.318 -0.318 -0.309 -0.309
 0.216  0.809 -0.234 -0.315 -0.316 -0.307 -0.307
 0.218  0.814 -0.229 -0.312 -0.313 -0.304 -0.304
 0.220  0.818 -0.224 -0.308 -0.310 -0.302 -0.302
 0.222  0.823 -0.218 -0.305 -0.308 -0.300 -0.300
 0.224  0.828 -0.213 -0.302 -0.305 -0.298 -0.298
 0.226  0.832 -0.207 -0.299 -0.303 -0.296 -0.296
 0.228  0.837 -0.201 -0.295 -0.301 -0.293 -0.293
 0.230  0.842 -0.197 -0.292 -0.298 -0.292 -0.292
 0.232  0.845 -0.191 -0.289 -0.295 -0.289 -0.289
 0.234  0.850 -0.186 -0.286 -0.293 -0.288 -0.288
 0.236  0.854 -0.182 -0.283 -0.291 -0.286 -0.286
 0.238  0.859 -0.176 -0.280 -0.288 -0.283 -0.283
 0.240  0.863 -0.172 -0.277 -0.286 -0.282 -0.282
 0.242  0.868 -0.166 -0.274 -0.284 -0.280 -0.280
 0.244  0.871 -0.162 -0.271 -0.281 -0.278 -0.278
 0.246  0.875 -0.156 -0.268 -0.278 -0.277 -0.277
 0.248  0.880 -0.152 -0.264 -0.277 -0.274 -0.274
 0.250  0.884 -0.146 -0.261 -0.274 -0.273 -0.273
 0.252  0.887 -0.142 -0.258 -0.271 -0.271 -0.271
 0.254  0.892 -0.138 -0.255 -0.270 -0.269 -0.269
 0.256  0.896 -0.132 -0.252 -0.267 -0.268 -0.268
 0.258  0.900 -0.128 -0.249 -0.265 -0.266 -0.266
 0.260  0.903 -0.124 -0.246 -0.262 -0.264 -0.264
 0.262  0.907 -0.120 -0.244 -0.261 -0.263 -0.263
 0.264  0.912 -0.115 -0.241 -0.258 -0.261 -0.261
 0.266  0.916 -0.111 -0.238 -0.255 -0.258 -0.258
 0.268  0.920 -0.107 -0.235 -0.254 -0.257 -0.257
 0.270  0.923 -0.103 -0.233 -0.252 -0.255 -0.255
 0.272  0.927 -0.099 -0.230 -0.249 -0.253 -0.253
 0.274  0.931 -0.094 -0.227 -0.247 -0.252 -0.252
 0.276  0.934 -0.090 -0.225 -0.245 -0.249 -0.249
 0.278  0.938 -0.086 -0.222 -0.243 -0.247 -0.247
 0.280  0.942 -0.082 -0.219 -0.240 -0.246 -0.246
 0.282  0.946 -0.077 -0.217 -0.238 -0.244 -0.244
 0.284  0.948 -0.073 -0.214 -0.236 -0.242 -0.242
 0.286  0.952 -0.070 -0.212 -0.234 -0.240 -0.240
 0.288  0.955 -0.066 -0.209 -0.232 -0.238 -0.238
 0.290  0.959 -0.062 -0.207 -0.230 -0.236 -0.236
 0.292  0.963 -0.059 -0.204 -0.228 -0.234 -0.234
 0.294  0.967 -0.055 -0.202 -0.226 -0.232 -0.232
 0.296  0.969 -0.051 -0.199 -0.223 -0.230 -0.230
 0.298  0.973 -0.046 -0.197 -0.222 -0.228 -0.228
 0.300  0.976 -0.044 -0.194 -0.219 -0.226 -0.226
 0.302  0.980 -0.039 -0.192 -0.217 -0.224 -0.224
 0.304  0.983 -0.035 -0.189 -0.215 -0.222 -0.222
 0.306  0.986 -0.032 -0.187 -0.213 -0.220 -0.220
 0.308  0.990 -0.028 -0.184 -0.211 -0.218 -0.218
 0.310  0.994 -0.024 -0.182 -0.208 -0.216 -0.216
 0.312  0.996 -0.020 -0.179 -0.206 -0.214 -0.214
 0.314  1.000 -0.015 -0.175 -0.205 -0.212 -0.212
 0.316  1.004 -0.013 -0.173 -0.202 -0.209 -0.209
 0.318  1.007 -0.008 -0.170 -0.200 -0.207 -0.207
 0.320  1.010 -0.004 -0.168 -0.198 -0.205 -0.205
 0.322  1.014  0.000 -0.165 -0.196 -0.203 -0.203
 0.324  1.017  0.004 -0.162 -0.193 -0.201 -0.201
 0.326  1.020  0.008 -0.160 -0.191 -0.199 -0.199
 0.328  1.023  0.013 -0.157 -0.189 -0.196 -0.196
 0.330  1.027  0.017 -0.154 -0.187 -0.195 -0.195
 0.332  1.031  0.021 -0.152 -0.184 -0.192 -0.192
 0.334  1.033  0.025 -0.149 -0.182 -0.190 -0.190
 0.336  1.037  0.030 -0.146 -0.180 -0.188 -0.188
 0.338  1.041  0.034 -0.143 -0.178 -0.186 -0.186
 0.340  1.043  0.038 -0.141 -0.175 -0.184 -0.184
 0.342  1.047  0.042 -0.138 -0.174 -0.181 -0.181
 0.344  1.049  0.046 -0.135 -0.171 -0.180 -0.180
 0.346  1.053  0.051 -0.132 -0.168 -0.177 -0.177
 0.348  1.057  0.055 -0.129 -0.167 -0.176 -0.176
 0.350  1.059  0.059 -0.127 -0.164 -0.173 -0.173
 0.352  1.063  0.063 -0.124 -0.162 -0.171 -0.171
 0.354  1.067  0.068 -0.121 -0.159 -0.169 -0.169
 0.356  1.069  0.072 -0.118 -0.158 -0.167 -0.167
 0.358  1.073  0.076 -0.115 -0.155 -0.165 -0.165
 0.360  1.075  0.082 -0.112 -0.152 -0.163 -0.163
 0.362  1.079  0.086 -0.109 -0.151 -0.161 -0.161
 0.364  1.083  0.090 -0.106 -0.148 -0.159 -0.159
 0.366  1.085  0.094 -0.104 -0.146 -0.157 -0.157
 0.368  1.089  0.099 -0.101 -0.143 -0.155 -0.155
 0.370  1.091  0.103 -0.098 -0.141 -0.153 -0.153
 0.372  1.095  0.107 -0.095 -0.139 -0.150 -0.150
 0.374  1.098  0.111 -0.092 -0.136 -0.149 -0.149
 0.376  1.101  0.115 -0.089 -0.135 -0.146 -0.146
 0.378  1.104  0.120 -0.085 -0.132 -0.145 -0.145
 0.380  1.108  0.124 -0.083 -0.130 -0.143 -0.143
 0.382  1.110  0.128 -0.080 -0.127 -0.140 -0.140
 0.384  1.114  0.132 -0.077 -0.126 -0.139 -0.139
 0.386  1.116  0.135 -0.074 -0.123 -0.136 -0.136
 0.388  1.120  0.139 -0.072 -0.121 -0.135 -0.135
 0.390  1.122  0.144 -0.069 -0.119 -0.133 -0.133
 0.392  1.126  0.148 -0.066 -0.117 -0.130 -0.130
 0.394  1.129  0.152 -0.063 -0.114 -0.129 -0.129
 0.396  1.132  0.155 -0.061 -0.112 -0.127 -0.127
 0.398  1.135  0.159 -0.058 -0.110 -0.125 -0.125
 0.400  1.138  0.163 -0.056 -0.108 -0.123 -0.123
 0.402  1.141  0.166 -0.053 -0.106 -0.121 -0.121
 0.404  1.145  0.170 -0.050 -0.103 -0.119 -0.119
 0.406  1.147  0.173 -0.048 -0.102 -0.117 -0.117
 0.408  1.150  0.177 -0.045 -0.100 -0.115 -0.115
 0.410  1.153  0.180 -0.043 -0.097 -0.113 -0.113
 0.412  1.156  0.184 -0.040 -0.095 -0.111 -0.111
 0.414  1.158  0.187 -0.038 -0.093 -0.110 -0.110
 0.416  1.162  0.192 -0.035 -0.091 -0.107 -0.107
 0.418  1.164  0.194 -0.033 -0.089 -0.105 -0.105
 0.420  1.168  0.197 -0.031 -0.087 -0.104 -0.104
 0.422  1.171  0.201 -0.028 -0.085 -0.102 -0.102
 0.424  1.173  0.204 -0.026 -0.083 -0.099 -0.099
 0.426  1.177  0.207 -0.023 -0.081 -0.098 -0.098
 0.428  1.179  0.210 -0.021 -0.079 -0.096 -0.096
 0.430  1.182  0.214 -0.019 -0.077 -0.094 -0.094
 0.432  1.184  0.217 -0.016 -0.075 -0.093 -0.093
 0.434  1.188  0.220 -0.014 -0.073 -0.091 -0.091
 0.436  1.190  0.222 -0.012 -0.071 -0.089 -0.089
 0.438  1.193  0.225 -0.010 -0.069 -0.087 -0.087
 0.440  1.195  0.228 -0.007 -0.067 -0.085 -0.085
 0.442  1.199  0.231 -0.005 -0.065 -0.084 -0.084
 0.444  1.202  0.234 -0.003 -0.063 -0.082 -0.082
 0.446  1.204  0.237 -0.001 -0.061 -0.080 -0.080
 0.448  1.206  0.239  0.002 -0.059 -0.078 -0.078
 0.450  1.209  0.242  0.005 -0.057 -0.076 -0.076
 0.452  1.211  0.245  0.007 -0.055 -0.074 -0.074
 0.454  1.214  0.248  0.009 -0.054 -0.073 -0.073
 0.456  1.216  0.251  0.011 -0.051 -0.071 -0.071
 0.458  1.219  0.253  0.013 -0.049 -0.069 -0.069
 0.460  1.221  0.256  0.015 -0.047 -0.068 -0.068
 0.462  1.224  0.259  0.017 -0.046 -0.066 -0.066
 0.464  1.226  0.260  0.019 -0.043 -0.064 -0.064
 0.466  1.229  0.263  0.021 -0.041 -0.063 -0.063
 0.468  1.231  0.266  0.023 -0.039 -0.061 -0.061
 0.470  1.234  0.268  0.025 -0.038 -0.059 -0.059
 0.472  1.236  0.270  0.027 -0.035 -0.058 -0.058
 0.474  1.239  0.273  0.029 -0.033 -0.056 -0.056
 0.476  1.241  0.275  0.031 -0.031 -0.054 -0.054
 0.478  1.242  0.277  0.033 -0.030 -0.053 -0.053
 0.480  1.245  0.280  0.035 -0.027 -0.051 -0.051
 0.482  1.247  0.282  0.036 -0.025 -0.049 -0.049
 0.484  1.250  0.284  0.038 -0.023 -0.048 -0.048
 0.486  1.251  0.286  0.040 -0.022 -0.046 -0.046
 0.488  1.253  0.289  0.042 -0.019 -0.045 -0.045
 0.490  1.256  0.290  0.044 -0.017 -0.043 -0.043
 0.492  1.257  0.293  0.045 -0.015 -0.042 -0.042
 0.494  1.260  0.294  0.047 -0.014 -0.040 -0.040
 0.496  1.262  0.296  0.049 -0.011 -0.038 -0.038
 0.498  1.263  0.298  0.051 -0.009 -0.037 -0.037
 0.500  1.266  0.300  0.052 -0.007 -0.036 -0.036
 0.502  1.267  0.301  0.054 -0.005 -0.034 -0.034
 0.504  1.270  0.304  0.056 -0.003 -0.033 -0.033
 0.506  1.271  0.306  0.057 -0.001 -0.031 -0.031
 0.508  1.273  0.307  0.059  0.001 -0.030 -0.030
 0.510  1.275  0.308  0.061  0.002 -0.028 -0.028
 0.512  1.277  0.310  0.062  0.004 -0.027 -0.027
 0.514  1.278  0.313  0.064  0.006 -0.026 -0.026
 0.516  1.279  0.314  0.065  0.008 -0.024 -0.024
 0.518  1.281  0.315  0.067  0.009 -0.023 -0.023
 0.520  1.283  0.317  0.068  0.011 -0.022 -0.022
 0.522  1.284  0.318  0.070  0.013 -0.020 -0.020
 0.524  1.286  0.320  0.071  0.015 -0.019 -0.019
 0.526  1.287  0.321  0.072  0.016 -0.018 -0.018
 0.528  1.288  0.322  0.074  0.017 -0.017 -0.017
 0.530  1.289  0.322  0.075  0.019 -0.015 -0.015
 0.532  1.291  0.324  0.076  0.021 -0.014 -0.014
 0.534  1.292  0.325  0.078  0.022 -0.013 -0.013
 0.536  1.293  0.327  0.079  0.024 -0.012 -0.012
 0.538  1.294  0.328  0.080  0.024 -0.010 -0.010
 0.540  1.296  0.328  0.081  0.025 -0.009 -0.009
 0.542  1.297  0.329  0.083  0.027 -0.008 -0.008
 0.544  1.298  0.331  0.084  0.028 -0.007 -0.007
 0.546  1.299  0.331  0.085  0.029 -0.005 -0.005
 0.548  1.300  0.332  0.086  0.030 -0.004 -0.004
 0.550  1.300  0.332  0.087  0.032 -0.003 -0.003
 0.552  1.302  0.334  0.088  0.032 -0.002 -0.002
 0.554  1.303  0.334  0.090  0.033 -0.001 -0.001
 0.556  1.303  0.335  0.091  0.034  0.001  0.001
 0.558  1.304  0.335  0.092  0.035  0.002  0.002
 0.560  1.304  0.337  0.093  0.035  0.003  0.003
 0.562  1.305  0.337  0.094  0.036  0.004  0.004
 0.564  1.305  0.337  0.095  0.037  0.005  0.005
 0.566  1.307  0.338  0.095  0.038  0.007  0.007
 0.568  1.307  0.338  0.096  0.038  0.008  0.008
 0.570  1.308  0.338  0.097  0.039  0.008  0.008
 0.572  1.308  0.338  0.098  0.040  0.009  0.009
 0.574  1.308  0.338  0.098  0.040  0.011  0.011
 0.576  1.309  0.339  0.099  0.040  0.012  0.012
 0.578  1.309  0.339  0.100  0.040  0.013  0.013
 0.580  1.309  0.339  0.100  0.041  0.014  0.014
 0.582  1.309  0.339  0.101  0.041  0.015  0.015
 0.584  1.310  0.339  0.102  0.042  0.016  0.016
 0.586  1.310  0.339  0.102  0.042  0.017  0.017
 0.588  1.310  0.339  0.103  0.042  0.018  0.018
 0.590  1.310  0.341  0.103  0.043  0.019  0.019
 0.592  1.310  0.341  0.104  0.043  0.020  0.020
 0.594  1.312  0.341  0.104  0.044  0.021  0.021
 0.596  1.312  0.341  0.105  0.044  0.022  0.022
 0.598  1.312  0.341  0.105  0.045  0.023  0.023
 0.600  1.312  0.341  0.106  0.045  0.024  0.024
 0.602  1.312  0.342  0.106  0.045  0.025  0.025
 0.604  1.312  0.342  0.107  0.046  0.026  0.026
 0.606  1.312  0.342  0.107  0.046  0.027  0.027
 0.608  1.312  0.342  0.108  0.047  0.028  0.028
 0.610  1.312  0.344  0.108  0.047  0.028  0.028
 0.612  1.312  0.344  0.108  0.048  0.029  0.029
 0.614  1.312  0.344  0.109  0.048  0.030  0.030
 0.616  1.312  0.344  0.109  0.048  0.032  0.032
 0.618  1.312  0.345  0.109  0.048  0.033  0.033
 0.620  1.312  0.345  0.110  0.048  0.033  0.033
 0.622  1.312  0.345  0.110  0.049  0.034  0.034
 0.624  1.312  0.346  0.110  0.049  0.035  0.035
 0.626  1.310  0.346  0.111  0.049  0.036  0.036
 0.628  1.310  0.346  0.111  0.050  0.037  0.037
 0.630  1.310  0.348  0.111  0.050  0.038  0.038
 0.632  1.310  0.348  0.111  0.050  0.039  0.039
 0.634  1.310  0.348  0.111  0.051  0.040  0.040
 0.636  1.309  0.349  0.112  0.051  0.041  0.041
 0.638  1.309  0.349  0.112  0.052  0.042  0.042
 0.640  1.309  0.349  0.112  0.052  0.043  0.043
 0.642  1.309  0.351  0.112  0.052  0.044  0.044
 0.644  1.308  0.351  0.112  0.053  0.045  0.045
 0.646  1.308  0.351  0.112  0.053  0.046  0.046
 0.648  1.308  0.352  0.112  0.053  0.047  0.047
 0.650  1.307  0.352  0.112  0.054  0.048  0.048
 0.652  1.307  0.352  0.112  0.054  0.049  0.049
 0.654  1.307  0.353  0.113  0.054  0.050  0.050
 0.656  1.307  0.353  0.113  0.054  0.051  0.051
 0.658  1.305  0.353  0.113  0.055  0.052  0.052
 0.660  1.305  0.353  0.113  0.055  0.053  0.053
 0.662  1.305  0.353  0.112  0.055  0.054  0.054
 0.664  1.304  0.355  0.112  0.055  0.055  0.055
 0.666  1.304  0.355  0.112  0.055  0.056  0.056
 0.668  1.304  0.355  0.112  0.056  0.057  0.057
 0.670  1.303  0.355  0.112  0.056  0.059  0.059
 0.672  1.303  0.355  0.112  0.056  0.059  0.059
 0.674  1.303  0.353  0.112  0.056  0.060  0.060
 0.676  1.302  0.353  0.112  0.056  0.061  0.061
 0.678  1.302  0.353  0.111  0.056  0.063  0.063
 0.680  1.302  0.353  0.111  0.056  0.064  0.064
 0.682  1.302  0.353  0.111  0.056  0.064  0.064
 0.684  1.300  0.352  0.111  0.056  0.065  0.065
 0.686  1.300  0.352  0.110  0.056  0.067  0.067
 0.688  1.300  0.351  0.110  0.056  0.068  0.068
 0.690  1.299  0.351  0.110  0.056  0.069  0.069
 0.692  1.299  0.351  0.109  0.056  0.070  0.070
 0.694  1.299  0.349  0.109  0.056  0.071  0.071
 0.696  1.298  0.349  0.109  0.055  0.072  0.072
 0.698  1.298  0.348  0.108  0.055  0.074  0.074
 0.700  1.298  0.346  0.108  0.055  0.074  0.074
 0.702  1.297  0.346  0.107  0.055  0.076  0.076
 0.704  1.297  0.345  0.107  0.055  0.077  0.077
 0.706  1.297  0.344  0.107  0.054  0.078  0.078
 0.708  1.297  0.344  0.106  0.054  0.079  0.079
 0.710  1.296  0.342  0.105  0.054  0.080  0.080
 0.712  1.296  0.341  0.105  0.053  0.082  0.082
 0.714  1.296  0.339  0.104  0.053  0.083  0.083
 0.716  1.294  0.338  0.104  0.053  0.084  0.084
 0.718  1.294  0.337  0.103  0.052  0.086  0.086
 0.720  1.294  0.335  0.102  0.052  0.087  0.087
 0.722  1.294  0.334  0.102  0.052  0.089  0.089
 0.724  1.293  0.334  0.101  0.052  0.089  0.089
 0.726  1.293  0.332  0.101  0.052  0.091  0.091
 0.728  1.293  0.331  0.100  0.052  0.092  0.092
 0.730  1.293  0.331  0.100  0.052  0.094  0.094
 0.732  1.292  0.331  0.100  0.052  0.095  0.095
 0.734  1.292  0.331  0.100  0.052  0.096  0.096
 0.736  1.292  0.331  0.100  0.053  0.098  0.098
 0.738  1.292  0.331  0.100  0.054  0.099  0.099
 0.740  1.291  0.331  0.100  0.054  0.100  0.100
 0.742  1.291  0.331  0.100  0.055  0.102  0.102
 0.744  1.291  0.332  0.101  0.056  0.103  0.103
 0.746  1.291  0.332  0.101  0.056  0.105  0.105
 0.748  1.291  0.334  0.102  0.057  0.106  0.106
 0.750  1.291  0.335  0.103  0.059  0.108  0.108
 0.752  1.289  0.337  0.103  0.060  0.110  0.110
 0.754  1.289  0.338  0.104  0.062  0.111  0.111
 0.756  1.289  0.339  0.105  0.063  0.113  0.113
 0.758  1.289  0.341  0.106  0.064  0.115  0.115
 0.760  1.289  0.342  0.107  0.065  0.117  0.117
 0.762  1.289  0.345  0.109  0.067  0.119  0.119
 0.764  1.289  0.346  0.110  0.069  0.121  0.121
 0.766  1.289  0.349  0.112  0.071  0.124  0.124
 0.768  1.289  0.352  0.113  0.073  0.126  0.126
 0.770  1.289  0.355  0.115  0.075  0.129  0.129
 0.772  1.289  0.358  0.117  0.077  0.131  0.131
 0.774  1.289  0.360  0.119  0.080  0.135  0.135
 0.776  1.288  0.363  0.121  0.082  0.138  0.138
 0.778  1.288  0.367  0.123  0.085  0.140  0.140
 0.780  1.288  0.370  0.126  0.088  0.145  0.145
 0.782  1.288  0.375  0.128  0.090  0.148  0.148
 0.784  1.288  0.379  0.131  0.093  0.151  0.151
 0.786  1.288  0.383  0.133  0.096  0.156  0.156
 0.788  1.288  0.387  0.136  0.098  0.159  0.159
 0.790  1.289  0.390  0.138  0.102  0.163  0.163
 0.792  1.289  0.394  0.141  0.104  0.167  0.167
 0.794  1.291  0.398  0.144  0.107  0.171  0.171
 0.796  1.291  0.403  0.147  0.111  0.176  0.176
 0.798  1.292  0.407  0.149  0.113  0.180  0.180
 0.800  1.293  0.411  0.152  0.117  0.185  0.185
 0.802  1.294  0.415  0.155  0.120  0.189  0.189
 0.804  1.296  0.420  0.158  0.123  0.194  0.194
 0.806  1.297  0.422  0.161  0.127  0.199  0.199
 0.808  1.299  0.427  0.163  0.130  0.204  0.204
