# IsPeriodic    : True
# Period        : 0.465234 days
# Normalization : <g_mag>=0
# 
# Phase u_mag  g_mag  r_mag  i_mag  z_mag  y_mag
 0.000  0.425 -0.811 -0.725 -0.550 -0.462 -0.462
 0.002  0.425 -0.811 -0.725 -0.550 -0.462 -0.462
 0.004  0.426 -0.810 -0.723 -0.550 -0.462 -0.462
 0.006  0.428 -0.808 -0.721 -0.549 -0.461 -0.461
 0.008  0.430 -0.807 -0.718 -0.548 -0.461 -0.461
 0.010  0.431 -0.804 -0.714 -0.547 -0.460 -0.460
 0.012  0.435 -0.802 -0.710 -0.547 -0.460 -0.460
 0.014  0.437 -0.799 -0.705 -0.545 -0.459 -0.459
 0.016  0.441 -0.796 -0.700 -0.543 -0.458 -0.458
 0.018  0.445 -0.794 -0.696 -0.542 -0.457 -0.457
 0.020  0.449 -0.790 -0.691 -0.540 -0.456 -0.456
 0.022  0.452 -0.786 -0.685 -0.539 -0.455 -0.455
 0.024  0.456 -0.782 -0.679 -0.537 -0.454 -0.454
 0.026  0.461 -0.779 -0.675 -0.535 -0.452 -0.452
 0.028  0.465 -0.775 -0.670 -0.533 -0.450 -0.450
 0.030  0.469 -0.770 -0.665 -0.530 -0.449 -0.449
 0.032  0.473 -0.766 -0.660 -0.528 -0.447 -0.447
 0.034  0.477 -0.762 -0.655 -0.526 -0.445 -0.445
 0.036  0.481 -0.758 -0.650 -0.523 -0.443 -0.443
 0.038  0.486 -0.752 -0.646 -0.520 -0.441 -0.441
 0.040  0.491 -0.747 -0.641 -0.518 -0.439 -0.439
 0.042  0.495 -0.743 -0.637 -0.515 -0.436 -0.436
 0.044  0.500 -0.737 -0.632 -0.512 -0.434 -0.434
 0.046  0.504 -0.732 -0.627 -0.509 -0.431 -0.431
 0.048  0.509 -0.727 -0.623 -0.506 -0.428 -0.428
 0.050  0.514 -0.720 -0.618 -0.503 -0.425 -0.425
 0.052  0.519 -0.715 -0.613 -0.499 -0.422 -0.422
 0.054  0.526 -0.708 -0.607 -0.495 -0.419 -0.419
 0.056  0.531 -0.701 -0.602 -0.491 -0.416 -0.416
 0.058  0.537 -0.696 -0.598 -0.487 -0.413 -0.413
 0.060  0.542 -0.688 -0.592 -0.483 -0.409 -0.409
 0.062  0.548 -0.681 -0.587 -0.479 -0.405 -0.405
 0.064  0.554 -0.675 -0.582 -0.475 -0.402 -0.402
 0.066  0.560 -0.668 -0.576 -0.470 -0.398 -0.398
 0.068  0.567 -0.660 -0.572 -0.466 -0.394 -0.394
 0.070  0.573 -0.652 -0.567 -0.461 -0.390 -0.390
 0.072  0.580 -0.645 -0.562 -0.456 -0.386 -0.386
 0.074  0.586 -0.637 -0.557 -0.452 -0.382 -0.382
 0.076  0.593 -0.629 -0.551 -0.447 -0.378 -0.378
 0.078  0.600 -0.621 -0.547 -0.443 -0.374 -0.374
 0.080  0.606 -0.613 -0.542 -0.438 -0.370 -0.370
 0.082  0.612 -0.605 -0.537 -0.433 -0.366 -0.366
 0.084  0.620 -0.597 -0.532 -0.429 -0.362 -0.362
 0.086  0.626 -0.590 -0.527 -0.424 -0.359 -0.359
 0.088  0.632 -0.582 -0.523 -0.419 -0.355 -0.355
 0.090  0.640 -0.574 -0.517 -0.415 -0.351 -0.351
 0.092  0.646 -0.567 -0.512 -0.411 -0.348 -0.348
 0.094  0.652 -0.559 -0.507 -0.406 -0.344 -0.344
 0.096  0.660 -0.553 -0.502 -0.402 -0.342 -0.342
 0.098  0.666 -0.546 -0.498 -0.399 -0.338 -0.338
 0.100  0.672 -0.538 -0.493 -0.394 -0.335 -0.335
 0.102  0.678 -0.531 -0.488 -0.390 -0.332 -0.332
 0.104  0.684 -0.524 -0.483 -0.386 -0.329 -0.329
 0.106  0.692 -0.518 -0.478 -0.383 -0.326 -0.326
 0.108  0.698 -0.511 -0.474 -0.379 -0.323 -0.323
 0.110  0.704 -0.504 -0.469 -0.376 -0.320 -0.320
 0.112  0.710 -0.498 -0.465 -0.372 -0.318 -0.318
 0.114  0.717 -0.491 -0.460 -0.369 -0.315 -0.315
 0.116  0.723 -0.486 -0.455 -0.365 -0.312 -0.312
 0.118  0.729 -0.479 -0.451 -0.362 -0.309 -0.309
 0.120  0.735 -0.474 -0.447 -0.358 -0.307 -0.307
 0.122  0.741 -0.467 -0.442 -0.355 -0.305 -0.305
 0.124  0.746 -0.462 -0.437 -0.352 -0.303 -0.303
 0.126  0.753 -0.455 -0.433 -0.349 -0.300 -0.300
 0.128  0.759 -0.449 -0.428 -0.345 -0.298 -0.298
 0.130  0.765 -0.444 -0.425 -0.342 -0.296 -0.296
 0.132  0.771 -0.439 -0.420 -0.340 -0.294 -0.294
 0.134  0.776 -0.433 -0.416 -0.337 -0.292 -0.292
 0.136  0.782 -0.428 -0.411 -0.334 -0.290 -0.290
 0.138  0.789 -0.423 -0.407 -0.332 -0.288 -0.288
 0.140  0.794 -0.417 -0.403 -0.329 -0.287 -0.287
 0.142  0.800 -0.412 -0.399 -0.326 -0.285 -0.285
 0.144  0.806 -0.407 -0.395 -0.324 -0.284 -0.284
 0.146  0.811 -0.403 -0.390 -0.322 -0.281 -0.281
 0.148  0.817 -0.397 -0.386 -0.319 -0.280 -0.280
 0.150  0.822 -0.392 -0.382 -0.316 -0.278 -0.278
 0.152  0.828 -0.386 -0.378 -0.314 -0.277 -0.277
 0.154  0.833 -0.382 -0.375 -0.312 -0.275 -0.275
 0.156  0.839 -0.377 -0.370 -0.309 -0.273 -0.273
 0.158  0.844 -0.373 -0.366 -0.307 -0.272 -0.272
 0.160  0.849 -0.368 -0.362 -0.305 -0.270 -0.270
 0.162  0.856 -0.362 -0.358 -0.302 -0.269 -0.269
 0.164  0.861 -0.358 -0.354 -0.300 -0.267 -0.267
 0.166  0.865 -0.353 -0.351 -0.298 -0.265 -0.265
 0.168  0.872 -0.348 -0.347 -0.295 -0.264 -0.264
 0.170  0.877 -0.342 -0.343 -0.293 -0.262 -0.262
 0.172  0.882 -0.338 -0.339 -0.291 -0.260 -0.260
 0.174  0.887 -0.333 -0.335 -0.288 -0.258 -0.258
 0.176  0.892 -0.328 -0.332 -0.286 -0.257 -0.257
 0.178  0.898 -0.322 -0.328 -0.284 -0.255 -0.255
 0.180  0.903 -0.317 -0.325 -0.282 -0.253 -0.253
 0.182  0.908 -0.313 -0.321 -0.279 -0.251 -0.251
 0.184  0.913 -0.307 -0.317 -0.277 -0.249 -0.249
 0.186  0.918 -0.302 -0.314 -0.275 -0.248 -0.248
 0.188  0.923 -0.297 -0.310 -0.273 -0.246 -0.246
 0.190  0.928 -0.291 -0.306 -0.271 -0.245 -0.245
 0.192  0.932 -0.286 -0.303 -0.268 -0.243 -0.243
 0.194  0.936 -0.281 -0.300 -0.266 -0.240 -0.240
 0.196  0.941 -0.277 -0.296 -0.264 -0.239 -0.239
 0.198  0.946 -0.271 -0.293 -0.261 -0.237 -0.237
 0.200  0.951 -0.266 -0.289 -0.259 -0.236 -0.236
 0.202  0.956 -0.261 -0.286 -0.258 -0.234 -0.234
 0.204  0.960 -0.255 -0.282 -0.255 -0.232 -0.232
 0.206  0.965 -0.250 -0.279 -0.253 -0.230 -0.230
 0.208  0.970 -0.244 -0.276 -0.251 -0.228 -0.228
 0.210  0.973 -0.239 -0.273 -0.248 -0.226 -0.226
 0.212  0.978 -0.234 -0.270 -0.247 -0.224 -0.224
 0.214  0.983 -0.228 -0.266 -0.245 -0.223 -0.223
 0.216  0.987 -0.223 -0.263 -0.242 -0.221 -0.221
 0.218  0.992 -0.218 -0.260 -0.240 -0.219 -0.219
 0.220  0.996 -0.212 -0.257 -0.238 -0.217 -0.217
 0.222  1.001 -0.207 -0.253 -0.236 -0.215 -0.215
 0.224  1.004 -0.202 -0.251 -0.234 -0.213 -0.213
 0.226  1.009 -0.196 -0.248 -0.231 -0.211 -0.211
 0.228  1.013 -0.191 -0.245 -0.230 -0.210 -0.210
 0.230  1.018 -0.186 -0.242 -0.228 -0.208 -0.208
 0.232  1.022 -0.182 -0.239 -0.225 -0.206 -0.206
 0.234  1.026 -0.176 -0.236 -0.224 -0.204 -0.204
 0.236  1.030 -0.171 -0.233 -0.221 -0.202 -0.202
 0.238  1.034 -0.165 -0.230 -0.219 -0.200 -0.200
 0.240  1.038 -0.161 -0.227 -0.218 -0.199 -0.199
 0.242  1.043 -0.156 -0.225 -0.215 -0.197 -0.197
 0.244  1.047 -0.152 -0.222 -0.213 -0.195 -0.195
 0.246  1.050 -0.147 -0.219 -0.211 -0.193 -0.193
 0.248  1.055 -0.141 -0.216 -0.209 -0.191 -0.191
 0.250  1.059 -0.137 -0.213 -0.208 -0.190 -0.190
 0.252  1.063 -0.132 -0.210 -0.205 -0.188 -0.188
 0.254  1.068 -0.128 -0.207 -0.204 -0.187 -0.187
 0.256  1.071 -0.124 -0.204 -0.201 -0.184 -0.184
 0.258  1.075 -0.119 -0.202 -0.199 -0.183 -0.183
 0.260  1.079 -0.115 -0.200 -0.198 -0.181 -0.181
 0.262  1.084 -0.111 -0.197 -0.195 -0.179 -0.179
 0.264  1.088 -0.105 -0.194 -0.194 -0.178 -0.178
 0.266  1.091 -0.101 -0.191 -0.191 -0.176 -0.176
 0.268  1.095 -0.097 -0.189 -0.190 -0.174 -0.174
 0.270  1.099 -0.093 -0.186 -0.188 -0.172 -0.172
 0.272  1.104 -0.089 -0.183 -0.186 -0.171 -0.171
 0.274  1.107 -0.085 -0.181 -0.184 -0.169 -0.169
 0.276  1.111 -0.081 -0.178 -0.182 -0.167 -0.167
 0.278  1.115 -0.077 -0.176 -0.181 -0.165 -0.165
 0.280  1.119 -0.073 -0.174 -0.178 -0.164 -0.164
 0.282  1.122 -0.069 -0.171 -0.177 -0.162 -0.162
 0.284  1.126 -0.065 -0.169 -0.174 -0.161 -0.161
 0.286  1.130 -0.061 -0.166 -0.173 -0.159 -0.159
 0.288  1.133 -0.057 -0.164 -0.171 -0.157 -0.157
 0.290  1.137 -0.053 -0.161 -0.169 -0.156 -0.156
 0.292  1.141 -0.050 -0.159 -0.168 -0.154 -0.154
 0.294  1.146 -0.046 -0.156 -0.165 -0.152 -0.152
 0.296  1.150 -0.042 -0.154 -0.164 -0.150 -0.150
 0.298  1.153 -0.038 -0.152 -0.162 -0.149 -0.149
 0.300  1.157 -0.034 -0.150 -0.160 -0.148 -0.148
 0.302  1.161 -0.031 -0.148 -0.158 -0.146 -0.146
 0.304  1.164 -0.027 -0.145 -0.156 -0.144 -0.144
 0.306  1.168 -0.023 -0.143 -0.154 -0.142 -0.142
 0.308  1.171 -0.019 -0.140 -0.153 -0.141 -0.141
 0.310  1.174 -0.015 -0.138 -0.151 -0.139 -0.139
 0.312  1.178 -0.011 -0.135 -0.149 -0.137 -0.137
 0.314  1.182 -0.007 -0.133 -0.147 -0.136 -0.136
 0.316  1.186 -0.005 -0.130 -0.145 -0.135 -0.135
 0.318  1.189 -0.001 -0.128 -0.143 -0.133 -0.133
 0.320  1.193  0.003 -0.126 -0.141 -0.131 -0.131
 0.322  1.197  0.007 -0.124 -0.139 -0.130 -0.130
 0.324  1.200  0.011 -0.121 -0.137 -0.128 -0.128
 0.326  1.204  0.015 -0.119 -0.135 -0.126 -0.126
 0.328  1.208  0.019 -0.116 -0.134 -0.125 -0.125
 0.330  1.212  0.023 -0.114 -0.131 -0.123 -0.123
 0.332  1.215  0.027 -0.111 -0.130 -0.122 -0.122
 0.334  1.218  0.031 -0.108 -0.127 -0.120 -0.120
 0.336  1.222  0.035 -0.106 -0.126 -0.118 -0.118
 0.338  1.225  0.040 -0.103 -0.124 -0.117 -0.117
 0.340  1.229  0.044 -0.101 -0.122 -0.115 -0.115
 0.342  1.233  0.048 -0.099 -0.120 -0.114 -0.114
 0.344  1.236  0.052 -0.096 -0.117 -0.112 -0.112
 0.346  1.240  0.056 -0.094 -0.116 -0.111 -0.111
 0.348  1.243  0.060 -0.091 -0.114 -0.109 -0.109
 0.350  1.246  0.064 -0.089 -0.112 -0.108 -0.108
 0.352  1.250  0.068 -0.086 -0.110 -0.106 -0.106
 0.354  1.254  0.072 -0.083 -0.108 -0.105 -0.105
 0.356  1.257  0.076 -0.080 -0.106 -0.103 -0.103
 0.358  1.260  0.080 -0.078 -0.104 -0.102 -0.102
 0.360  1.264  0.084 -0.076 -0.102 -0.100 -0.100
 0.362  1.267  0.088 -0.073 -0.100 -0.098 -0.098
 0.364  1.271  0.092 -0.071 -0.098 -0.097 -0.097
 0.366  1.275  0.096 -0.068 -0.096 -0.096 -0.096
 0.368  1.277  0.100 -0.065 -0.094 -0.094 -0.094
 0.370  1.281  0.104 -0.063 -0.092 -0.092 -0.092
 0.372  1.285  0.108 -0.060 -0.090 -0.091 -0.091
 0.374  1.287  0.112 -0.057 -0.088 -0.089 -0.089
 0.376  1.291  0.116 -0.054 -0.086 -0.087 -0.087
 0.378  1.295  0.119 -0.052 -0.084 -0.086 -0.086
 0.380  1.297  0.123 -0.050 -0.082 -0.085 -0.085
 0.382  1.301  0.127 -0.047 -0.080 -0.083 -0.083
 0.384  1.305  0.131 -0.045 -0.078 -0.081 -0.081
 0.386  1.307  0.135 -0.042 -0.077 -0.080 -0.080
 0.388  1.311  0.137 -0.039 -0.074 -0.078 -0.078
 0.390  1.315  0.141 -0.037 -0.073 -0.077 -0.077
 0.392  1.317  0.145 -0.034 -0.070 -0.075 -0.075
 0.394  1.321  0.148 -0.031 -0.069 -0.073 -0.073
 0.396  1.323  0.152 -0.029 -0.067 -0.072 -0.072
 0.398  1.327  0.156 -0.026 -0.065 -0.070 -0.070
 0.400  1.329  0.159 -0.024 -0.064 -0.068 -0.068
 0.402  1.333  0.163 -0.022 -0.061 -0.067 -0.067
 0.404  1.336  0.165 -0.019 -0.060 -0.065 -0.065
 0.406  1.339  0.169 -0.016 -0.058 -0.064 -0.064
 0.408  1.342  0.172 -0.014 -0.056 -0.062 -0.062
 0.410  1.346  0.176 -0.011 -0.054 -0.060 -0.060
 0.412  1.348  0.179 -0.009 -0.053 -0.059 -0.059
 0.414  1.352  0.182 -0.006 -0.050 -0.057 -0.057
 0.416  1.354  0.186 -0.003 -0.049 -0.055 -0.055
 0.418  1.357  0.188 -0.001 -0.047 -0.054 -0.054
 0.420  1.360  0.191  0.001 -0.045 -0.052 -0.052
 0.422  1.363  0.195  0.003 -0.043 -0.051 -0.051
 0.424  1.367  0.198  0.006 -0.042 -0.049 -0.049
 0.426  1.369  0.200  0.009 -0.040 -0.047 -0.047
 0.428  1.372  0.203  0.011 -0.038 -0.045 -0.045
 0.430  1.375  0.207  0.014 -0.037 -0.044 -0.044
 0.432  1.378  0.210  0.016 -0.035 -0.042 -0.042
 0.434  1.380  0.212  0.019 -0.033 -0.040 -0.040
 0.436  1.383  0.215  0.022 -0.032 -0.039 -0.039
 0.438  1.386  0.218  0.024 -0.030 -0.037 -0.037
 0.440  1.389  0.220  0.026 -0.028 -0.036 -0.036
 0.442  1.391  0.223  0.028 -0.027 -0.034 -0.034
 0.444  1.394  0.226  0.031 -0.025 -0.032 -0.032
 0.446  1.396  0.228  0.033 -0.023 -0.031 -0.031
 0.448  1.399  0.231  0.035 -0.021 -0.029 -0.029
 0.450  1.403  0.234  0.038 -0.020 -0.027 -0.027
 0.452  1.405  0.236  0.040 -0.018 -0.026 -0.026
 0.454  1.408  0.239  0.042 -0.017 -0.024 -0.024
 0.456  1.410  0.242  0.045 -0.014 -0.023 -0.023
 0.458  1.413  0.244  0.047 -0.013 -0.021 -0.021
 0.460  1.415  0.246  0.049 -0.011 -0.019 -0.019
 0.462  1.418  0.248  0.050 -0.010 -0.018 -0.018
 0.464  1.420  0.251  0.053 -0.007 -0.016 -0.016
 0.466  1.421  0.254  0.055 -0.006 -0.015 -0.015
 0.468  1.424  0.257  0.057 -0.004 -0.013 -0.013
 0.470  1.426  0.258  0.059 -0.003 -0.012 -0.012
 0.472  1.429  0.261  0.061 -0.001 -0.010 -0.010
 0.474  1.431  0.263  0.063  0.001 -0.009 -0.009
 0.476  1.434  0.265  0.065  0.003 -0.007 -0.007
 0.478  1.435  0.267  0.067  0.004 -0.006 -0.006
 0.480  1.437  0.270  0.069  0.006 -0.004 -0.004
 0.482  1.440  0.271  0.071  0.007 -0.003 -0.003
 0.484  1.441  0.274  0.072  0.010 -0.001 -0.001
 0.486  1.444  0.275  0.074  0.011 -0.000 -0.000
 0.488  1.446  0.278  0.075  0.013  0.002  0.002
 0.490  1.447  0.279  0.077  0.014  0.003  0.003
 0.492  1.450  0.282  0.079  0.017  0.005  0.005
 0.494  1.451  0.283  0.080  0.018  0.006  0.006
 0.496  1.453  0.286  0.082  0.020  0.007  0.007
 0.498  1.455  0.287  0.084  0.021  0.009  0.009
 0.500  1.457  0.289  0.085  0.023  0.010  0.010
 0.502  1.458  0.291  0.087  0.025  0.012  0.012
 0.504  1.461  0.293  0.088  0.027  0.013  0.013
 0.506  1.462  0.294  0.090  0.028  0.014  0.014
 0.508  1.463  0.297  0.091  0.030  0.016  0.016
 0.510  1.466  0.298  0.093  0.031  0.017  0.017
 0.512  1.467  0.299  0.094  0.033  0.018  0.018
 0.514  1.468  0.301  0.095  0.034  0.020  0.020
 0.516  1.471  0.303  0.097  0.036  0.021  0.021
 0.518  1.472  0.305  0.098  0.037  0.023  0.023
 0.520  1.473  0.306  0.099  0.039  0.023  0.023
 0.522  1.475  0.307  0.099  0.040  0.025  0.025
 0.524  1.476  0.309  0.101  0.041  0.026  0.026
 0.526  1.478  0.310  0.102  0.043  0.027  0.027
 0.528  1.480  0.311  0.103  0.044  0.029  0.029
 0.530  1.481  0.313  0.104  0.045  0.029  0.029
 0.532  1.482  0.314  0.105  0.047  0.031  0.031
 0.534  1.483  0.317  0.106  0.047  0.032  0.032
 0.536  1.484  0.318  0.107  0.049  0.033  0.033
 0.538  1.486  0.318  0.108  0.050  0.034  0.034
 0.540  1.487  0.319  0.109  0.051  0.035  0.035
 0.542  1.488  0.321  0.110  0.052  0.036  0.036
 0.544  1.488  0.322  0.111  0.053  0.037  0.037
 0.546  1.489  0.324  0.111  0.054  0.038  0.038
 0.548  1.491  0.325  0.112  0.055  0.039  0.039
 0.550  1.492  0.326  0.113  0.056  0.040  0.040
 0.552  1.493  0.328  0.113  0.057  0.041  0.041
 0.554  1.493  0.329  0.114  0.057  0.042  0.042
 0.556  1.494  0.329  0.115  0.058  0.043  0.043
 0.558  1.496  0.330  0.115  0.059  0.044  0.044
 0.560  1.496  0.332  0.116  0.060  0.045  0.045
 0.562  1.497  0.333  0.116  0.061  0.046  0.046
 0.564  1.498  0.333  0.117  0.061  0.046  0.046
 0.566  1.498  0.334  0.117  0.062  0.047  0.047
 0.568  1.499  0.336  0.118  0.063  0.048  0.048
 0.570  1.499  0.336  0.118  0.063  0.049  0.049
 0.572  1.501  0.337  0.118  0.064  0.050  0.050
 0.574  1.501  0.338  0.119  0.064  0.051  0.051
 0.576  1.502  0.338  0.119  0.064  0.051  0.051
 0.578  1.502  0.340  0.119  0.065  0.053  0.053
 0.580  1.503  0.340  0.119  0.066  0.053  0.053
 0.582  1.503  0.341  0.119  0.066  0.054  0.054
 0.584  1.503  0.341  0.120  0.067  0.055  0.055
 0.586  1.504  0.342  0.120  0.067  0.055  0.055
 0.588  1.504  0.342  0.120  0.067  0.056  0.056
 0.590  1.504  0.344  0.120  0.067  0.057  0.057
 0.592  1.506  0.344  0.120  0.068  0.057  0.057
 0.594  1.506  0.344  0.120  0.068  0.058  0.058
 0.596  1.506  0.345  0.121  0.069  0.059  0.059
 0.598  1.506  0.345  0.121  0.069  0.059  0.059
 0.600  1.506  0.345  0.121  0.070  0.060  0.060
 0.602  1.506  0.346  0.121  0.070  0.060  0.060
 0.604  1.507  0.346  0.121  0.071  0.061  0.061
 0.606  1.507  0.346  0.122  0.071  0.061  0.061
 0.608  1.507  0.346  0.122  0.071  0.062  0.062
 0.610  1.507  0.348  0.122  0.071  0.063  0.063
 0.612  1.507  0.348  0.122  0.071  0.063  0.063
 0.614  1.507  0.348  0.123  0.072  0.063  0.063
 0.616  1.507  0.348  0.123  0.072  0.064  0.064
 0.618  1.507  0.348  0.123  0.072  0.065  0.065
 0.620  1.507  0.348  0.123  0.073  0.066  0.066
 0.622  1.507  0.348  0.124  0.073  0.066  0.066
 0.624  1.507  0.349  0.124  0.073  0.066  0.066
 0.626  1.507  0.349  0.124  0.074  0.067  0.067
 0.628  1.506  0.349  0.124  0.074  0.067  0.067
 0.630  1.506  0.348  0.124  0.074  0.068  0.068
 0.632  1.506  0.348  0.124  0.074  0.068  0.068
 0.634  1.506  0.348  0.125  0.074  0.068  0.068
 0.636  1.506  0.348  0.125  0.074  0.069  0.069
 0.638  1.504  0.348  0.125  0.074  0.069  0.069
 0.640  1.504  0.348  0.126  0.074  0.070  0.070
 0.642  1.504  0.348  0.126  0.074  0.070  0.070
 0.644  1.503  0.346  0.126  0.075  0.070  0.070
 0.646  1.503  0.346  0.127  0.075  0.070  0.070
 0.648  1.503  0.346  0.127  0.075  0.071  0.071
 0.650  1.502  0.346  0.127  0.075  0.071  0.071
 0.652  1.502  0.346  0.128  0.075  0.072  0.072
 0.654  1.502  0.346  0.128  0.075  0.072  0.072
 0.656  1.501  0.346  0.128  0.076  0.072  0.072
 0.658  1.501  0.346  0.129  0.076  0.073  0.073
 0.660  1.501  0.346  0.129  0.076  0.073  0.073
 0.662  1.501  0.346  0.129  0.076  0.074  0.074
 0.664  1.499  0.346  0.130  0.076  0.074  0.074
 0.666  1.499  0.346  0.130  0.077  0.074  0.074
 0.668  1.499  0.346  0.130  0.077  0.075  0.075
 0.670  1.499  0.346  0.131  0.077  0.075  0.075
 0.672  1.499  0.348  0.131  0.077  0.076  0.076
 0.674  1.498  0.348  0.131  0.077  0.076  0.076
 0.676  1.498  0.348  0.131  0.077  0.076  0.076
 0.678  1.498  0.349  0.131  0.077  0.077  0.077
 0.680  1.498  0.349  0.131  0.077  0.078  0.078
 0.682  1.498  0.350  0.131  0.077  0.078  0.078
 0.684  1.498  0.350  0.132  0.078  0.079  0.079
 0.686  1.498  0.352  0.132  0.078  0.079  0.079
 0.688  1.498  0.352  0.132  0.078  0.079  0.079
 0.690  1.498  0.353  0.132  0.078  0.080  0.080
 0.692  1.498  0.354  0.132  0.079  0.081  0.081
 0.694  1.498  0.354  0.132  0.079  0.081  0.081
 0.696  1.499  0.356  0.132  0.079  0.081  0.081
 0.698  1.499  0.357  0.132  0.080  0.082  0.082
 0.700  1.499  0.358  0.132  0.080  0.083  0.083
 0.702  1.499  0.360  0.132  0.080  0.083  0.083
 0.704  1.499  0.361  0.132  0.080  0.083  0.083
 0.706  1.501  0.362  0.132  0.081  0.084  0.084
 0.708  1.501  0.364  0.131  0.081  0.085  0.085
 0.710  1.501  0.365  0.131  0.081  0.085  0.085
 0.712  1.501  0.366  0.131  0.081  0.086  0.086
 0.714  1.501  0.368  0.131  0.081  0.086  0.086
 0.716  1.502  0.369  0.131  0.081  0.087  0.087
 0.718  1.502  0.370  0.130  0.082  0.087  0.087
 0.720  1.502  0.372  0.130  0.082  0.088  0.088
 0.722  1.503  0.374  0.130  0.082  0.089  0.089
 0.724  1.504  0.376  0.130  0.083  0.089  0.089
 0.726  1.504  0.378  0.129  0.083  0.090  0.090
 0.728  1.506  0.380  0.129  0.083  0.091  0.091
 0.730  1.507  0.382  0.129  0.084  0.091  0.091
 0.732  1.508  0.385  0.129  0.084  0.092  0.092
 0.734  1.509  0.388  0.130  0.084  0.093  0.093
 0.736  1.512  0.390  0.130  0.084  0.094  0.094
 0.738  1.513  0.393  0.130  0.084  0.094  0.094
 0.740  1.516  0.396  0.131  0.084  0.096  0.096
 0.742  1.518  0.399  0.132  0.084  0.096  0.096
 0.744  1.519  0.401  0.132  0.085  0.097  0.097
 0.746  1.522  0.405  0.133  0.085  0.098  0.098
 0.748  1.525  0.408  0.134  0.085  0.099  0.099
 0.750  1.528  0.412  0.135  0.086  0.100  0.100
 0.752  1.530  0.415  0.136  0.086  0.100  0.100
 0.754  1.533  0.419  0.138  0.086  0.102  0.102
 0.756  1.537  0.421  0.139  0.087  0.102  0.102
 0.758  1.539  0.425  0.140  0.087  0.104  0.104
 0.760  1.543  0.429  0.142  0.087  0.104  0.104
 0.762  1.547  0.432  0.144  0.087  0.106  0.106
 0.764  1.550  0.436  0.146  0.087  0.107  0.107
 0.766  1.554  0.440  0.147  0.087  0.108  0.108
 0.768  1.559  0.445  0.149  0.088  0.109  0.109
 0.770  1.563  0.449  0.151  0.088  0.110  0.110
 0.772  1.568  0.455  0.153  0.088  0.111  0.111
 0.774  1.573  0.459  0.155  0.088  0.112  0.112
 0.776  1.578  0.464  0.158  0.089  0.113  0.113
 0.778  1.582  0.470  0.161  0.089  0.115  0.115
 0.780  1.589  0.475  0.163  0.089  0.116  0.116
 0.782  1.594  0.480  0.166  0.089  0.117  0.117
 0.784  1.600  0.486  0.169  0.089  0.118  0.118
 0.786  1.605  0.491  0.172  0.090  0.120  0.120
 0.788  1.611  0.495  0.174  0.090  0.121  0.121
 0.790  1.616  0.500  0.178  0.091  0.122  0.122
 0.792  1.621  0.504  0.181  0.091  0.124  0.124
 0.794  1.627  0.508  0.184  0.092  0.126  0.126
 0.796  1.632  0.512  0.187  0.093  0.127  0.127
 0.798  1.637  0.516  0.190  0.094  0.128  0.128
 0.800  1.641  0.519  0.194  0.094  0.130  0.130
 0.802  1.646  0.522  0.197  0.096  0.132  0.132
 0.804  1.649  0.524  0.199  0.097  0.134  0.134
 0.806  1.653  0.526  0.202  0.098  0.136  0.136
 0.808  1.656  0.527  0.205  0.101  0.138  0.138
