# IsPeriodic    : True
# Period        : 0.529973 days
# Normalization : <g_mag>=0
# 
# Phase u_mag  g_mag  r_mag  i_mag  z_mag  y_mag
 0.000  0.306 -0.892 -0.727 -0.584 -0.514 -0.514
 0.002  0.306 -0.890 -0.727 -0.584 -0.514 -0.514
 0.004  0.306 -0.889 -0.727 -0.583 -0.513 -0.513
 0.006  0.308 -0.887 -0.726 -0.583 -0.513 -0.513
 0.008  0.309 -0.884 -0.725 -0.581 -0.512 -0.512
 0.010  0.311 -0.880 -0.723 -0.580 -0.511 -0.511
 0.012  0.313 -0.875 -0.721 -0.578 -0.509 -0.509
 0.014  0.315 -0.868 -0.719 -0.576 -0.508 -0.508
 0.016  0.318 -0.862 -0.717 -0.573 -0.506 -0.506
 0.018  0.321 -0.855 -0.715 -0.570 -0.505 -0.505
 0.020  0.325 -0.848 -0.712 -0.568 -0.503 -0.503
 0.022  0.328 -0.842 -0.710 -0.565 -0.501 -0.501
 0.024  0.332 -0.834 -0.707 -0.563 -0.499 -0.499
 0.026  0.337 -0.827 -0.705 -0.560 -0.497 -0.497
 0.028  0.340 -0.820 -0.702 -0.557 -0.494 -0.494
 0.030  0.344 -0.813 -0.699 -0.554 -0.492 -0.492
 0.032  0.349 -0.806 -0.695 -0.551 -0.490 -0.490
 0.034  0.354 -0.800 -0.692 -0.549 -0.488 -0.488
 0.036  0.359 -0.793 -0.688 -0.546 -0.486 -0.486
 0.038  0.364 -0.787 -0.684 -0.543 -0.483 -0.483
 0.040  0.369 -0.780 -0.681 -0.541 -0.481 -0.481
 0.042  0.376 -0.774 -0.677 -0.538 -0.478 -0.478
 0.044  0.382 -0.767 -0.673 -0.535 -0.476 -0.476
 0.046  0.388 -0.760 -0.669 -0.531 -0.474 -0.474
 0.048  0.395 -0.754 -0.664 -0.528 -0.471 -0.471
 0.050  0.401 -0.746 -0.659 -0.525 -0.468 -0.468
 0.052  0.408 -0.739 -0.654 -0.522 -0.465 -0.465
 0.054  0.416 -0.732 -0.649 -0.518 -0.462 -0.462
 0.056  0.424 -0.724 -0.644 -0.515 -0.459 -0.459
 0.058  0.431 -0.717 -0.639 -0.511 -0.456 -0.456
 0.060  0.439 -0.709 -0.633 -0.507 -0.453 -0.453
 0.062  0.447 -0.701 -0.627 -0.503 -0.450 -0.450
 0.064  0.456 -0.693 -0.621 -0.499 -0.446 -0.446
 0.066  0.464 -0.686 -0.616 -0.496 -0.443 -0.443
 0.068  0.474 -0.678 -0.610 -0.492 -0.440 -0.440
 0.070  0.483 -0.670 -0.603 -0.488 -0.436 -0.436
 0.072  0.492 -0.662 -0.597 -0.484 -0.432 -0.432
 0.074  0.502 -0.654 -0.591 -0.480 -0.429 -0.429
 0.076  0.510 -0.646 -0.585 -0.476 -0.426 -0.426
 0.078  0.521 -0.638 -0.578 -0.472 -0.422 -0.422
 0.080  0.529 -0.630 -0.572 -0.468 -0.418 -0.418
 0.082  0.539 -0.623 -0.565 -0.464 -0.415 -0.415
 0.084  0.548 -0.615 -0.559 -0.460 -0.411 -0.411
 0.086  0.557 -0.607 -0.553 -0.456 -0.407 -0.407
 0.088  0.566 -0.599 -0.547 -0.452 -0.404 -0.404
 0.090  0.575 -0.591 -0.541 -0.448 -0.401 -0.401
 0.092  0.584 -0.583 -0.535 -0.444 -0.397 -0.397
 0.094  0.592 -0.577 -0.530 -0.440 -0.394 -0.394
 0.096  0.600 -0.569 -0.524 -0.437 -0.391 -0.391
 0.098  0.609 -0.561 -0.518 -0.434 -0.387 -0.387
 0.100  0.616 -0.553 -0.512 -0.430 -0.385 -0.385
 0.102  0.624 -0.546 -0.507 -0.427 -0.381 -0.381
 0.104  0.631 -0.538 -0.502 -0.423 -0.379 -0.379
 0.106  0.639 -0.531 -0.497 -0.420 -0.375 -0.375
 0.108  0.647 -0.524 -0.492 -0.416 -0.373 -0.373
 0.110  0.654 -0.517 -0.486 -0.413 -0.369 -0.369
 0.112  0.662 -0.510 -0.481 -0.410 -0.367 -0.367
 0.114  0.668 -0.503 -0.477 -0.407 -0.364 -0.364
 0.116  0.676 -0.496 -0.472 -0.404 -0.361 -0.361
 0.118  0.682 -0.490 -0.467 -0.401 -0.359 -0.359
 0.120  0.689 -0.483 -0.462 -0.398 -0.356 -0.356
 0.122  0.696 -0.477 -0.457 -0.395 -0.353 -0.353
 0.124  0.702 -0.470 -0.452 -0.392 -0.351 -0.351
 0.126  0.708 -0.464 -0.449 -0.389 -0.348 -0.348
 0.128  0.715 -0.457 -0.444 -0.386 -0.346 -0.346
 0.130  0.721 -0.450 -0.440 -0.384 -0.343 -0.343
 0.132  0.726 -0.444 -0.436 -0.381 -0.340 -0.340
 0.134  0.732 -0.439 -0.432 -0.379 -0.338 -0.338
 0.136  0.737 -0.432 -0.427 -0.376 -0.336 -0.336
 0.138  0.744 -0.425 -0.423 -0.373 -0.334 -0.334
 0.140  0.749 -0.420 -0.420 -0.371 -0.332 -0.332
 0.142  0.754 -0.414 -0.417 -0.369 -0.330 -0.330
 0.144  0.759 -0.408 -0.413 -0.366 -0.328 -0.328
 0.146  0.764 -0.402 -0.409 -0.364 -0.326 -0.326
 0.148  0.769 -0.397 -0.405 -0.362 -0.324 -0.324
 0.150  0.774 -0.391 -0.401 -0.359 -0.322 -0.322
 0.152  0.779 -0.386 -0.398 -0.358 -0.320 -0.320
 0.154  0.784 -0.380 -0.394 -0.356 -0.318 -0.318
 0.156  0.789 -0.374 -0.391 -0.353 -0.316 -0.316
 0.158  0.794 -0.369 -0.388 -0.351 -0.314 -0.314
 0.160  0.799 -0.364 -0.384 -0.349 -0.312 -0.312
 0.162  0.803 -0.358 -0.380 -0.347 -0.310 -0.310
 0.164  0.808 -0.353 -0.377 -0.345 -0.308 -0.308
 0.166  0.813 -0.348 -0.373 -0.343 -0.306 -0.306
 0.168  0.818 -0.343 -0.370 -0.340 -0.304 -0.304
 0.170  0.823 -0.337 -0.366 -0.339 -0.302 -0.302
 0.172  0.828 -0.332 -0.363 -0.336 -0.300 -0.300
 0.174  0.833 -0.326 -0.360 -0.334 -0.298 -0.298
 0.176  0.837 -0.320 -0.356 -0.332 -0.296 -0.296
 0.178  0.842 -0.315 -0.353 -0.330 -0.294 -0.294
 0.180  0.847 -0.310 -0.349 -0.327 -0.292 -0.292
 0.182  0.852 -0.305 -0.345 -0.325 -0.290 -0.290
 0.184  0.857 -0.299 -0.342 -0.323 -0.288 -0.288
 0.186  0.862 -0.294 -0.338 -0.321 -0.286 -0.286
 0.188  0.867 -0.289 -0.335 -0.319 -0.284 -0.284
 0.190  0.871 -0.284 -0.332 -0.317 -0.282 -0.282
 0.192  0.876 -0.278 -0.329 -0.314 -0.280 -0.280
 0.194  0.881 -0.273 -0.325 -0.312 -0.278 -0.278
 0.196  0.886 -0.268 -0.322 -0.310 -0.276 -0.276
 0.198  0.891 -0.263 -0.319 -0.307 -0.274 -0.274
 0.200  0.896 -0.257 -0.315 -0.305 -0.272 -0.272
 0.202  0.900 -0.252 -0.312 -0.303 -0.270 -0.270
 0.204  0.905 -0.247 -0.308 -0.301 -0.268 -0.268
 0.206  0.910 -0.242 -0.306 -0.299 -0.266 -0.266
 0.208  0.915 -0.236 -0.303 -0.297 -0.264 -0.264
 0.210  0.919 -0.231 -0.299 -0.294 -0.262 -0.262
 0.212  0.924 -0.226 -0.296 -0.292 -0.260 -0.260
 0.214  0.929 -0.222 -0.292 -0.290 -0.258 -0.258
 0.216  0.934 -0.217 -0.289 -0.288 -0.256 -0.256
 0.218  0.939 -0.211 -0.286 -0.285 -0.254 -0.254
 0.220  0.943 -0.206 -0.282 -0.283 -0.252 -0.252
 0.222  0.948 -0.201 -0.279 -0.281 -0.250 -0.250
 0.224  0.953 -0.196 -0.277 -0.278 -0.248 -0.248
 0.226  0.957 -0.190 -0.274 -0.276 -0.246 -0.246
 0.228  0.962 -0.185 -0.270 -0.274 -0.245 -0.245
 0.230  0.967 -0.181 -0.267 -0.271 -0.243 -0.243
 0.232  0.970 -0.176 -0.264 -0.269 -0.241 -0.241
 0.234  0.976 -0.171 -0.261 -0.267 -0.239 -0.239
 0.236  0.979 -0.165 -0.258 -0.265 -0.237 -0.237
 0.238  0.984 -0.161 -0.255 -0.263 -0.235 -0.235
 0.240  0.988 -0.156 -0.252 -0.261 -0.233 -0.233
 0.242  0.993 -0.151 -0.249 -0.259 -0.231 -0.231
 0.244  0.997 -0.147 -0.246 -0.256 -0.229 -0.229
 0.246  1.001 -0.142 -0.243 -0.254 -0.227 -0.227
 0.248  1.006 -0.138 -0.240 -0.252 -0.226 -0.226
 0.250  1.010 -0.133 -0.237 -0.250 -0.224 -0.224
 0.252  1.013 -0.127 -0.234 -0.248 -0.222 -0.222
 0.254  1.018 -0.123 -0.231 -0.246 -0.221 -0.221
 0.256  1.022 -0.119 -0.229 -0.244 -0.219 -0.219
 0.258  1.026 -0.114 -0.226 -0.242 -0.217 -0.217
 0.260  1.030 -0.110 -0.223 -0.239 -0.215 -0.215
 0.262  1.033 -0.105 -0.221 -0.238 -0.213 -0.213
 0.264  1.039 -0.101 -0.218 -0.236 -0.212 -0.212
 0.266  1.042 -0.097 -0.215 -0.233 -0.210 -0.210
 0.268  1.046 -0.093 -0.212 -0.232 -0.209 -0.209
 0.270  1.050 -0.088 -0.210 -0.229 -0.207 -0.207
 0.272  1.054 -0.084 -0.207 -0.227 -0.205 -0.205
 0.274  1.057 -0.080 -0.204 -0.226 -0.203 -0.203
 0.276  1.061 -0.076 -0.201 -0.223 -0.202 -0.202
 0.278  1.065 -0.072 -0.199 -0.222 -0.200 -0.200
 0.280  1.069 -0.068 -0.196 -0.220 -0.198 -0.198
 0.282  1.073 -0.063 -0.193 -0.218 -0.196 -0.196
 0.284  1.075 -0.059 -0.192 -0.216 -0.195 -0.195
 0.286  1.079 -0.055 -0.189 -0.214 -0.194 -0.194
 0.288  1.083 -0.051 -0.186 -0.212 -0.192 -0.192
 0.290  1.086 -0.047 -0.184 -0.210 -0.190 -0.190
 0.292  1.090 -0.045 -0.181 -0.208 -0.188 -0.188
 0.294  1.094 -0.041 -0.179 -0.207 -0.187 -0.187
 0.296  1.096 -0.037 -0.176 -0.204 -0.186 -0.186
 0.298  1.100 -0.033 -0.174 -0.203 -0.184 -0.184
 0.300  1.104 -0.029 -0.171 -0.201 -0.182 -0.182
 0.302  1.108 -0.025 -0.168 -0.199 -0.181 -0.181
 0.304  1.110 -0.021 -0.166 -0.197 -0.179 -0.179
 0.306  1.114 -0.017 -0.164 -0.195 -0.178 -0.178
 0.308  1.118 -0.014 -0.162 -0.194 -0.176 -0.176
 0.310  1.122 -0.010 -0.159 -0.191 -0.174 -0.174
 0.312  1.124 -0.006 -0.157 -0.190 -0.173 -0.173
 0.314  1.128 -0.003 -0.154 -0.187 -0.172 -0.172
 0.316  1.132  0.001 -0.151 -0.186 -0.170 -0.170
 0.318  1.136  0.005 -0.149 -0.184 -0.168 -0.168
 0.320  1.138  0.008 -0.146 -0.182 -0.167 -0.167
 0.322  1.142  0.012 -0.144 -0.181 -0.165 -0.165
 0.324  1.146  0.016 -0.141 -0.178 -0.164 -0.164
 0.326  1.148  0.020 -0.138 -0.177 -0.162 -0.162
 0.328  1.152  0.024 -0.136 -0.174 -0.160 -0.160
 0.330  1.156  0.026 -0.134 -0.173 -0.159 -0.159
 0.332  1.160  0.030 -0.132 -0.171 -0.158 -0.158
 0.334  1.162  0.034 -0.129 -0.169 -0.156 -0.156
 0.336  1.166  0.038 -0.127 -0.167 -0.154 -0.154
 0.338  1.170  0.042 -0.124 -0.165 -0.153 -0.153
 0.340  1.172  0.045 -0.122 -0.163 -0.152 -0.152
 0.342  1.176  0.049 -0.119 -0.161 -0.150 -0.150
 0.344  1.178  0.053 -0.116 -0.159 -0.148 -0.148
 0.346  1.182  0.057 -0.114 -0.158 -0.147 -0.147
 0.348  1.186  0.059 -0.111 -0.155 -0.145 -0.145
 0.350  1.188  0.063 -0.109 -0.154 -0.144 -0.144
 0.352  1.192  0.067 -0.107 -0.151 -0.142 -0.142
 0.354  1.196  0.071 -0.105 -0.150 -0.140 -0.140
 0.356  1.199  0.074 -0.102 -0.148 -0.139 -0.139
 0.358  1.202  0.078 -0.099 -0.146 -0.138 -0.138
 0.360  1.205  0.082 -0.097 -0.144 -0.136 -0.136
 0.362  1.209  0.084 -0.094 -0.142 -0.134 -0.134
 0.364  1.212  0.088 -0.092 -0.140 -0.133 -0.133
 0.366  1.215  0.092 -0.089 -0.138 -0.132 -0.132
 0.368  1.219  0.096 -0.087 -0.136 -0.130 -0.130
 0.370  1.221  0.099 -0.084 -0.135 -0.128 -0.128
 0.372  1.225  0.103 -0.082 -0.132 -0.127 -0.127
 0.374  1.228  0.107 -0.079 -0.131 -0.125 -0.125
 0.376  1.231  0.109 -0.078 -0.129 -0.123 -0.123
 0.378  1.234  0.113 -0.075 -0.127 -0.121 -0.121
 0.380  1.238  0.117 -0.073 -0.125 -0.120 -0.120
 0.382  1.240  0.121 -0.070 -0.123 -0.119 -0.119
 0.384  1.244  0.124 -0.068 -0.122 -0.117 -0.117
 0.386  1.246  0.128 -0.065 -0.119 -0.115 -0.115
 0.388  1.250  0.131 -0.063 -0.118 -0.113 -0.113
 0.390  1.253  0.135 -0.060 -0.116 -0.112 -0.112
 0.392  1.257  0.138 -0.058 -0.114 -0.110 -0.110
 0.394  1.259  0.142 -0.055 -0.112 -0.109 -0.109
 0.396  1.263  0.146 -0.053 -0.110 -0.107 -0.107
 0.398  1.265  0.150 -0.050 -0.109 -0.105 -0.105
 0.400  1.269  0.152 -0.049 -0.106 -0.103 -0.103
 0.402  1.272  0.156 -0.046 -0.105 -0.102 -0.102
 0.404  1.275  0.160 -0.044 -0.103 -0.100 -0.100
 0.406  1.278  0.164 -0.041 -0.101 -0.099 -0.099
 0.408  1.280  0.168 -0.039 -0.099 -0.097 -0.097
 0.410  1.284  0.171 -0.036 -0.097 -0.095 -0.095
 0.412  1.287  0.175 -0.034 -0.096 -0.093 -0.093
 0.414  1.289  0.179 -0.031 -0.093 -0.091 -0.091
 0.416  1.293  0.183 -0.029 -0.092 -0.090 -0.090
 0.418  1.296  0.187 -0.027 -0.090 -0.088 -0.088
 0.420  1.299  0.189 -0.024 -0.088 -0.086 -0.086
 0.422  1.302  0.193 -0.022 -0.086 -0.085 -0.085
 0.424  1.304  0.197 -0.020 -0.084 -0.083 -0.083
 0.426  1.308  0.201 -0.018 -0.083 -0.081 -0.081
 0.428  1.311  0.205 -0.015 -0.081 -0.079 -0.079
 0.430  1.313  0.209 -0.013 -0.079 -0.077 -0.077
 0.432  1.316  0.212 -0.011 -0.077 -0.075 -0.075
 0.434  1.320  0.216 -0.008 -0.075 -0.074 -0.074
 0.436  1.322  0.219 -0.006 -0.073 -0.072 -0.072
 0.438  1.325  0.223 -0.003 -0.072 -0.070 -0.070
 0.440  1.327  0.227 -0.001 -0.070 -0.069 -0.069
 0.442  1.331  0.231  0.001 -0.068 -0.067 -0.067
 0.444  1.333  0.234  0.004 -0.067 -0.065 -0.065
 0.446  1.336  0.238  0.006 -0.064 -0.063 -0.063
 0.448  1.338  0.242  0.007 -0.063 -0.061 -0.061
 0.450  1.341  0.244  0.009 -0.061 -0.060 -0.060
 0.452  1.343  0.248  0.012 -0.060 -0.058 -0.058
 0.454  1.346  0.251  0.014 -0.057 -0.057 -0.057
 0.456  1.349  0.254  0.016 -0.056 -0.054 -0.054
 0.458  1.351  0.258  0.018 -0.054 -0.053 -0.053
 0.460  1.354  0.260  0.021 -0.052 -0.051 -0.051
 0.462  1.356  0.263  0.023 -0.051 -0.050 -0.050
 0.464  1.359  0.265  0.025 -0.049 -0.048 -0.048
 0.466  1.361  0.268  0.027 -0.047 -0.046 -0.046
 0.468  1.364  0.271  0.029 -0.046 -0.045 -0.045
 0.470  1.366  0.273  0.031 -0.044 -0.044 -0.044
 0.472  1.369  0.276  0.034 -0.042 -0.042 -0.042
 0.474  1.371  0.279  0.036 -0.041 -0.040 -0.040
 0.476  1.374  0.281  0.037 -0.039 -0.039 -0.039
 0.478  1.375  0.284  0.039 -0.038 -0.038 -0.038
 0.480  1.378  0.285  0.041 -0.035 -0.036 -0.036
 0.482  1.380  0.288  0.043 -0.034 -0.034 -0.034
 0.484  1.383  0.290  0.045 -0.032 -0.033 -0.033
 0.486  1.384  0.292  0.047 -0.031 -0.032 -0.032
 0.488  1.386  0.294  0.049 -0.029 -0.030 -0.030
 0.490  1.389  0.296  0.051 -0.028 -0.029 -0.029
 0.492  1.390  0.297  0.053 -0.026 -0.028 -0.028
 0.494  1.393  0.300  0.055 -0.025 -0.026 -0.026
 0.496  1.395  0.301  0.057 -0.022 -0.025 -0.025
 0.498  1.396  0.302  0.059 -0.021 -0.024 -0.024
 0.500  1.399  0.304  0.061 -0.019 -0.022 -0.022
 0.502  1.400  0.305  0.063 -0.018 -0.021 -0.021
 0.504  1.403  0.306  0.064 -0.016 -0.020 -0.020
 0.506  1.404  0.307  0.066 -0.015 -0.018 -0.018
 0.508  1.407  0.309  0.067 -0.013 -0.017 -0.017
 0.510  1.408  0.310  0.069 -0.012 -0.016 -0.016
 0.512  1.410  0.311  0.071 -0.010 -0.015 -0.015
 0.514  1.412  0.313  0.073 -0.008 -0.014 -0.014
 0.516  1.413  0.313  0.074 -0.007 -0.012 -0.012
 0.518  1.414  0.314  0.076 -0.006 -0.011 -0.011
 0.520  1.417  0.315  0.078 -0.005 -0.010 -0.010
 0.522  1.418  0.315  0.079 -0.003 -0.009 -0.009
 0.524  1.419  0.317  0.081 -0.002 -0.008 -0.008
 0.526  1.420  0.318  0.082 -0.001 -0.007 -0.007
 0.528  1.422  0.319  0.084  0.001 -0.006 -0.006
 0.530  1.423  0.319  0.085  0.001 -0.005 -0.005
 0.532  1.424  0.321  0.087  0.003 -0.004 -0.004
 0.534  1.425  0.321  0.088  0.004 -0.002 -0.002
 0.536  1.427  0.322  0.090  0.005 -0.002 -0.002
 0.538  1.428  0.323  0.091  0.006 -0.000 -0.000
 0.540  1.429  0.323  0.092  0.008  0.000  0.000
 0.542  1.430  0.325  0.093  0.008  0.002  0.002
 0.544  1.432  0.326  0.094  0.009  0.002  0.002
 0.546  1.433  0.326  0.095  0.011  0.003  0.003
 0.548  1.434  0.327  0.096  0.011  0.004  0.004
 0.550  1.434  0.327  0.097  0.012  0.005  0.005
 0.552  1.435  0.329  0.099  0.013  0.006  0.006
 0.554  1.437  0.329  0.100  0.014  0.007  0.007
 0.556  1.437  0.330  0.101  0.014  0.008  0.008
 0.558  1.438  0.330  0.102  0.015  0.008  0.008
 0.560  1.438  0.331  0.103  0.016  0.010  0.010
 0.562  1.439  0.331  0.104  0.017  0.010  0.010
 0.564  1.439  0.332  0.105  0.018  0.011  0.011
 0.566  1.441  0.332  0.106  0.018  0.012  0.012
 0.568  1.441  0.332  0.107  0.019  0.012  0.012
 0.570  1.442  0.334  0.107  0.019  0.014  0.014
 0.572  1.442  0.334  0.108  0.020  0.014  0.014
 0.574  1.442  0.335  0.109  0.021  0.015  0.015
 0.576  1.443  0.335  0.110  0.021  0.016  0.016
 0.578  1.443  0.335  0.110  0.021  0.017  0.017
 0.580  1.443  0.336  0.111  0.022  0.017  0.017
 0.582  1.443  0.336  0.112  0.022  0.018  0.018
 0.584  1.444  0.336  0.112  0.023  0.019  0.019
 0.586  1.444  0.338  0.113  0.024  0.019  0.019
 0.588  1.444  0.338  0.113  0.024  0.020  0.020
 0.590  1.444  0.338  0.114  0.024  0.021  0.021
 0.592  1.444  0.338  0.114  0.024  0.021  0.021
 0.594  1.446  0.339  0.115  0.025  0.022  0.022
 0.596  1.446  0.339  0.115  0.025  0.022  0.022
 0.598  1.446  0.339  0.116  0.026  0.023  0.023
 0.600  1.446  0.339  0.116  0.026  0.023  0.023
 0.602  1.446  0.340  0.116  0.027  0.024  0.024
 0.604  1.446  0.340  0.116  0.027  0.025  0.025
 0.606  1.446  0.340  0.117  0.027  0.025  0.025
 0.608  1.446  0.340  0.117  0.027  0.025  0.025
 0.610  1.446  0.340  0.117  0.028  0.026  0.026
 0.612  1.446  0.342  0.117  0.028  0.027  0.027
 0.614  1.446  0.342  0.117  0.029  0.027  0.027
 0.616  1.446  0.342  0.117  0.029  0.027  0.027
 0.618  1.446  0.342  0.117  0.030  0.028  0.028
 0.620  1.446  0.342  0.117  0.030  0.029  0.029
 0.622  1.446  0.342  0.117  0.030  0.029  0.029
 0.624  1.446  0.342  0.117  0.030  0.029  0.029
 0.626  1.444  0.343  0.117  0.030  0.030  0.030
 0.628  1.444  0.343  0.116  0.031  0.030  0.030
 0.630  1.444  0.343  0.116  0.031  0.031  0.031
 0.632  1.444  0.343  0.116  0.031  0.031  0.031
 0.634  1.444  0.343  0.115  0.032  0.031  0.031
 0.636  1.443  0.343  0.115  0.032  0.032  0.032
 0.638  1.443  0.343  0.115  0.033  0.032  0.032
 0.640  1.443  0.343  0.114  0.033  0.033  0.033
 0.642  1.443  0.343  0.114  0.033  0.033  0.033
 0.644  1.442  0.343  0.113  0.034  0.033  0.033
 0.646  1.442  0.343  0.113  0.034  0.033  0.033
 0.648  1.442  0.343  0.112  0.034  0.034  0.034
 0.650  1.441  0.343  0.112  0.034  0.034  0.034
 0.652  1.441  0.343  0.111  0.034  0.035  0.035
 0.654  1.441  0.343  0.111  0.034  0.035  0.035
 0.656  1.441  0.343  0.110  0.034  0.035  0.035
 0.658  1.439  0.343  0.110  0.035  0.035  0.035
 0.660  1.439  0.343  0.110  0.035  0.035  0.035
 0.662  1.439  0.342  0.109  0.035  0.036  0.036
 0.664  1.438  0.342  0.109  0.036  0.036  0.036
 0.666  1.438  0.342  0.108  0.036  0.037  0.037
 0.668  1.438  0.342  0.108  0.036  0.037  0.037
 0.670  1.437  0.342  0.107  0.036  0.037  0.037
 0.672  1.437  0.340  0.107  0.037  0.037  0.037
 0.674  1.437  0.340  0.107  0.037  0.037  0.037
 0.676  1.435  0.340  0.106  0.037  0.038  0.038
 0.678  1.435  0.339  0.106  0.037  0.038  0.038
 0.680  1.435  0.339  0.106  0.037  0.039  0.039
 0.682  1.435  0.338  0.105  0.037  0.039  0.039
 0.684  1.434  0.338  0.105  0.037  0.039  0.039
 0.686  1.434  0.338  0.105  0.037  0.039  0.039
 0.688  1.434  0.336  0.105  0.037  0.039  0.039
 0.690  1.433  0.336  0.104  0.037  0.040  0.040
 0.692  1.433  0.335  0.104  0.038  0.040  0.040
 0.694  1.433  0.335  0.104  0.038  0.041  0.041
 0.696  1.432  0.334  0.104  0.038  0.041  0.041
 0.698  1.432  0.332  0.104  0.038  0.041  0.041
 0.700  1.432  0.332  0.103  0.038  0.041  0.041
 0.702  1.430  0.331  0.103  0.039  0.041  0.041
 0.704  1.430  0.330  0.103  0.039  0.042  0.042
 0.706  1.430  0.330  0.103  0.039  0.042  0.042
 0.708  1.430  0.329  0.103  0.039  0.043  0.043
 0.710  1.429  0.327  0.103  0.039  0.043  0.043
 0.712  1.429  0.326  0.103  0.039  0.043  0.043
 0.714  1.429  0.325  0.102  0.039  0.043  0.043
 0.716  1.428  0.325  0.102  0.039  0.043  0.043
 0.718  1.428  0.323  0.102  0.039  0.044  0.044
 0.720  1.428  0.322  0.102  0.040  0.044  0.044
 0.722  1.428  0.321  0.102  0.040  0.045  0.045
 0.724  1.427  0.319  0.102  0.040  0.045  0.045
 0.726  1.427  0.318  0.102  0.040  0.045  0.045
 0.728  1.427  0.317  0.102  0.040  0.046  0.046
 0.730  1.427  0.317  0.102  0.040  0.046  0.046
 0.732  1.425  0.315  0.102  0.040  0.047  0.047
 0.734  1.425  0.314  0.102  0.041  0.047  0.047
 0.736  1.425  0.314  0.102  0.042  0.048  0.048
 0.738  1.425  0.314  0.102  0.042  0.049  0.049
 0.740  1.424  0.313  0.102  0.043  0.049  0.049
 0.742  1.424  0.313  0.101  0.043  0.050  0.050
 0.744  1.424  0.313  0.101  0.044  0.051  0.051
 0.746  1.424  0.313  0.101  0.045  0.052  0.052
 0.748  1.424  0.313  0.101  0.046  0.053  0.053
 0.750  1.424  0.313  0.101  0.047  0.054  0.054
 0.752  1.423  0.314  0.101  0.047  0.055  0.055
 0.754  1.423  0.314  0.101  0.048  0.056  0.056
 0.756  1.423  0.314  0.101  0.049  0.057  0.057
 0.758  1.423  0.315  0.101  0.050  0.058  0.058
 0.760  1.423  0.315  0.101  0.051  0.059  0.059
 0.762  1.423  0.317  0.101  0.053  0.060  0.060
 0.764  1.423  0.318  0.101  0.053  0.061  0.061
 0.766  1.423  0.319  0.101  0.055  0.063  0.063
 0.768  1.423  0.321  0.101  0.056  0.064  0.064
 0.770  1.423  0.322  0.101  0.057  0.065  0.065
 0.772  1.423  0.323  0.101  0.059  0.067  0.067
 0.774  1.423  0.326  0.101  0.060  0.068  0.068
 0.776  1.422  0.327  0.101  0.062  0.069  0.069
 0.778  1.422  0.330  0.101  0.063  0.071  0.071
 0.780  1.422  0.331  0.100  0.065  0.073  0.073
 0.782  1.422  0.334  0.100  0.066  0.075  0.075
 0.784  1.422  0.336  0.100  0.069  0.076  0.076
 0.786  1.422  0.339  0.101  0.070  0.078  0.078
 0.788  1.422  0.340  0.101  0.072  0.079  0.079
 0.790  1.423  0.343  0.101  0.074  0.081  0.081
 0.792  1.423  0.346  0.101  0.076  0.083  0.083
 0.794  1.424  0.348  0.102  0.078  0.085  0.085
 0.796  1.424  0.352  0.103  0.079  0.087  0.087
 0.798  1.425  0.355  0.103  0.082  0.088  0.088
 0.800  1.427  0.357  0.105  0.083  0.090  0.090
 0.802  1.428  0.360  0.106  0.086  0.092  0.092
 0.804  1.429  0.363  0.107  0.088  0.094  0.094
 0.806  1.430  0.365  0.109  0.090  0.096  0.096
 0.808  1.433  0.368  0.110  0.092  0.098  0.098
