# IsPeriodic    : True
# Period        : 0.459102 days
# Normalization : <g_mag>=0
# 
# Phase u_mag  g_mag  r_mag  i_mag  z_mag  y_mag
 0.000  0.245 -0.983 -0.784 -0.623 -0.545 -0.545
 0.002  0.245 -0.983 -0.784 -0.623 -0.545 -0.545
 0.004  0.245 -0.982 -0.783 -0.623 -0.544 -0.544
 0.006  0.247 -0.980 -0.782 -0.622 -0.544 -0.544
 0.008  0.248 -0.978 -0.779 -0.621 -0.543 -0.543
 0.010  0.251 -0.975 -0.776 -0.621 -0.541 -0.541
 0.012  0.253 -0.970 -0.773 -0.620 -0.540 -0.540
 0.014  0.255 -0.966 -0.768 -0.618 -0.538 -0.538
 0.016  0.258 -0.962 -0.764 -0.616 -0.536 -0.536
 0.018  0.263 -0.956 -0.760 -0.615 -0.534 -0.534
 0.020  0.267 -0.950 -0.756 -0.613 -0.532 -0.532
 0.022  0.270 -0.944 -0.750 -0.611 -0.530 -0.530
 0.024  0.274 -0.939 -0.745 -0.608 -0.528 -0.528
 0.026  0.280 -0.933 -0.741 -0.607 -0.525 -0.525
 0.028  0.285 -0.927 -0.736 -0.604 -0.522 -0.522
 0.030  0.289 -0.920 -0.731 -0.602 -0.520 -0.520
 0.032  0.295 -0.914 -0.726 -0.599 -0.518 -0.518
 0.034  0.301 -0.908 -0.722 -0.596 -0.515 -0.515
 0.036  0.307 -0.901 -0.717 -0.594 -0.513 -0.513
 0.038  0.312 -0.895 -0.712 -0.590 -0.510 -0.510
 0.040  0.318 -0.888 -0.708 -0.588 -0.508 -0.508
 0.042  0.326 -0.881 -0.703 -0.584 -0.504 -0.504
 0.044  0.333 -0.874 -0.699 -0.581 -0.501 -0.501
 0.046  0.340 -0.866 -0.693 -0.578 -0.499 -0.499
 0.048  0.348 -0.859 -0.688 -0.574 -0.496 -0.496
 0.050  0.355 -0.852 -0.683 -0.571 -0.493 -0.493
 0.052  0.364 -0.843 -0.678 -0.566 -0.489 -0.489
 0.054  0.372 -0.835 -0.672 -0.562 -0.486 -0.486
 0.056  0.381 -0.826 -0.666 -0.558 -0.482 -0.482
 0.058  0.390 -0.817 -0.661 -0.553 -0.479 -0.479
 0.060  0.399 -0.809 -0.656 -0.549 -0.475 -0.475
 0.062  0.409 -0.799 -0.649 -0.544 -0.472 -0.472
 0.064  0.419 -0.790 -0.644 -0.540 -0.468 -0.468
 0.066  0.428 -0.780 -0.638 -0.534 -0.464 -0.464
 0.068  0.440 -0.770 -0.631 -0.529 -0.460 -0.460
 0.070  0.450 -0.760 -0.625 -0.524 -0.456 -0.456
 0.072  0.460 -0.750 -0.620 -0.519 -0.452 -0.452
 0.074  0.472 -0.740 -0.613 -0.514 -0.448 -0.448
 0.076  0.482 -0.729 -0.607 -0.509 -0.444 -0.444
 0.078  0.494 -0.719 -0.601 -0.503 -0.439 -0.439
 0.080  0.504 -0.709 -0.595 -0.498 -0.435 -0.435
 0.082  0.516 -0.699 -0.589 -0.493 -0.432 -0.432
 0.084  0.526 -0.689 -0.583 -0.488 -0.427 -0.427
 0.086  0.536 -0.679 -0.576 -0.483 -0.423 -0.423
 0.088  0.546 -0.669 -0.571 -0.478 -0.419 -0.419
 0.090  0.557 -0.659 -0.565 -0.472 -0.416 -0.416
 0.092  0.567 -0.649 -0.559 -0.468 -0.412 -0.412
 0.094  0.577 -0.639 -0.553 -0.463 -0.408 -0.408
 0.096  0.586 -0.630 -0.547 -0.459 -0.404 -0.404
 0.098  0.596 -0.620 -0.542 -0.454 -0.400 -0.400
 0.100  0.605 -0.611 -0.535 -0.449 -0.397 -0.397
 0.102  0.614 -0.601 -0.530 -0.445 -0.393 -0.393
 0.104  0.622 -0.592 -0.524 -0.441 -0.390 -0.390
 0.106  0.631 -0.584 -0.518 -0.437 -0.386 -0.386
 0.108  0.640 -0.575 -0.513 -0.433 -0.383 -0.383
 0.110  0.649 -0.566 -0.508 -0.429 -0.379 -0.379
 0.112  0.657 -0.558 -0.503 -0.424 -0.376 -0.376
 0.114  0.665 -0.551 -0.497 -0.421 -0.373 -0.373
 0.116  0.673 -0.542 -0.492 -0.417 -0.370 -0.370
 0.118  0.681 -0.535 -0.487 -0.413 -0.367 -0.367
 0.120  0.690 -0.526 -0.482 -0.409 -0.364 -0.364
 0.122  0.697 -0.519 -0.477 -0.405 -0.361 -0.361
 0.124  0.704 -0.512 -0.472 -0.402 -0.358 -0.358
 0.126  0.711 -0.504 -0.467 -0.398 -0.355 -0.355
 0.128  0.719 -0.497 -0.463 -0.395 -0.353 -0.353
 0.130  0.726 -0.490 -0.457 -0.392 -0.350 -0.350
 0.132  0.732 -0.483 -0.453 -0.389 -0.347 -0.347
 0.134  0.739 -0.476 -0.449 -0.386 -0.344 -0.344
 0.136  0.745 -0.470 -0.444 -0.382 -0.342 -0.342
 0.138  0.752 -0.463 -0.439 -0.379 -0.339 -0.339
 0.140  0.758 -0.457 -0.435 -0.377 -0.337 -0.337
 0.142  0.764 -0.451 -0.431 -0.373 -0.334 -0.334
 0.144  0.770 -0.444 -0.427 -0.371 -0.332 -0.332
 0.146  0.776 -0.438 -0.423 -0.368 -0.330 -0.330
 0.148  0.782 -0.432 -0.418 -0.366 -0.327 -0.327
 0.150  0.787 -0.426 -0.414 -0.362 -0.325 -0.325
 0.152  0.793 -0.421 -0.410 -0.360 -0.323 -0.323
 0.154  0.799 -0.415 -0.406 -0.357 -0.320 -0.320
 0.156  0.805 -0.409 -0.401 -0.355 -0.318 -0.318
 0.158  0.811 -0.403 -0.397 -0.352 -0.316 -0.316
 0.160  0.817 -0.399 -0.394 -0.349 -0.314 -0.314
 0.162  0.821 -0.393 -0.390 -0.347 -0.311 -0.311
 0.164  0.827 -0.388 -0.386 -0.344 -0.309 -0.309
 0.166  0.833 -0.382 -0.381 -0.342 -0.307 -0.307
 0.168  0.839 -0.376 -0.378 -0.339 -0.304 -0.304
 0.170  0.844 -0.370 -0.374 -0.336 -0.302 -0.302
 0.172  0.850 -0.364 -0.370 -0.334 -0.300 -0.300
 0.174  0.856 -0.359 -0.367 -0.331 -0.297 -0.297
 0.176  0.861 -0.353 -0.362 -0.329 -0.295 -0.295
 0.178  0.866 -0.347 -0.359 -0.326 -0.293 -0.293
 0.180  0.872 -0.341 -0.355 -0.324 -0.291 -0.291
 0.182  0.878 -0.336 -0.351 -0.321 -0.288 -0.288
 0.184  0.884 -0.330 -0.348 -0.318 -0.286 -0.286
 0.186  0.890 -0.324 -0.343 -0.316 -0.284 -0.284
 0.188  0.896 -0.317 -0.340 -0.314 -0.281 -0.281
 0.190  0.900 -0.311 -0.336 -0.311 -0.279 -0.279
 0.192  0.906 -0.305 -0.333 -0.309 -0.278 -0.278
 0.194  0.912 -0.300 -0.329 -0.306 -0.275 -0.275
 0.196  0.918 -0.294 -0.326 -0.304 -0.273 -0.273
 0.198  0.923 -0.288 -0.321 -0.301 -0.271 -0.271
 0.200  0.929 -0.282 -0.318 -0.299 -0.268 -0.268
 0.202  0.934 -0.276 -0.314 -0.297 -0.266 -0.266
 0.204  0.939 -0.271 -0.311 -0.294 -0.264 -0.264
 0.206  0.945 -0.263 -0.308 -0.292 -0.261 -0.261
 0.208  0.951 -0.258 -0.303 -0.289 -0.259 -0.259
 0.210  0.955 -0.252 -0.300 -0.287 -0.257 -0.257
 0.212  0.961 -0.246 -0.297 -0.285 -0.254 -0.254
 0.214  0.967 -0.239 -0.293 -0.282 -0.252 -0.252
 0.216  0.973 -0.233 -0.290 -0.280 -0.250 -0.250
 0.218  0.979 -0.227 -0.287 -0.277 -0.248 -0.248
 0.220  0.983 -0.222 -0.282 -0.274 -0.245 -0.245
 0.222  0.989 -0.214 -0.279 -0.273 -0.243 -0.243
 0.224  0.995 -0.209 -0.276 -0.270 -0.241 -0.241
 0.226  0.999 -0.203 -0.273 -0.268 -0.238 -0.238
 0.228  1.005 -0.197 -0.269 -0.266 -0.237 -0.237
 0.230  1.011 -0.191 -0.265 -0.263 -0.235 -0.235
 0.232  1.015 -0.186 -0.262 -0.261 -0.232 -0.232
 0.234  1.021 -0.180 -0.259 -0.259 -0.230 -0.230
 0.236  1.026 -0.174 -0.256 -0.256 -0.228 -0.228
 0.238  1.031 -0.168 -0.253 -0.254 -0.225 -0.225
 0.240  1.036 -0.162 -0.250 -0.252 -0.224 -0.224
 0.242  1.042 -0.157 -0.246 -0.249 -0.222 -0.222
 0.244  1.046 -0.151 -0.243 -0.247 -0.219 -0.219
 0.246  1.050 -0.145 -0.240 -0.245 -0.217 -0.217
 0.248  1.056 -0.141 -0.237 -0.243 -0.215 -0.215
 0.250  1.061 -0.135 -0.234 -0.241 -0.213 -0.213
 0.252  1.065 -0.129 -0.231 -0.238 -0.211 -0.211
 0.254  1.071 -0.125 -0.227 -0.237 -0.209 -0.209
 0.256  1.075 -0.119 -0.224 -0.234 -0.207 -0.207
 0.258  1.080 -0.113 -0.221 -0.231 -0.205 -0.205
 0.260  1.084 -0.109 -0.218 -0.230 -0.203 -0.203
 0.262  1.088 -0.103 -0.216 -0.227 -0.201 -0.201
 0.264  1.094 -0.099 -0.213 -0.225 -0.199 -0.199
 0.266  1.099 -0.095 -0.210 -0.223 -0.197 -0.197
 0.268  1.103 -0.089 -0.206 -0.221 -0.195 -0.195
 0.270  1.107 -0.085 -0.204 -0.218 -0.193 -0.193
 0.272  1.112 -0.080 -0.201 -0.217 -0.192 -0.192
 0.274  1.116 -0.074 -0.198 -0.215 -0.189 -0.189
 0.276  1.121 -0.070 -0.196 -0.212 -0.188 -0.188
 0.278  1.125 -0.066 -0.193 -0.211 -0.185 -0.185
 0.280  1.129 -0.061 -0.190 -0.208 -0.184 -0.184
 0.282  1.134 -0.057 -0.187 -0.206 -0.182 -0.182
 0.284  1.137 -0.053 -0.184 -0.204 -0.180 -0.180
 0.286  1.141 -0.048 -0.182 -0.202 -0.179 -0.179
 0.288  1.145 -0.044 -0.179 -0.200 -0.176 -0.176
 0.290  1.150 -0.040 -0.177 -0.198 -0.175 -0.175
 0.292  1.154 -0.036 -0.174 -0.196 -0.172 -0.172
 0.294  1.159 -0.031 -0.172 -0.194 -0.171 -0.171
 0.296  1.162 -0.027 -0.168 -0.192 -0.169 -0.169
 0.298  1.166 -0.023 -0.166 -0.190 -0.167 -0.167
 0.300  1.170 -0.018 -0.163 -0.187 -0.166 -0.166
 0.302  1.175 -0.014 -0.161 -0.186 -0.164 -0.164
 0.304  1.178 -0.011 -0.158 -0.183 -0.162 -0.162
 0.306  1.182 -0.007 -0.156 -0.181 -0.160 -0.160
 0.308  1.186 -0.002 -0.153 -0.180 -0.159 -0.159
 0.310  1.191  0.002 -0.151 -0.177 -0.156 -0.156
 0.312  1.194  0.006 -0.147 -0.175 -0.155 -0.155
 0.314  1.198  0.009 -0.144 -0.173 -0.153 -0.153
 0.316  1.202  0.014 -0.142 -0.171 -0.151 -0.151
 0.318  1.207  0.018 -0.139 -0.169 -0.149 -0.149
 0.320  1.210  0.022 -0.137 -0.167 -0.148 -0.148
 0.322  1.214  0.027 -0.134 -0.164 -0.146 -0.146
 0.324  1.219  0.031 -0.130 -0.163 -0.144 -0.144
 0.326  1.221  0.034 -0.128 -0.160 -0.143 -0.143
 0.328  1.226  0.038 -0.125 -0.158 -0.140 -0.140
 0.330  1.230  0.042 -0.122 -0.156 -0.139 -0.139
 0.332  1.235  0.047 -0.120 -0.154 -0.137 -0.137
 0.334  1.238  0.050 -0.117 -0.151 -0.136 -0.136
 0.336  1.242  0.054 -0.114 -0.150 -0.133 -0.133
 0.338  1.246  0.058 -0.110 -0.147 -0.132 -0.132
 0.340  1.249  0.063 -0.108 -0.145 -0.130 -0.130
 0.342  1.254  0.067 -0.105 -0.143 -0.128 -0.128
 0.344  1.257  0.070 -0.102 -0.140 -0.126 -0.126
 0.346  1.261  0.074 -0.099 -0.138 -0.125 -0.125
 0.348  1.265  0.078 -0.096 -0.136 -0.123 -0.123
 0.350  1.268  0.081 -0.094 -0.134 -0.121 -0.121
 0.352  1.273  0.086 -0.090 -0.132 -0.120 -0.120
 0.354  1.277  0.090 -0.087 -0.130 -0.117 -0.117
 0.356  1.280  0.094 -0.084 -0.127 -0.116 -0.116
 0.358  1.284  0.097 -0.081 -0.125 -0.114 -0.114
 0.360  1.287  0.102 -0.078 -0.123 -0.113 -0.113
 0.362  1.292  0.106 -0.075 -0.120 -0.110 -0.110
 0.364  1.296  0.109 -0.071 -0.119 -0.109 -0.109
 0.366  1.299  0.113 -0.069 -0.116 -0.107 -0.107
 0.368  1.303  0.117 -0.066 -0.113 -0.105 -0.105
 0.370  1.306  0.122 -0.063 -0.112 -0.103 -0.103
 0.372  1.311  0.125 -0.060 -0.109 -0.102 -0.102
 0.374  1.314  0.129 -0.057 -0.107 -0.100 -0.100
 0.376  1.318  0.133 -0.054 -0.105 -0.098 -0.098
 0.378  1.321  0.136 -0.050 -0.103 -0.096 -0.096
 0.380  1.325  0.140 -0.048 -0.101 -0.094 -0.094
 0.382  1.328  0.145 -0.045 -0.099 -0.093 -0.093
 0.384  1.333  0.149 -0.042 -0.096 -0.090 -0.090
 0.386  1.335  0.152 -0.039 -0.095 -0.089 -0.089
 0.388  1.340  0.156 -0.037 -0.092 -0.087 -0.087
 0.390  1.343  0.161 -0.033 -0.090 -0.085 -0.085
 0.392  1.347  0.165 -0.030 -0.088 -0.083 -0.083
 0.394  1.350  0.168 -0.027 -0.086 -0.081 -0.081
 0.396  1.354  0.172 -0.025 -0.084 -0.079 -0.079
 0.398  1.357  0.177 -0.022 -0.082 -0.077 -0.077
 0.400  1.362  0.179 -0.020 -0.080 -0.075 -0.075
 0.402  1.365  0.184 -0.017 -0.077 -0.074 -0.074
 0.404  1.369  0.188 -0.013 -0.076 -0.071 -0.071
 0.406  1.372  0.192 -0.011 -0.074 -0.070 -0.070
 0.408  1.375  0.195 -0.008 -0.071 -0.067 -0.067
 0.410  1.379  0.200 -0.006 -0.070 -0.065 -0.065
 0.412  1.382  0.204 -0.003 -0.068 -0.064 -0.064
 0.414  1.385  0.208 -0.001 -0.065 -0.061 -0.061
 0.416  1.390  0.211  0.002 -0.064 -0.060 -0.060
 0.418  1.392  0.216  0.004 -0.062 -0.057 -0.057
 0.420  1.397  0.220  0.007 -0.059 -0.055 -0.055
 0.422  1.400  0.224  0.010 -0.057 -0.054 -0.054
 0.424  1.403  0.228  0.012 -0.056 -0.051 -0.051
 0.426  1.407  0.231  0.015 -0.054 -0.049 -0.049
 0.428  1.410  0.236  0.017 -0.051 -0.047 -0.047
 0.430  1.413  0.240  0.019 -0.050 -0.045 -0.045
 0.432  1.416  0.244  0.022 -0.048 -0.043 -0.043
 0.434  1.420  0.247  0.025 -0.046 -0.041 -0.041
 0.436  1.423  0.252  0.027 -0.045 -0.039 -0.039
 0.438  1.426  0.256  0.029 -0.042 -0.037 -0.037
 0.440  1.429  0.260  0.032 -0.040 -0.035 -0.035
 0.442  1.433  0.263  0.034 -0.039 -0.033 -0.033
 0.444  1.436  0.267  0.036 -0.037 -0.031 -0.031
 0.446  1.439  0.270  0.038 -0.034 -0.029 -0.029
 0.448  1.442  0.275  0.040 -0.033 -0.027 -0.027
 0.450  1.445  0.278  0.043 -0.031 -0.025 -0.025
 0.452  1.448  0.282  0.046 -0.029 -0.023 -0.023
 0.454  1.451  0.285  0.048 -0.027 -0.021 -0.021
 0.456  1.454  0.288  0.050 -0.025 -0.019 -0.019
 0.458  1.457  0.292  0.052 -0.023 -0.018 -0.018
 0.460  1.460  0.295  0.054 -0.021 -0.015 -0.015
 0.462  1.463  0.298  0.056 -0.020 -0.014 -0.014
 0.464  1.466  0.301  0.058 -0.017 -0.012 -0.012
 0.466  1.468  0.304  0.060 -0.015 -0.010 -0.010
 0.468  1.471  0.306  0.062 -0.014 -0.008 -0.008
 0.470  1.474  0.309  0.065 -0.012 -0.007 -0.007
 0.472  1.477  0.312  0.067 -0.010 -0.004 -0.004
 0.474  1.480  0.315  0.069 -0.008 -0.003 -0.003
 0.476  1.483  0.318  0.071 -0.006 -0.001 -0.001
 0.478  1.485  0.321  0.073 -0.004  0.000  0.000
 0.480  1.487  0.322  0.075 -0.002  0.002  0.002
 0.482  1.490  0.325  0.076 -0.001  0.004  0.004
 0.484  1.493  0.328  0.078  0.002  0.005  0.005
 0.486  1.495  0.329  0.080  0.004  0.007  0.007
 0.488  1.498  0.332  0.082  0.005  0.009  0.009
 0.490  1.501  0.334  0.085  0.007  0.010  0.010
 0.492  1.502  0.337  0.086  0.010  0.012  0.012
 0.494  1.505  0.338  0.088  0.011  0.013  0.013
 0.496  1.508  0.340  0.090  0.013  0.015  0.015
 0.498  1.509  0.342  0.092  0.015  0.016  0.016
 0.500  1.512  0.344  0.093  0.017  0.018  0.018
 0.502  1.514  0.345  0.095  0.019  0.019  0.019
 0.504  1.517  0.347  0.097  0.021  0.021  0.021
 0.506  1.518  0.348  0.098  0.023  0.022  0.022
 0.508  1.521  0.350  0.100  0.024  0.024  0.024
 0.510  1.523  0.351  0.103  0.026  0.025  0.025
 0.512  1.525  0.353  0.104  0.028  0.026  0.026
 0.514  1.527  0.354  0.106  0.029  0.028  0.028
 0.516  1.528  0.355  0.107  0.031  0.029  0.029
 0.518  1.530  0.357  0.109  0.033  0.031  0.031
 0.520  1.533  0.358  0.110  0.035  0.032  0.032
 0.522  1.534  0.360  0.112  0.036  0.033  0.033
 0.524  1.536  0.361  0.113  0.037  0.035  0.035
 0.526  1.537  0.363  0.114  0.039  0.035  0.035
 0.528  1.539  0.364  0.116  0.041  0.037  0.037
 0.530  1.540  0.364  0.117  0.042  0.038  0.038
 0.532  1.542  0.366  0.118  0.043  0.039  0.039
 0.534  1.543  0.367  0.120  0.044  0.041  0.041
 0.536  1.544  0.368  0.121  0.046  0.042  0.042
 0.538  1.546  0.368  0.123  0.047  0.043  0.043
 0.540  1.547  0.370  0.124  0.048  0.044  0.044
 0.542  1.549  0.371  0.126  0.049  0.045  0.045
 0.544  1.550  0.371  0.127  0.050  0.046  0.046
 0.546  1.552  0.373  0.128  0.052  0.047  0.047
 0.548  1.553  0.373  0.129  0.053  0.048  0.048
 0.550  1.553  0.374  0.130  0.054  0.049  0.049
 0.552  1.555  0.374  0.131  0.054  0.051  0.051
 0.554  1.556  0.376  0.132  0.055  0.051  0.051
 0.556  1.556  0.376  0.133  0.056  0.052  0.052
 0.558  1.558  0.377  0.134  0.057  0.053  0.053
 0.560  1.558  0.377  0.135  0.058  0.055  0.055
 0.562  1.559  0.377  0.136  0.059  0.055  0.055
 0.564  1.559  0.379  0.137  0.060  0.056  0.056
 0.566  1.561  0.379  0.137  0.060  0.057  0.057
 0.568  1.561  0.379  0.138  0.061  0.058  0.058
 0.570  1.562  0.380  0.139  0.061  0.059  0.059
 0.572  1.562  0.380  0.140  0.062  0.060  0.060
 0.574  1.562  0.380  0.140  0.063  0.061  0.061
 0.576  1.563  0.380  0.142  0.063  0.061  0.061
 0.578  1.563  0.380  0.143  0.064  0.062  0.062
 0.580  1.563  0.381  0.143  0.065  0.063  0.063
 0.582  1.563  0.381  0.144  0.065  0.064  0.064
 0.584  1.565  0.381  0.145  0.066  0.065  0.065
 0.586  1.565  0.381  0.145  0.066  0.065  0.065
 0.588  1.565  0.381  0.146  0.066  0.066  0.066
 0.590  1.565  0.381  0.146  0.066  0.067  0.067
 0.592  1.565  0.381  0.147  0.067  0.068  0.068
 0.594  1.566  0.381  0.147  0.067  0.068  0.068
 0.596  1.566  0.381  0.148  0.068  0.068  0.068
 0.598  1.566  0.381  0.148  0.068  0.069  0.069
 0.600  1.566  0.381  0.149  0.069  0.070  0.070
 0.602  1.566  0.381  0.149  0.069  0.071  0.071
 0.604  1.566  0.381  0.150  0.070  0.071  0.071
 0.606  1.566  0.381  0.150  0.070  0.072  0.072
 0.608  1.566  0.381  0.151  0.071  0.072  0.072
 0.610  1.566  0.381  0.151  0.071  0.073  0.073
 0.612  1.566  0.381  0.151  0.071  0.074  0.074
 0.614  1.566  0.381  0.152  0.072  0.074  0.074
 0.616  1.566  0.381  0.152  0.072  0.074  0.074
 0.618  1.566  0.381  0.152  0.072  0.075  0.075
 0.620  1.566  0.381  0.153  0.073  0.076  0.076
 0.622  1.566  0.381  0.153  0.073  0.077  0.077
 0.624  1.566  0.381  0.153  0.073  0.077  0.077
 0.626  1.565  0.381  0.154  0.073  0.078  0.078
 0.628  1.565  0.381  0.154  0.073  0.078  0.078
 0.630  1.565  0.381  0.154  0.073  0.078  0.078
 0.632  1.565  0.381  0.154  0.073  0.079  0.079
 0.634  1.565  0.380  0.154  0.074  0.079  0.079
 0.636  1.563  0.380  0.155  0.074  0.080  0.080
 0.638  1.563  0.380  0.155  0.074  0.080  0.080
 0.640  1.563  0.380  0.155  0.074  0.081  0.081
 0.642  1.563  0.380  0.155  0.074  0.081  0.081
 0.644  1.562  0.380  0.155  0.075  0.081  0.081
 0.646  1.562  0.379  0.155  0.075  0.081  0.081
 0.648  1.562  0.379  0.155  0.075  0.082  0.082
 0.650  1.561  0.379  0.155  0.075  0.082  0.082
 0.652  1.561  0.379  0.155  0.075  0.083  0.083
 0.654  1.561  0.377  0.156  0.075  0.083  0.083
 0.656  1.561  0.377  0.156  0.076  0.083  0.083
 0.658  1.559  0.377  0.156  0.076  0.084  0.084
 0.660  1.559  0.377  0.156  0.076  0.084  0.084
 0.662  1.559  0.376  0.155  0.076  0.084  0.084
 0.664  1.558  0.376  0.155  0.076  0.084  0.084
 0.666  1.558  0.376  0.155  0.077  0.085  0.085
 0.668  1.558  0.374  0.155  0.077  0.085  0.085
 0.670  1.556  0.374  0.155  0.077  0.085  0.085
 0.672  1.556  0.374  0.155  0.077  0.086  0.086
 0.674  1.556  0.373  0.155  0.077  0.086  0.086
 0.676  1.555  0.373  0.155  0.078  0.087  0.087
 0.678  1.555  0.373  0.154  0.078  0.087  0.087
 0.680  1.555  0.371  0.154  0.078  0.088  0.088
 0.682  1.555  0.371  0.154  0.078  0.088  0.088
 0.684  1.553  0.370  0.154  0.079  0.088  0.088
 0.686  1.553  0.370  0.153  0.079  0.088  0.088
 0.688  1.553  0.370  0.153  0.079  0.088  0.088
 0.690  1.552  0.368  0.153  0.079  0.089  0.089
 0.692  1.552  0.368  0.152  0.079  0.089  0.089
 0.694  1.552  0.367  0.152  0.079  0.090  0.090
 0.696  1.550  0.367  0.152  0.079  0.090  0.090
 0.698  1.550  0.366  0.151  0.080  0.091  0.091
 0.700  1.550  0.366  0.151  0.080  0.091  0.091
 0.702  1.549  0.364  0.150  0.080  0.091  0.091
 0.704  1.549  0.364  0.150  0.080  0.091  0.091
 0.706  1.549  0.363  0.150  0.081  0.091  0.091
 0.708  1.549  0.363  0.149  0.081  0.092  0.092
 0.710  1.547  0.361  0.148  0.081  0.092  0.092
 0.712  1.547  0.361  0.148  0.082  0.093  0.093
 0.714  1.547  0.360  0.147  0.082  0.093  0.093
 0.716  1.546  0.360  0.147  0.082  0.093  0.093
 0.718  1.546  0.358  0.146  0.083  0.094  0.094
 0.720  1.546  0.357  0.145  0.083  0.094  0.094
 0.722  1.546  0.357  0.145  0.083  0.094  0.094
 0.724  1.544  0.355  0.144  0.084  0.094  0.094
 0.726  1.544  0.355  0.144  0.084  0.095  0.095
 0.728  1.544  0.354  0.143  0.084  0.096  0.096
 0.730  1.544  0.354  0.143  0.085  0.096  0.096
 0.732  1.543  0.354  0.143  0.085  0.097  0.097
 0.734  1.543  0.354  0.143  0.085  0.097  0.097
 0.736  1.543  0.353  0.143  0.085  0.098  0.098
 0.738  1.543  0.353  0.143  0.085  0.099  0.099
 0.740  1.542  0.353  0.143  0.085  0.100  0.100
 0.742  1.542  0.353  0.143  0.085  0.101  0.101
 0.744  1.542  0.353  0.144  0.086  0.102  0.102
 0.746  1.542  0.353  0.144  0.086  0.103  0.103
 0.748  1.542  0.353  0.145  0.086  0.104  0.104
 0.750  1.542  0.354  0.146  0.087  0.105  0.105
 0.752  1.540  0.354  0.146  0.087  0.106  0.106
 0.754  1.540  0.354  0.147  0.087  0.107  0.107
 0.756  1.540  0.354  0.148  0.088  0.108  0.108
 0.758  1.540  0.355  0.149  0.088  0.110  0.110
 0.760  1.540  0.355  0.150  0.088  0.111  0.111
 0.762  1.540  0.357  0.152  0.089  0.112  0.112
 0.764  1.540  0.357  0.153  0.089  0.114  0.114
 0.766  1.540  0.358  0.155  0.089  0.115  0.115
 0.768  1.540  0.360  0.156  0.090  0.117  0.117
 0.770  1.540  0.360  0.158  0.090  0.118  0.118
 0.772  1.540  0.361  0.161  0.090  0.120  0.120
 0.774  1.540  0.363  0.163  0.090  0.121  0.121
 0.776  1.539  0.364  0.165  0.091  0.123  0.123
 0.778  1.539  0.366  0.167  0.091  0.125  0.125
 0.780  1.539  0.367  0.170  0.091  0.127  0.127
 0.782  1.539  0.368  0.172  0.091  0.129  0.129
 0.784  1.539  0.370  0.175  0.091  0.130  0.130
 0.786  1.539  0.373  0.177  0.091  0.133  0.133
 0.788  1.539  0.374  0.181  0.091  0.134  0.134
 0.790  1.540  0.376  0.183  0.092  0.137  0.137
 0.792  1.540  0.377  0.186  0.093  0.138  0.138
 0.794  1.542  0.380  0.189  0.094  0.140  0.140
 0.796  1.542  0.381  0.192  0.095  0.143  0.143
 0.798  1.543  0.383  0.194  0.096  0.144  0.144
 0.800  1.544  0.386  0.197  0.097  0.147  0.147
 0.802  1.546  0.387  0.201  0.098  0.149  0.149
 0.804  1.547  0.389  0.204  0.100  0.151  0.151
 0.806  1.549  0.392  0.207  0.101  0.153  0.153
 0.808  1.552  0.393  0.209  0.104  0.155  0.155
