# IsPeriodic    : True
# Period        : 0.797848 days
# Normalization : <g_mag>=0
# 
# Phase u_mag  g_mag  r_mag  i_mag  z_mag  y_mag
 0.000  0.841 -0.262 -0.367 -0.396 -0.386 -0.386
 0.002  0.841 -0.262 -0.367 -0.396 -0.386 -0.386
 0.004  0.841 -0.261 -0.367 -0.396 -0.386 -0.386
 0.006  0.841 -0.261 -0.367 -0.396 -0.386 -0.386
 0.008  0.842 -0.261 -0.366 -0.396 -0.385 -0.385
 0.010  0.843 -0.260 -0.366 -0.396 -0.385 -0.385
 0.012  0.844 -0.260 -0.366 -0.396 -0.384 -0.384
 0.014  0.845 -0.259 -0.366 -0.396 -0.384 -0.384
 0.016  0.846 -0.259 -0.365 -0.396 -0.383 -0.383
 0.018  0.847 -0.259 -0.365 -0.395 -0.383 -0.383
 0.020  0.849 -0.258 -0.365 -0.395 -0.382 -0.382
 0.022  0.850 -0.257 -0.364 -0.395 -0.381 -0.381
 0.024  0.851 -0.256 -0.364 -0.394 -0.381 -0.381
 0.026  0.853 -0.255 -0.363 -0.394 -0.380 -0.380
 0.028  0.854 -0.255 -0.363 -0.393 -0.379 -0.379
 0.030  0.856 -0.254 -0.362 -0.393 -0.378 -0.378
 0.032  0.857 -0.253 -0.361 -0.392 -0.378 -0.378
 0.034  0.859 -0.252 -0.361 -0.392 -0.377 -0.377
 0.036  0.861 -0.250 -0.360 -0.391 -0.376 -0.376
 0.038  0.862 -0.250 -0.359 -0.391 -0.375 -0.375
 0.040  0.864 -0.248 -0.358 -0.390 -0.374 -0.374
 0.042  0.865 -0.247 -0.358 -0.389 -0.374 -0.374
 0.044  0.867 -0.246 -0.357 -0.389 -0.373 -0.373
 0.046  0.869 -0.245 -0.356 -0.388 -0.372 -0.372
 0.048  0.871 -0.243 -0.355 -0.387 -0.371 -0.371
 0.050  0.873 -0.242 -0.354 -0.386 -0.371 -0.371
 0.052  0.875 -0.240 -0.353 -0.385 -0.370 -0.370
 0.054  0.877 -0.239 -0.352 -0.385 -0.369 -0.369
 0.056  0.880 -0.237 -0.351 -0.383 -0.368 -0.368
 0.058  0.882 -0.236 -0.350 -0.383 -0.368 -0.368
 0.060  0.884 -0.234 -0.349 -0.382 -0.367 -0.367
 0.062  0.886 -0.232 -0.347 -0.380 -0.367 -0.367
 0.064  0.888 -0.230 -0.346 -0.380 -0.366 -0.366
 0.066  0.891 -0.228 -0.345 -0.379 -0.365 -0.365
 0.068  0.894 -0.226 -0.343 -0.377 -0.364 -0.364
 0.070  0.896 -0.224 -0.342 -0.376 -0.364 -0.364
 0.072  0.899 -0.222 -0.340 -0.375 -0.363 -0.363
 0.074  0.902 -0.220 -0.339 -0.374 -0.362 -0.362
 0.076  0.904 -0.218 -0.337 -0.373 -0.362 -0.362
 0.078  0.907 -0.216 -0.336 -0.372 -0.361 -0.361
 0.080  0.910 -0.214 -0.334 -0.370 -0.360 -0.360
 0.082  0.912 -0.212 -0.333 -0.369 -0.360 -0.360
 0.084  0.915 -0.210 -0.331 -0.368 -0.359 -0.359
 0.086  0.918 -0.208 -0.330 -0.367 -0.358 -0.358
 0.088  0.920 -0.205 -0.328 -0.366 -0.358 -0.358
 0.090  0.923 -0.204 -0.327 -0.365 -0.357 -0.357
 0.092  0.925 -0.201 -0.325 -0.364 -0.356 -0.356
 0.094  0.928 -0.200 -0.324 -0.363 -0.356 -0.356
 0.096  0.931 -0.197 -0.323 -0.362 -0.355 -0.355
 0.098  0.933 -0.196 -0.321 -0.361 -0.354 -0.354
 0.100  0.936 -0.193 -0.320 -0.360 -0.354 -0.354
 0.102  0.939 -0.191 -0.319 -0.359 -0.353 -0.353
 0.104  0.941 -0.189 -0.318 -0.358 -0.352 -0.352
 0.106  0.943 -0.187 -0.316 -0.357 -0.352 -0.352
 0.108  0.946 -0.186 -0.315 -0.357 -0.351 -0.351
 0.110  0.948 -0.183 -0.314 -0.356 -0.350 -0.350
 0.112  0.950 -0.182 -0.313 -0.355 -0.350 -0.350
 0.114  0.953 -0.180 -0.311 -0.354 -0.349 -0.349
 0.116  0.955 -0.178 -0.310 -0.353 -0.349 -0.349
 0.118  0.957 -0.176 -0.309 -0.353 -0.348 -0.348
 0.120  0.959 -0.174 -0.308 -0.352 -0.347 -0.347
 0.122  0.962 -0.172 -0.307 -0.351 -0.347 -0.347
 0.124  0.963 -0.170 -0.306 -0.350 -0.346 -0.346
 0.126  0.966 -0.168 -0.305 -0.350 -0.345 -0.345
 0.128  0.968 -0.166 -0.304 -0.349 -0.345 -0.345
 0.130  0.970 -0.164 -0.303 -0.348 -0.344 -0.344
 0.132  0.972 -0.163 -0.302 -0.348 -0.344 -0.344
 0.134  0.974 -0.161 -0.301 -0.347 -0.343 -0.343
 0.136  0.976 -0.159 -0.300 -0.347 -0.342 -0.342
 0.138  0.978 -0.157 -0.299 -0.346 -0.342 -0.342
 0.140  0.979 -0.155 -0.298 -0.345 -0.341 -0.341
 0.142  0.981 -0.154 -0.297 -0.345 -0.341 -0.341
 0.144  0.983 -0.152 -0.297 -0.344 -0.340 -0.340
 0.146  0.985 -0.150 -0.296 -0.344 -0.339 -0.339
 0.148  0.986 -0.149 -0.295 -0.343 -0.339 -0.339
 0.150  0.988 -0.147 -0.294 -0.343 -0.338 -0.338
 0.152  0.990 -0.145 -0.293 -0.342 -0.338 -0.338
 0.154  0.991 -0.143 -0.292 -0.342 -0.337 -0.337
 0.156  0.993 -0.141 -0.291 -0.341 -0.337 -0.337
 0.158  0.994 -0.140 -0.291 -0.340 -0.336 -0.336
 0.160  0.996 -0.138 -0.290 -0.340 -0.335 -0.335
 0.162  0.998 -0.136 -0.289 -0.339 -0.335 -0.335
 0.164  0.999 -0.134 -0.288 -0.339 -0.334 -0.334
 0.166  1.001 -0.132 -0.287 -0.338 -0.334 -0.334
 0.168  1.002 -0.131 -0.286 -0.338 -0.333 -0.333
 0.170  1.004 -0.129 -0.285 -0.337 -0.333 -0.333
 0.172  1.006 -0.127 -0.284 -0.337 -0.332 -0.332
 0.174  1.008 -0.125 -0.283 -0.336 -0.332 -0.332
 0.176  1.009 -0.123 -0.282 -0.335 -0.331 -0.331
 0.178  1.011 -0.121 -0.281 -0.335 -0.330 -0.330
 0.180  1.012 -0.119 -0.280 -0.334 -0.330 -0.330
 0.182  1.014 -0.117 -0.279 -0.333 -0.329 -0.329
 0.184  1.016 -0.115 -0.278 -0.333 -0.329 -0.329
 0.186  1.017 -0.114 -0.277 -0.332 -0.328 -0.328
 0.188  1.019 -0.112 -0.276 -0.332 -0.328 -0.328
 0.190  1.021 -0.110 -0.275 -0.331 -0.327 -0.327
 0.192  1.023 -0.108 -0.273 -0.330 -0.327 -0.327
 0.194  1.024 -0.106 -0.272 -0.329 -0.326 -0.326
 0.196  1.026 -0.104 -0.271 -0.329 -0.326 -0.326
 0.198  1.028 -0.102 -0.270 -0.328 -0.325 -0.325
 0.200  1.029 -0.100 -0.269 -0.327 -0.324 -0.324
 0.202  1.031 -0.098 -0.267 -0.327 -0.324 -0.324
 0.204  1.033 -0.096 -0.266 -0.326 -0.323 -0.323
 0.206  1.034 -0.094 -0.265 -0.325 -0.323 -0.323
 0.208  1.036 -0.092 -0.264 -0.324 -0.322 -0.322
 0.210  1.038 -0.090 -0.262 -0.324 -0.322 -0.322
 0.212  1.040 -0.088 -0.261 -0.323 -0.321 -0.321
 0.214  1.041 -0.086 -0.260 -0.322 -0.321 -0.321
 0.216  1.043 -0.083 -0.258 -0.322 -0.320 -0.320
 0.218  1.045 -0.082 -0.257 -0.321 -0.320 -0.320
 0.220  1.047 -0.079 -0.256 -0.320 -0.319 -0.319
 0.222  1.048 -0.078 -0.254 -0.319 -0.319 -0.319
 0.224  1.050 -0.075 -0.253 -0.319 -0.318 -0.318
 0.226  1.052 -0.073 -0.251 -0.318 -0.318 -0.318
 0.228  1.054 -0.071 -0.250 -0.317 -0.317 -0.317
 0.230  1.055 -0.069 -0.249 -0.316 -0.316 -0.316
 0.232  1.057 -0.067 -0.247 -0.316 -0.316 -0.316
 0.234  1.059 -0.065 -0.246 -0.315 -0.316 -0.316
 0.236  1.061 -0.063 -0.245 -0.314 -0.315 -0.315
 0.238  1.063 -0.061 -0.243 -0.313 -0.315 -0.315
 0.240  1.064 -0.059 -0.242 -0.313 -0.314 -0.314
 0.242  1.066 -0.057 -0.240 -0.312 -0.314 -0.314
 0.244  1.067 -0.055 -0.239 -0.311 -0.313 -0.313
 0.246  1.069 -0.053 -0.238 -0.310 -0.312 -0.312
 0.248  1.070 -0.051 -0.236 -0.310 -0.312 -0.312
 0.250  1.072 -0.049 -0.235 -0.309 -0.311 -0.311
 0.252  1.074 -0.047 -0.234 -0.308 -0.311 -0.311
 0.254  1.076 -0.045 -0.232 -0.307 -0.310 -0.310
 0.256  1.077 -0.043 -0.231 -0.307 -0.310 -0.310
 0.258  1.079 -0.041 -0.229 -0.306 -0.309 -0.309
 0.260  1.080 -0.039 -0.228 -0.305 -0.308 -0.308
 0.262  1.082 -0.037 -0.227 -0.304 -0.308 -0.308
 0.264  1.084 -0.035 -0.225 -0.304 -0.307 -0.307
 0.266  1.085 -0.033 -0.224 -0.303 -0.307 -0.307
 0.268  1.087 -0.031 -0.223 -0.302 -0.306 -0.306
 0.270  1.088 -0.028 -0.221 -0.301 -0.305 -0.305
 0.272  1.090 -0.027 -0.220 -0.301 -0.305 -0.305
 0.274  1.092 -0.025 -0.218 -0.300 -0.304 -0.304
 0.276  1.093 -0.023 -0.217 -0.299 -0.303 -0.303
 0.278  1.094 -0.021 -0.216 -0.299 -0.303 -0.303
 0.280  1.096 -0.019 -0.214 -0.298 -0.302 -0.302
 0.282  1.097 -0.017 -0.213 -0.297 -0.301 -0.301
 0.284  1.099 -0.014 -0.211 -0.297 -0.301 -0.301
 0.286  1.101 -0.013 -0.210 -0.296 -0.300 -0.300
 0.288  1.102 -0.011 -0.209 -0.295 -0.299 -0.299
 0.290  1.103 -0.009 -0.208 -0.294 -0.299 -0.299
 0.292  1.105 -0.007 -0.206 -0.294 -0.298 -0.298
 0.294  1.106 -0.005 -0.205 -0.293 -0.297 -0.297
 0.296  1.108 -0.003 -0.204 -0.292 -0.296 -0.296
 0.298  1.109 -0.001 -0.202 -0.291 -0.296 -0.296
 0.300  1.110  0.001 -0.201 -0.291 -0.295 -0.295
 0.302  1.112  0.003 -0.200 -0.290 -0.294 -0.294
 0.304  1.113  0.004 -0.198 -0.289 -0.294 -0.294
 0.306  1.115  0.006 -0.197 -0.288 -0.293 -0.293
 0.308  1.116  0.008 -0.196 -0.287 -0.292 -0.292
 0.310  1.117  0.010 -0.195 -0.287 -0.291 -0.291
 0.312  1.119  0.012 -0.193 -0.286 -0.291 -0.291
 0.314  1.120  0.013 -0.192 -0.285 -0.290 -0.290
 0.316  1.122  0.015 -0.191 -0.284 -0.289 -0.289
 0.318  1.123  0.017 -0.190 -0.283 -0.288 -0.288
 0.320  1.124  0.018 -0.189 -0.283 -0.288 -0.288
 0.322  1.125  0.020 -0.187 -0.282 -0.287 -0.287
 0.324  1.127  0.021 -0.186 -0.281 -0.286 -0.286
 0.326  1.128  0.023 -0.185 -0.280 -0.285 -0.285
 0.328  1.130  0.024 -0.184 -0.279 -0.285 -0.285
 0.330  1.131  0.026 -0.183 -0.279 -0.284 -0.284
 0.332  1.132  0.027 -0.182 -0.277 -0.283 -0.283
 0.334  1.133  0.029 -0.181 -0.277 -0.283 -0.283
 0.336  1.135  0.031 -0.180 -0.276 -0.282 -0.282
 0.338  1.136  0.032 -0.179 -0.275 -0.281 -0.281
 0.340  1.137  0.033 -0.178 -0.274 -0.281 -0.281
 0.342  1.139  0.035 -0.177 -0.273 -0.280 -0.280
 0.344  1.139  0.036 -0.176 -0.272 -0.279 -0.279
 0.346  1.141  0.037 -0.175 -0.271 -0.279 -0.279
 0.348  1.142  0.039 -0.174 -0.270 -0.278 -0.278
 0.350  1.143  0.040 -0.173 -0.270 -0.277 -0.277
 0.352  1.145  0.041 -0.172 -0.269 -0.277 -0.277
 0.354  1.146  0.042 -0.171 -0.268 -0.276 -0.276
 0.356  1.147  0.044 -0.171 -0.267 -0.275 -0.275
 0.358  1.148  0.045 -0.170 -0.266 -0.275 -0.275
 0.360  1.149  0.046 -0.169 -0.265 -0.274 -0.274
 0.362  1.150  0.047 -0.168 -0.264 -0.274 -0.274
 0.364  1.152  0.049 -0.167 -0.263 -0.273 -0.273
 0.366  1.153  0.049 -0.166 -0.262 -0.272 -0.272
 0.368  1.154  0.051 -0.166 -0.261 -0.272 -0.272
 0.370  1.155  0.052 -0.165 -0.260 -0.271 -0.271
 0.372  1.156  0.053 -0.164 -0.259 -0.271 -0.271
 0.374  1.157  0.054 -0.163 -0.258 -0.270 -0.270
 0.376  1.159  0.056 -0.162 -0.258 -0.269 -0.269
 0.378  1.160  0.057 -0.162 -0.257 -0.269 -0.269
 0.380  1.161  0.058 -0.161 -0.256 -0.268 -0.268
 0.382  1.162  0.059 -0.160 -0.255 -0.268 -0.268
 0.384  1.163  0.061 -0.159 -0.254 -0.267 -0.267
 0.386  1.164  0.062 -0.158 -0.253 -0.267 -0.267
 0.388  1.166  0.063 -0.158 -0.253 -0.266 -0.266
 0.390  1.167  0.064 -0.157 -0.252 -0.265 -0.265
 0.392  1.168  0.066 -0.156 -0.251 -0.265 -0.265
 0.394  1.169  0.067 -0.155 -0.250 -0.264 -0.264
 0.396  1.170  0.068 -0.154 -0.249 -0.264 -0.264
 0.398  1.171  0.070 -0.154 -0.248 -0.263 -0.263
 0.400  1.173  0.071 -0.153 -0.248 -0.263 -0.263
 0.402  1.174  0.072 -0.152 -0.247 -0.262 -0.262
 0.404  1.175  0.074 -0.151 -0.246 -0.261 -0.261
 0.406  1.177  0.075 -0.150 -0.246 -0.261 -0.261
 0.408  1.177  0.076 -0.150 -0.245 -0.260 -0.260
 0.410  1.179  0.078 -0.149 -0.244 -0.259 -0.259
 0.412  1.180  0.079 -0.148 -0.243 -0.259 -0.259
 0.414  1.181  0.081 -0.147 -0.243 -0.258 -0.258
 0.416  1.183  0.082 -0.146 -0.242 -0.257 -0.257
 0.418  1.184  0.084 -0.145 -0.241 -0.257 -0.257
 0.420  1.185  0.085 -0.145 -0.240 -0.256 -0.256
 0.422  1.186  0.086 -0.144 -0.240 -0.255 -0.255
 0.424  1.188  0.088 -0.143 -0.239 -0.254 -0.254
 0.426  1.189  0.090 -0.142 -0.238 -0.254 -0.254
 0.428  1.190  0.091 -0.141 -0.238 -0.253 -0.253
 0.430  1.192  0.092 -0.141 -0.237 -0.252 -0.252
 0.432  1.193  0.094 -0.140 -0.236 -0.252 -0.252
 0.434  1.194  0.095 -0.139 -0.236 -0.251 -0.251
 0.436  1.195  0.097 -0.138 -0.235 -0.250 -0.250
 0.438  1.197  0.098 -0.137 -0.234 -0.249 -0.249
 0.440  1.198  0.099 -0.137 -0.234 -0.248 -0.248
 0.442  1.199  0.101 -0.136 -0.233 -0.248 -0.248
 0.444  1.200  0.102 -0.135 -0.233 -0.247 -0.247
 0.446  1.201  0.103 -0.135 -0.232 -0.246 -0.246
 0.448  1.203  0.105 -0.134 -0.231 -0.245 -0.245
 0.450  1.204  0.106 -0.133 -0.231 -0.245 -0.245
 0.452  1.205  0.108 -0.132 -0.230 -0.244 -0.244
 0.454  1.206  0.109 -0.132 -0.230 -0.243 -0.243
 0.456  1.207  0.110 -0.131 -0.229 -0.242 -0.242
 0.458  1.208  0.111 -0.130 -0.228 -0.241 -0.241
 0.460  1.209  0.113 -0.129 -0.228 -0.241 -0.241
 0.462  1.211  0.114 -0.129 -0.227 -0.240 -0.240
 0.464  1.212  0.115 -0.128 -0.227 -0.239 -0.239
 0.466  1.213  0.116 -0.127 -0.226 -0.238 -0.238
 0.468  1.214  0.117 -0.127 -0.226 -0.238 -0.238
 0.470  1.215  0.118 -0.126 -0.225 -0.237 -0.237
 0.472  1.215  0.119 -0.125 -0.224 -0.236 -0.236
 0.474  1.216  0.120 -0.124 -0.224 -0.236 -0.236
 0.476  1.217  0.121 -0.124 -0.223 -0.235 -0.235
 0.478  1.218  0.122 -0.123 -0.223 -0.234 -0.234
 0.480  1.219  0.123 -0.122 -0.222 -0.234 -0.234
 0.482  1.220  0.124 -0.122 -0.222 -0.233 -0.233
 0.484  1.221  0.125 -0.121 -0.221 -0.232 -0.232
 0.486  1.222  0.126 -0.120 -0.221 -0.232 -0.232
 0.488  1.223  0.127 -0.120 -0.220 -0.231 -0.231
 0.490  1.223  0.128 -0.119 -0.220 -0.231 -0.231
 0.492  1.224  0.129 -0.118 -0.219 -0.230 -0.230
 0.494  1.224  0.129 -0.118 -0.219 -0.230 -0.230
 0.496  1.225  0.130 -0.117 -0.218 -0.229 -0.229
 0.498  1.226  0.131 -0.116 -0.218 -0.229 -0.229
 0.500  1.227  0.132 -0.116 -0.217 -0.228 -0.228
 0.502  1.227  0.132 -0.115 -0.217 -0.228 -0.228
 0.504  1.228  0.133 -0.115 -0.216 -0.227 -0.227
 0.506  1.228  0.134 -0.114 -0.216 -0.227 -0.227
 0.508  1.229  0.135 -0.113 -0.215 -0.226 -0.226
 0.510  1.230  0.135 -0.113 -0.215 -0.226 -0.226
 0.512  1.230  0.136 -0.112 -0.214 -0.225 -0.225
 0.514  1.230  0.136 -0.111 -0.214 -0.225 -0.225
 0.516  1.231  0.137 -0.111 -0.214 -0.225 -0.225
 0.518  1.231  0.138 -0.110 -0.213 -0.224 -0.224
 0.520  1.232  0.139 -0.110 -0.213 -0.224 -0.224
 0.522  1.232  0.139 -0.109 -0.212 -0.223 -0.223
 0.524  1.233  0.140 -0.109 -0.212 -0.223 -0.223
 0.526  1.233  0.140 -0.108 -0.211 -0.223 -0.223
 0.528  1.234  0.141 -0.108 -0.211 -0.222 -0.222
 0.530  1.234  0.142 -0.107 -0.210 -0.222 -0.222
 0.532  1.235  0.142 -0.106 -0.210 -0.222 -0.222
 0.534  1.235  0.143 -0.106 -0.209 -0.221 -0.221
 0.536  1.236  0.144 -0.105 -0.209 -0.221 -0.221
 0.538  1.236  0.144 -0.105 -0.208 -0.220 -0.220
 0.540  1.236  0.144 -0.104 -0.208 -0.220 -0.220
 0.542  1.237  0.145 -0.104 -0.208 -0.220 -0.220
 0.544  1.237  0.146 -0.103 -0.207 -0.219 -0.219
 0.546  1.238  0.146 -0.103 -0.207 -0.219 -0.219
 0.548  1.238  0.147 -0.102 -0.206 -0.219 -0.219
 0.550  1.238  0.148 -0.102 -0.206 -0.218 -0.218
 0.552  1.238  0.148 -0.101 -0.205 -0.218 -0.218
 0.554  1.239  0.149 -0.101 -0.205 -0.218 -0.218
 0.556  1.239  0.149 -0.100 -0.204 -0.217 -0.217
 0.558  1.239  0.149 -0.100 -0.204 -0.217 -0.217
 0.560  1.239  0.150 -0.100 -0.204 -0.216 -0.216
 0.562  1.240  0.151 -0.099 -0.203 -0.216 -0.216
 0.564  1.240  0.151 -0.099 -0.203 -0.216 -0.216
 0.566  1.240  0.152 -0.098 -0.202 -0.215 -0.215
 0.568  1.241  0.152 -0.098 -0.202 -0.215 -0.215
 0.570  1.241  0.153 -0.097 -0.201 -0.215 -0.215
 0.572  1.241  0.153 -0.097 -0.201 -0.214 -0.214
 0.574  1.241  0.153 -0.097 -0.201 -0.214 -0.214
 0.576  1.242  0.154 -0.096 -0.200 -0.213 -0.213
 0.578  1.242  0.154 -0.096 -0.200 -0.213 -0.213
 0.580  1.242  0.155 -0.095 -0.199 -0.213 -0.213
 0.582  1.242  0.155 -0.095 -0.199 -0.212 -0.212
 0.584  1.242  0.156 -0.095 -0.198 -0.212 -0.212
 0.586  1.243  0.156 -0.094 -0.198 -0.212 -0.212
 0.588  1.243  0.157 -0.094 -0.197 -0.211 -0.211
 0.590  1.243  0.157 -0.093 -0.197 -0.211 -0.211
 0.592  1.243  0.158 -0.093 -0.196 -0.211 -0.211
 0.594  1.243  0.158 -0.092 -0.196 -0.210 -0.210
 0.596  1.244  0.158 -0.092 -0.195 -0.210 -0.210
 0.598  1.244  0.158 -0.091 -0.195 -0.210 -0.210
 0.600  1.244  0.159 -0.091 -0.194 -0.209 -0.209
 0.602  1.244  0.159 -0.091 -0.194 -0.209 -0.209
 0.604  1.244  0.159 -0.090 -0.193 -0.208 -0.208
 0.606  1.245  0.160 -0.090 -0.193 -0.208 -0.208
 0.608  1.245  0.160 -0.089 -0.192 -0.207 -0.207
 0.610  1.245  0.160 -0.089 -0.191 -0.207 -0.207
 0.612  1.245  0.160 -0.088 -0.191 -0.207 -0.207
 0.614  1.245  0.161 -0.088 -0.190 -0.206 -0.206
 0.616  1.245  0.161 -0.087 -0.190 -0.206 -0.206
 0.618  1.245  0.161 -0.087 -0.189 -0.205 -0.205
 0.620  1.246  0.161 -0.086 -0.188 -0.205 -0.205
 0.622  1.246  0.162 -0.085 -0.188 -0.204 -0.204
 0.624  1.246  0.162 -0.085 -0.187 -0.204 -0.204
 0.626  1.246  0.162 -0.084 -0.187 -0.203 -0.203
 0.628  1.246  0.162 -0.084 -0.186 -0.203 -0.203
 0.630  1.247  0.162 -0.083 -0.185 -0.202 -0.202
 0.632  1.247  0.162 -0.083 -0.185 -0.202 -0.202
 0.634  1.247  0.162 -0.082 -0.184 -0.201 -0.201
 0.636  1.247  0.162 -0.082 -0.183 -0.201 -0.201
 0.638  1.248  0.162 -0.081 -0.183 -0.200 -0.200
 0.640  1.248  0.162 -0.081 -0.182 -0.200 -0.200
 0.642  1.248  0.162 -0.080 -0.181 -0.199 -0.199
 0.644  1.248  0.162 -0.079 -0.180 -0.199 -0.199
 0.646  1.249  0.162 -0.079 -0.180 -0.198 -0.198
 0.648  1.249  0.162 -0.078 -0.179 -0.197 -0.197
 0.650  1.249  0.162 -0.077 -0.178 -0.197 -0.197
 0.652  1.249  0.162 -0.077 -0.177 -0.196 -0.196
 0.654  1.249  0.162 -0.076 -0.177 -0.196 -0.196
 0.656  1.250  0.163 -0.075 -0.176 -0.195 -0.195
 0.658  1.250  0.163 -0.075 -0.175 -0.195 -0.195
 0.660  1.250  0.163 -0.074 -0.174 -0.194 -0.194
 0.662  1.251  0.163 -0.073 -0.173 -0.193 -0.193
 0.664  1.251  0.163 -0.072 -0.173 -0.193 -0.193
 0.666  1.251  0.164 -0.072 -0.172 -0.192 -0.192
 0.668  1.251  0.164 -0.071 -0.171 -0.191 -0.191
 0.670  1.252  0.164 -0.070 -0.170 -0.191 -0.191
 0.672  1.252  0.165 -0.069 -0.169 -0.190 -0.190
 0.674  1.252  0.165 -0.068 -0.168 -0.189 -0.189
 0.676  1.253  0.166 -0.067 -0.167 -0.189 -0.189
 0.678  1.253  0.166 -0.066 -0.167 -0.188 -0.188
 0.680  1.253  0.167 -0.065 -0.166 -0.187 -0.187
 0.682  1.253  0.167 -0.064 -0.165 -0.186 -0.186
 0.684  1.253  0.168 -0.063 -0.164 -0.185 -0.185
 0.686  1.254  0.168 -0.062 -0.163 -0.184 -0.184
 0.688  1.254  0.169 -0.061 -0.162 -0.184 -0.184
 0.690  1.254  0.170 -0.060 -0.161 -0.183 -0.183
 0.692  1.255  0.170 -0.059 -0.160 -0.182 -0.182
 0.694  1.255  0.171 -0.058 -0.159 -0.181 -0.181
 0.696  1.255  0.172 -0.056 -0.158 -0.180 -0.180
 0.698  1.256  0.172 -0.055 -0.157 -0.179 -0.179
 0.700  1.256  0.173 -0.054 -0.156 -0.178 -0.178
 0.702  1.257  0.174 -0.053 -0.155 -0.177 -0.177
 0.704  1.257  0.175 -0.051 -0.154 -0.176 -0.176
 0.706  1.257  0.176 -0.050 -0.152 -0.175 -0.175
 0.708  1.258  0.177 -0.049 -0.152 -0.174 -0.174
 0.710  1.258  0.178 -0.047 -0.151 -0.172 -0.172
 0.712  1.259  0.179 -0.046 -0.150 -0.171 -0.171
 0.714  1.259  0.180 -0.044 -0.148 -0.170 -0.170
 0.716  1.259  0.181 -0.043 -0.147 -0.169 -0.169
 0.718  1.260  0.182 -0.042 -0.146 -0.168 -0.168
 0.720  1.260  0.183 -0.040 -0.145 -0.166 -0.166
 0.722  1.261  0.184 -0.039 -0.144 -0.165 -0.165
 0.724  1.261  0.185 -0.038 -0.143 -0.164 -0.164
 0.726  1.261  0.186 -0.037 -0.142 -0.162 -0.162
 0.728  1.262  0.186 -0.036 -0.141 -0.161 -0.161
 0.730  1.262  0.187 -0.036 -0.140 -0.160 -0.160
 0.732  1.263  0.188 -0.035 -0.140 -0.159 -0.159
 0.734  1.264  0.188 -0.035 -0.138 -0.157 -0.157
 0.736  1.264  0.188 -0.035 -0.138 -0.156 -0.156
 0.738  1.265  0.189 -0.035 -0.137 -0.154 -0.154
 0.740  1.266  0.189 -0.036 -0.136 -0.153 -0.153
 0.742  1.267  0.189 -0.036 -0.135 -0.152 -0.152
 0.744  1.268  0.189 -0.037 -0.135 -0.151 -0.151
 0.746  1.268  0.188 -0.038 -0.134 -0.149 -0.149
 0.748  1.269  0.188 -0.039 -0.133 -0.148 -0.148
 0.750  1.270  0.187 -0.040 -0.133 -0.147 -0.147
 0.752  1.271  0.187 -0.042 -0.132 -0.146 -0.146
 0.754  1.272  0.186 -0.043 -0.131 -0.145 -0.145
 0.756  1.273  0.185 -0.045 -0.131 -0.144 -0.144
 0.758  1.274  0.185 -0.047 -0.131 -0.143 -0.143
 0.760  1.276  0.184 -0.049 -0.130 -0.142 -0.142
 0.762  1.276  0.183 -0.051 -0.130 -0.142 -0.142
 0.764  1.278  0.182 -0.053 -0.129 -0.141 -0.141
 0.766  1.279  0.181 -0.056 -0.129 -0.140 -0.140
 0.768  1.280  0.179 -0.059 -0.128 -0.140 -0.140
 0.770  1.282  0.178 -0.061 -0.128 -0.139 -0.139
 0.772  1.283  0.176 -0.065 -0.128 -0.139 -0.139
 0.774  1.285  0.175 -0.068 -0.127 -0.138 -0.138
 0.776  1.286  0.173 -0.072 -0.127 -0.138 -0.138
 0.778  1.288  0.171 -0.075 -0.127 -0.138 -0.138
 0.780  1.290  0.170 -0.079 -0.126 -0.138 -0.138
 0.782  1.291  0.167 -0.083 -0.126 -0.137 -0.137
 0.784  1.293  0.166 -0.088 -0.126 -0.137 -0.137
 0.786  1.295  0.163 -0.092 -0.126 -0.137 -0.137
 0.788  1.296  0.161 -0.096 -0.126 -0.137 -0.137
 0.790  1.298  0.158 -0.101 -0.126 -0.137 -0.137
 0.792  1.300  0.156 -0.106 -0.127 -0.137 -0.137
 0.794  1.301  0.153 -0.110 -0.127 -0.137 -0.137
 0.796  1.303  0.151 -0.115 -0.127 -0.137 -0.137
 0.798  1.305  0.148 -0.119 -0.128 -0.138 -0.138
 0.800  1.306  0.144 -0.124 -0.129 -0.138 -0.138
 0.802  1.307  0.141 -0.129 -0.130 -0.138 -0.138
 0.804  1.308  0.138 -0.133 -0.131 -0.139 -0.139
 0.806  1.309  0.135 -0.138 -0.132 -0.139 -0.139
 0.808  1.310  0.131 -0.142 -0.134 -0.140 -0.140
