# IsPeriodic    : True
# Period        : 0.499788 days
# Normalization : <g_mag>=0
# 
# Phase u_mag  g_mag  r_mag  i_mag  z_mag  y_mag
 0.000  0.242 -0.984 -0.777 -0.630 -0.571 -0.571
 0.002  0.242 -0.983 -0.777 -0.630 -0.571 -0.571
 0.004  0.242 -0.981 -0.777 -0.630 -0.570 -0.570
 0.006  0.243 -0.978 -0.776 -0.629 -0.570 -0.570
 0.008  0.244 -0.976 -0.775 -0.628 -0.569 -0.569
 0.010  0.247 -0.971 -0.773 -0.627 -0.567 -0.567
 0.012  0.249 -0.965 -0.771 -0.626 -0.566 -0.566
 0.014  0.252 -0.958 -0.769 -0.624 -0.564 -0.564
 0.016  0.254 -0.951 -0.767 -0.623 -0.562 -0.562
 0.018  0.259 -0.944 -0.764 -0.621 -0.561 -0.561
 0.020  0.263 -0.936 -0.761 -0.619 -0.558 -0.558
 0.022  0.266 -0.929 -0.759 -0.618 -0.556 -0.556
 0.024  0.270 -0.920 -0.756 -0.615 -0.554 -0.554
 0.026  0.276 -0.913 -0.753 -0.613 -0.552 -0.552
 0.028  0.280 -0.905 -0.749 -0.611 -0.549 -0.549
 0.030  0.284 -0.897 -0.746 -0.608 -0.546 -0.546
 0.032  0.290 -0.890 -0.742 -0.605 -0.544 -0.544
 0.034  0.296 -0.883 -0.739 -0.603 -0.542 -0.542
 0.036  0.302 -0.876 -0.734 -0.600 -0.540 -0.540
 0.038  0.307 -0.868 -0.730 -0.597 -0.537 -0.537
 0.040  0.313 -0.861 -0.727 -0.594 -0.535 -0.535
 0.042  0.320 -0.854 -0.721 -0.591 -0.532 -0.532
 0.044  0.327 -0.847 -0.717 -0.587 -0.529 -0.529
 0.046  0.334 -0.839 -0.713 -0.584 -0.526 -0.526
 0.048  0.342 -0.832 -0.707 -0.581 -0.523 -0.523
 0.050  0.349 -0.823 -0.702 -0.577 -0.520 -0.520
 0.052  0.357 -0.816 -0.697 -0.573 -0.517 -0.517
 0.054  0.366 -0.807 -0.691 -0.569 -0.514 -0.514
 0.056  0.374 -0.799 -0.685 -0.564 -0.510 -0.510
 0.058  0.383 -0.791 -0.679 -0.560 -0.507 -0.507
 0.060  0.392 -0.783 -0.673 -0.556 -0.503 -0.503
 0.062  0.402 -0.774 -0.667 -0.550 -0.499 -0.499
 0.064  0.412 -0.765 -0.660 -0.546 -0.496 -0.496
 0.066  0.420 -0.757 -0.654 -0.541 -0.492 -0.492
 0.068  0.432 -0.748 -0.647 -0.536 -0.488 -0.488
 0.070  0.442 -0.739 -0.640 -0.531 -0.485 -0.485
 0.072  0.452 -0.731 -0.633 -0.526 -0.480 -0.480
 0.074  0.463 -0.722 -0.626 -0.520 -0.476 -0.476
 0.076  0.473 -0.713 -0.619 -0.515 -0.473 -0.473
 0.078  0.484 -0.704 -0.612 -0.510 -0.468 -0.468
 0.080  0.494 -0.696 -0.605 -0.505 -0.464 -0.464
 0.082  0.506 -0.687 -0.598 -0.500 -0.461 -0.461
 0.084  0.516 -0.678 -0.590 -0.495 -0.456 -0.456
 0.086  0.526 -0.670 -0.584 -0.489 -0.452 -0.452
 0.088  0.536 -0.661 -0.577 -0.484 -0.449 -0.449
 0.090  0.546 -0.652 -0.571 -0.479 -0.445 -0.445
 0.092  0.556 -0.644 -0.564 -0.475 -0.441 -0.441
 0.094  0.566 -0.636 -0.558 -0.470 -0.437 -0.437
 0.096  0.574 -0.628 -0.552 -0.465 -0.434 -0.434
 0.098  0.584 -0.619 -0.545 -0.461 -0.430 -0.430
 0.100  0.593 -0.610 -0.539 -0.456 -0.427 -0.427
 0.102  0.601 -0.603 -0.533 -0.452 -0.423 -0.423
 0.104  0.610 -0.594 -0.527 -0.447 -0.420 -0.420
 0.106  0.619 -0.586 -0.521 -0.444 -0.417 -0.417
 0.108  0.627 -0.578 -0.516 -0.440 -0.414 -0.414
 0.110  0.636 -0.571 -0.510 -0.435 -0.410 -0.410
 0.112  0.644 -0.562 -0.504 -0.431 -0.407 -0.407
 0.114  0.651 -0.555 -0.499 -0.428 -0.404 -0.404
 0.116  0.660 -0.548 -0.493 -0.423 -0.401 -0.401
 0.118  0.667 -0.541 -0.488 -0.420 -0.398 -0.398
 0.120  0.676 -0.533 -0.483 -0.416 -0.395 -0.395
 0.122  0.683 -0.526 -0.477 -0.412 -0.392 -0.392
 0.124  0.690 -0.519 -0.472 -0.409 -0.389 -0.389
 0.126  0.697 -0.512 -0.468 -0.405 -0.386 -0.386
 0.128  0.704 -0.504 -0.462 -0.402 -0.384 -0.384
 0.130  0.711 -0.497 -0.458 -0.398 -0.381 -0.381
 0.132  0.717 -0.490 -0.454 -0.396 -0.378 -0.378
 0.134  0.724 -0.484 -0.449 -0.392 -0.376 -0.376
 0.136  0.730 -0.477 -0.444 -0.389 -0.373 -0.373
 0.138  0.737 -0.470 -0.440 -0.386 -0.370 -0.370
 0.140  0.743 -0.464 -0.435 -0.384 -0.368 -0.368
 0.142  0.749 -0.457 -0.432 -0.380 -0.366 -0.366
 0.144  0.754 -0.451 -0.428 -0.378 -0.364 -0.364
 0.146  0.760 -0.444 -0.424 -0.375 -0.361 -0.361
 0.148  0.766 -0.438 -0.419 -0.373 -0.359 -0.359
 0.150  0.771 -0.432 -0.415 -0.369 -0.357 -0.357
 0.152  0.777 -0.426 -0.412 -0.367 -0.355 -0.355
 0.154  0.783 -0.419 -0.407 -0.364 -0.352 -0.352
 0.156  0.789 -0.413 -0.403 -0.361 -0.350 -0.350
 0.158  0.794 -0.407 -0.400 -0.359 -0.348 -0.348
 0.160  0.800 -0.401 -0.396 -0.356 -0.346 -0.346
 0.162  0.804 -0.396 -0.391 -0.354 -0.343 -0.343
 0.164  0.810 -0.390 -0.388 -0.351 -0.341 -0.341
 0.166  0.816 -0.384 -0.384 -0.348 -0.339 -0.339
 0.168  0.821 -0.378 -0.381 -0.346 -0.337 -0.337
 0.170  0.827 -0.372 -0.376 -0.343 -0.334 -0.334
 0.172  0.833 -0.367 -0.372 -0.341 -0.332 -0.332
 0.174  0.839 -0.359 -0.369 -0.338 -0.330 -0.330
 0.176  0.843 -0.354 -0.364 -0.336 -0.328 -0.328
 0.178  0.849 -0.348 -0.361 -0.333 -0.326 -0.326
 0.180  0.854 -0.342 -0.357 -0.330 -0.323 -0.323
 0.182  0.860 -0.336 -0.353 -0.328 -0.321 -0.321
 0.184  0.866 -0.330 -0.349 -0.325 -0.319 -0.319
 0.186  0.871 -0.325 -0.345 -0.323 -0.317 -0.317
 0.188  0.877 -0.319 -0.342 -0.321 -0.314 -0.314
 0.190  0.881 -0.313 -0.338 -0.318 -0.312 -0.312
 0.192  0.887 -0.307 -0.334 -0.316 -0.311 -0.311
 0.194  0.893 -0.301 -0.330 -0.313 -0.308 -0.308
 0.196  0.899 -0.296 -0.327 -0.311 -0.306 -0.306
 0.198  0.904 -0.290 -0.324 -0.308 -0.304 -0.304
 0.200  0.910 -0.284 -0.319 -0.305 -0.302 -0.302
 0.202  0.914 -0.278 -0.316 -0.304 -0.299 -0.299
 0.204  0.920 -0.272 -0.312 -0.301 -0.297 -0.297
 0.206  0.926 -0.267 -0.308 -0.299 -0.295 -0.295
 0.208  0.931 -0.261 -0.305 -0.296 -0.293 -0.293
 0.210  0.936 -0.255 -0.301 -0.293 -0.290 -0.290
 0.212  0.941 -0.249 -0.298 -0.292 -0.288 -0.288
 0.214  0.947 -0.245 -0.293 -0.289 -0.286 -0.286
 0.216  0.953 -0.239 -0.290 -0.287 -0.284 -0.284
 0.218  0.959 -0.233 -0.287 -0.284 -0.281 -0.281
 0.220  0.963 -0.227 -0.283 -0.281 -0.279 -0.279
 0.222  0.969 -0.222 -0.279 -0.280 -0.277 -0.277
 0.224  0.974 -0.216 -0.276 -0.277 -0.275 -0.275
 0.226  0.979 -0.210 -0.273 -0.275 -0.273 -0.273
 0.228  0.984 -0.204 -0.269 -0.273 -0.271 -0.271
 0.230  0.990 -0.200 -0.265 -0.270 -0.269 -0.269
 0.232  0.994 -0.194 -0.262 -0.268 -0.267 -0.267
 0.234  1.000 -0.188 -0.259 -0.266 -0.264 -0.264
 0.236  1.004 -0.183 -0.256 -0.263 -0.262 -0.262
 0.238  1.010 -0.178 -0.253 -0.261 -0.260 -0.260
 0.240  1.014 -0.172 -0.249 -0.259 -0.258 -0.258
 0.242  1.020 -0.167 -0.245 -0.256 -0.256 -0.256
 0.244  1.024 -0.162 -0.242 -0.254 -0.254 -0.254
 0.246  1.028 -0.156 -0.239 -0.252 -0.252 -0.252
 0.248  1.034 -0.152 -0.235 -0.250 -0.250 -0.250
 0.250  1.038 -0.146 -0.232 -0.248 -0.248 -0.248
 0.252  1.043 -0.141 -0.229 -0.245 -0.246 -0.246
 0.254  1.048 -0.136 -0.226 -0.244 -0.244 -0.244
 0.256  1.053 -0.132 -0.224 -0.241 -0.242 -0.242
 0.258  1.057 -0.126 -0.220 -0.238 -0.240 -0.240
 0.260  1.061 -0.122 -0.217 -0.237 -0.238 -0.238
 0.262  1.066 -0.116 -0.214 -0.234 -0.236 -0.236
 0.264  1.071 -0.112 -0.211 -0.232 -0.234 -0.234
 0.266  1.076 -0.107 -0.207 -0.230 -0.232 -0.232
 0.268  1.080 -0.103 -0.204 -0.228 -0.231 -0.231
 0.270  1.084 -0.097 -0.202 -0.226 -0.228 -0.228
 0.272  1.088 -0.093 -0.199 -0.224 -0.227 -0.227
 0.274  1.093 -0.088 -0.196 -0.222 -0.225 -0.225
 0.276  1.097 -0.084 -0.192 -0.220 -0.223 -0.223
 0.278  1.101 -0.080 -0.190 -0.218 -0.221 -0.221
 0.280  1.106 -0.075 -0.187 -0.215 -0.220 -0.220
 0.282  1.110 -0.069 -0.184 -0.213 -0.217 -0.217
 0.284  1.113 -0.065 -0.182 -0.211 -0.216 -0.216
 0.286  1.117 -0.061 -0.178 -0.209 -0.214 -0.214
 0.288  1.121 -0.056 -0.175 -0.207 -0.212 -0.212
 0.290  1.126 -0.052 -0.173 -0.205 -0.211 -0.211
 0.292  1.130 -0.049 -0.170 -0.203 -0.208 -0.208
 0.294  1.134 -0.045 -0.168 -0.201 -0.207 -0.207
 0.296  1.137 -0.040 -0.164 -0.199 -0.205 -0.205
 0.298  1.141 -0.036 -0.162 -0.197 -0.203 -0.203
 0.300  1.146 -0.032 -0.159 -0.195 -0.202 -0.202
 0.302  1.150 -0.027 -0.156 -0.193 -0.200 -0.200
 0.304  1.153 -0.023 -0.154 -0.190 -0.198 -0.198
 0.306  1.157 -0.019 -0.150 -0.189 -0.196 -0.196
 0.308  1.161 -0.016 -0.148 -0.187 -0.195 -0.195
 0.310  1.166 -0.011 -0.145 -0.184 -0.193 -0.193
 0.312  1.168 -0.007 -0.143 -0.183 -0.191 -0.191
 0.314  1.173 -0.003 -0.140 -0.180 -0.190 -0.190
 0.316  1.177  0.002 -0.136 -0.178 -0.187 -0.187
 0.318  1.181  0.006 -0.134 -0.176 -0.186 -0.186
 0.320  1.184  0.009 -0.131 -0.174 -0.184 -0.184
 0.322  1.188  0.013 -0.129 -0.171 -0.182 -0.182
 0.324  1.193  0.018 -0.126 -0.170 -0.181 -0.181
 0.326  1.196  0.022 -0.122 -0.167 -0.179 -0.179
 0.328  1.200  0.026 -0.120 -0.165 -0.177 -0.177
 0.330  1.204  0.029 -0.117 -0.163 -0.175 -0.175
 0.332  1.208  0.033 -0.115 -0.161 -0.174 -0.174
 0.334  1.211  0.038 -0.112 -0.158 -0.172 -0.172
 0.336  1.216  0.042 -0.110 -0.157 -0.170 -0.170
 0.338  1.220  0.047 -0.106 -0.154 -0.169 -0.169
 0.340  1.223  0.049 -0.104 -0.152 -0.167 -0.167
 0.342  1.227  0.054 -0.101 -0.150 -0.165 -0.165
 0.344  1.230  0.058 -0.098 -0.147 -0.164 -0.164
 0.346  1.234  0.062 -0.096 -0.146 -0.162 -0.162
 0.348  1.238  0.065 -0.092 -0.143 -0.160 -0.160
 0.350  1.241  0.070 -0.090 -0.141 -0.158 -0.158
 0.352  1.246  0.074 -0.087 -0.139 -0.157 -0.157
 0.354  1.250  0.078 -0.085 -0.137 -0.155 -0.155
 0.356  1.253  0.081 -0.082 -0.134 -0.153 -0.153
 0.358  1.257  0.086 -0.078 -0.132 -0.152 -0.152
 0.360  1.260  0.090 -0.076 -0.130 -0.150 -0.150
 0.362  1.264  0.093 -0.073 -0.128 -0.148 -0.148
 0.364  1.268  0.097 -0.071 -0.126 -0.146 -0.146
 0.366  1.271  0.102 -0.068 -0.123 -0.145 -0.145
 0.368  1.276  0.106 -0.065 -0.121 -0.143 -0.143
 0.370  1.278  0.109 -0.062 -0.119 -0.141 -0.141
 0.372  1.283  0.113 -0.060 -0.116 -0.140 -0.140
 0.374  1.286  0.118 -0.057 -0.115 -0.137 -0.137
 0.376  1.290  0.120 -0.055 -0.112 -0.136 -0.136
 0.378  1.293  0.125 -0.051 -0.110 -0.134 -0.134
 0.380  1.297  0.129 -0.049 -0.108 -0.132 -0.132
 0.382  1.300  0.134 -0.046 -0.106 -0.131 -0.131
 0.384  1.304  0.136 -0.044 -0.103 -0.128 -0.128
 0.386  1.307  0.141 -0.041 -0.102 -0.127 -0.127
 0.388  1.311  0.145 -0.039 -0.099 -0.125 -0.125
 0.390  1.314  0.149 -0.035 -0.097 -0.123 -0.123
 0.392  1.318  0.152 -0.033 -0.095 -0.121 -0.121
 0.394  1.321  0.157 -0.030 -0.093 -0.119 -0.119
 0.396  1.326  0.161 -0.028 -0.091 -0.117 -0.117
 0.398  1.328  0.165 -0.025 -0.089 -0.116 -0.116
 0.400  1.333  0.168 -0.022 -0.087 -0.114 -0.114
 0.402  1.336  0.173 -0.019 -0.085 -0.112 -0.112
 0.404  1.340  0.177 -0.017 -0.083 -0.110 -0.110
 0.406  1.343  0.181 -0.014 -0.081 -0.108 -0.108
 0.408  1.346  0.186 -0.012 -0.079 -0.106 -0.106
 0.410  1.350  0.189 -0.008 -0.077 -0.104 -0.104
 0.412  1.353  0.193 -0.006 -0.075 -0.102 -0.102
 0.414  1.356  0.197 -0.003 -0.073 -0.100 -0.100
 0.416  1.360  0.202 -0.001 -0.071 -0.099 -0.099
 0.418  1.363  0.206  0.001 -0.069 -0.096 -0.096
 0.420  1.367  0.209  0.004 -0.066 -0.094 -0.094
 0.422  1.370  0.213  0.007 -0.065 -0.093 -0.093
 0.424  1.373  0.218  0.010 -0.063 -0.090 -0.090
 0.426  1.377  0.222  0.012 -0.061 -0.088 -0.088
 0.428  1.380  0.226  0.015 -0.059 -0.087 -0.087
 0.430  1.383  0.231  0.017 -0.057 -0.084 -0.084
 0.432  1.386  0.234  0.020 -0.055 -0.082 -0.082
 0.434  1.390  0.238  0.023 -0.054 -0.081 -0.081
 0.436  1.393  0.242  0.025 -0.052 -0.078 -0.078
 0.438  1.396  0.247  0.028 -0.049 -0.076 -0.076
 0.440  1.398  0.251  0.030 -0.048 -0.075 -0.075
 0.442  1.403  0.255  0.032 -0.046 -0.072 -0.072
 0.444  1.406  0.258  0.036 -0.044 -0.070 -0.070
 0.446  1.408  0.263  0.038 -0.042 -0.069 -0.069
 0.448  1.411  0.267  0.040 -0.040 -0.066 -0.066
 0.450  1.414  0.270  0.042 -0.038 -0.065 -0.065
 0.452  1.417  0.274  0.045 -0.036 -0.063 -0.063
 0.454  1.420  0.277  0.047 -0.035 -0.061 -0.061
 0.456  1.423  0.280  0.050 -0.032 -0.059 -0.059
 0.458  1.426  0.284  0.052 -0.030 -0.058 -0.058
 0.460  1.428  0.287  0.055 -0.029 -0.055 -0.055
 0.462  1.431  0.290  0.057 -0.027 -0.054 -0.054
 0.464  1.434  0.293  0.059 -0.024 -0.052 -0.052
 0.466  1.437  0.296  0.061 -0.023 -0.050 -0.050
 0.468  1.440  0.299  0.064 -0.021 -0.049 -0.049
 0.470  1.443  0.302  0.066 -0.019 -0.047 -0.047
 0.472  1.446  0.305  0.069 -0.017 -0.045 -0.045
 0.474  1.448  0.307  0.071 -0.015 -0.043 -0.043
 0.476  1.451  0.310  0.073 -0.013 -0.042 -0.042
 0.478  1.453  0.313  0.075 -0.011 -0.040 -0.040
 0.480  1.456  0.315  0.078 -0.010 -0.038 -0.038
 0.482  1.458  0.318  0.080 -0.008 -0.037 -0.037
 0.484  1.461  0.321  0.082 -0.005 -0.035 -0.035
 0.486  1.463  0.322  0.084 -0.004 -0.034 -0.034
 0.488  1.465  0.325  0.086 -0.002 -0.032 -0.032
 0.490  1.468  0.326  0.088 -0.000 -0.031 -0.031
 0.492  1.470  0.328  0.090  0.002 -0.029 -0.029
 0.494  1.473  0.331  0.093  0.004 -0.028 -0.028
 0.496  1.475  0.332  0.095  0.006 -0.026 -0.026
 0.498  1.477  0.334  0.097  0.007 -0.025 -0.025
 0.500  1.480  0.335  0.099  0.009 -0.023 -0.023
 0.502  1.481  0.336  0.101  0.012 -0.022 -0.022
 0.504  1.484  0.338  0.103  0.013 -0.020 -0.020
 0.506  1.485  0.339  0.106  0.015 -0.019 -0.019
 0.508  1.488  0.341  0.107  0.017 -0.017 -0.017
 0.510  1.490  0.342  0.109  0.019 -0.016 -0.016
 0.512  1.493  0.344  0.111  0.020 -0.015 -0.015
 0.514  1.494  0.345  0.113  0.022 -0.013 -0.013
 0.516  1.495  0.345  0.114  0.024 -0.012 -0.012
 0.518  1.497  0.347  0.116  0.025 -0.010 -0.010
 0.520  1.500  0.348  0.118  0.027 -0.010 -0.010
 0.522  1.501  0.348  0.120  0.029 -0.008 -0.008
 0.524  1.503  0.350  0.122  0.030 -0.007 -0.007
 0.526  1.504  0.351  0.123  0.032 -0.006 -0.006
 0.528  1.505  0.352  0.125  0.033 -0.005 -0.005
 0.530  1.507  0.352  0.126  0.034 -0.004 -0.004
 0.532  1.508  0.354  0.128  0.036 -0.002 -0.002
 0.534  1.510  0.354  0.129  0.037 -0.001 -0.001
 0.536  1.511  0.355  0.131  0.038 -0.000 -0.000
 0.538  1.513  0.357  0.132  0.039  0.001  0.001
 0.540  1.514  0.357  0.134  0.041  0.002  0.002
 0.542  1.515  0.358  0.136  0.042  0.004  0.004
 0.544  1.517  0.360  0.137  0.043  0.004  0.004
 0.546  1.518  0.360  0.138  0.044  0.005  0.005
 0.548  1.520  0.361  0.139  0.045  0.007  0.007
 0.550  1.520  0.361  0.140  0.046  0.007  0.007
 0.552  1.521  0.363  0.142  0.047  0.009  0.009
 0.554  1.523  0.363  0.143  0.048  0.010  0.010
 0.556  1.523  0.364  0.144  0.049  0.010  0.010
 0.558  1.524  0.364  0.145  0.050  0.011  0.011
 0.560  1.524  0.365  0.146  0.050  0.013  0.013
 0.562  1.525  0.365  0.147  0.051  0.013  0.013
 0.564  1.525  0.367  0.149  0.052  0.014  0.014
 0.566  1.527  0.367  0.150  0.053  0.015  0.015
 0.568  1.527  0.367  0.151  0.054  0.016  0.016
 0.570  1.528  0.368  0.151  0.054  0.017  0.017
 0.572  1.528  0.368  0.152  0.055  0.018  0.018
 0.574  1.528  0.370  0.153  0.056  0.019  0.019
 0.576  1.530  0.370  0.154  0.056  0.019  0.019
 0.578  1.530  0.370  0.154  0.056  0.020  0.020
 0.580  1.530  0.371  0.155  0.057  0.021  0.021
 0.582  1.530  0.371  0.156  0.057  0.022  0.022
 0.584  1.531  0.371  0.156  0.058  0.022  0.022
 0.586  1.531  0.373  0.157  0.058  0.023  0.023
 0.588  1.531  0.373  0.157  0.059  0.024  0.024
 0.590  1.531  0.373  0.158  0.059  0.025  0.025
 0.592  1.531  0.373  0.158  0.060  0.025  0.025
 0.594  1.533  0.374  0.159  0.060  0.026  0.026
 0.596  1.533  0.374  0.159  0.061  0.026  0.026
 0.598  1.533  0.374  0.160  0.061  0.027  0.027
 0.600  1.533  0.374  0.160  0.062  0.028  0.028
 0.602  1.533  0.376  0.160  0.062  0.028  0.028
 0.604  1.533  0.376  0.160  0.062  0.029  0.029
 0.606  1.533  0.376  0.161  0.062  0.030  0.030
 0.608  1.533  0.376  0.161  0.063  0.030  0.030
 0.610  1.533  0.376  0.161  0.063  0.031  0.031
 0.612  1.533  0.377  0.161  0.063  0.031  0.031
 0.614  1.533  0.377  0.161  0.064  0.032  0.032
 0.616  1.533  0.377  0.161  0.064  0.032  0.032
 0.618  1.533  0.377  0.161  0.064  0.033  0.033
 0.620  1.533  0.377  0.161  0.065  0.034  0.034
 0.622  1.533  0.377  0.161  0.065  0.034  0.034
 0.624  1.533  0.377  0.161  0.065  0.034  0.034
 0.626  1.531  0.379  0.161  0.066  0.035  0.035
 0.628  1.531  0.379  0.160  0.066  0.035  0.035
 0.630  1.531  0.379  0.160  0.066  0.036  0.036
 0.632  1.531  0.379  0.160  0.066  0.037  0.037
 0.634  1.531  0.379  0.159  0.067  0.037  0.037
 0.636  1.530  0.379  0.159  0.067  0.037  0.037
 0.638  1.530  0.379  0.159  0.067  0.037  0.037
 0.640  1.530  0.379  0.158  0.067  0.038  0.038
 0.642  1.530  0.379  0.158  0.067  0.038  0.038
 0.644  1.528  0.379  0.157  0.068  0.039  0.039
 0.646  1.528  0.379  0.157  0.068  0.039  0.039
 0.648  1.528  0.379  0.156  0.068  0.040  0.040
 0.650  1.527  0.379  0.156  0.068  0.040  0.040
 0.652  1.527  0.379  0.155  0.068  0.040  0.040
 0.654  1.527  0.379  0.155  0.068  0.040  0.040
 0.656  1.527  0.379  0.154  0.068  0.040  0.040
 0.658  1.525  0.379  0.154  0.068  0.041  0.041
 0.660  1.525  0.379  0.154  0.068  0.041  0.041
 0.662  1.525  0.377  0.153  0.068  0.042  0.042
 0.664  1.524  0.377  0.153  0.068  0.042  0.042
 0.666  1.524  0.377  0.152  0.069  0.043  0.043
 0.668  1.524  0.377  0.152  0.069  0.043  0.043
 0.670  1.523  0.377  0.151  0.069  0.043  0.043
 0.672  1.523  0.376  0.151  0.069  0.043  0.043
 0.674  1.523  0.376  0.151  0.069  0.043  0.043
 0.676  1.521  0.376  0.150  0.070  0.044  0.044
 0.678  1.521  0.374  0.150  0.070  0.044  0.044
 0.680  1.521  0.374  0.150  0.070  0.045  0.045
 0.682  1.521  0.373  0.149  0.070  0.045  0.045
 0.684  1.520  0.373  0.149  0.071  0.045  0.045
 0.686  1.520  0.373  0.149  0.071  0.045  0.045
 0.688  1.520  0.371  0.149  0.071  0.045  0.045
 0.690  1.518  0.371  0.147  0.071  0.046  0.046
 0.692  1.518  0.370  0.147  0.072  0.046  0.046
 0.694  1.518  0.370  0.147  0.072  0.047  0.047
 0.696  1.517  0.368  0.147  0.072  0.047  0.047
 0.698  1.517  0.367  0.147  0.073  0.048  0.048
 0.700  1.517  0.367  0.146  0.073  0.048  0.048
 0.702  1.515  0.365  0.146  0.073  0.048  0.048
 0.704  1.515  0.364  0.146  0.073  0.048  0.048
 0.706  1.515  0.364  0.146  0.074  0.048  0.048
 0.708  1.515  0.363  0.146  0.074  0.049  0.049
 0.710  1.514  0.361  0.146  0.074  0.049  0.049
 0.712  1.514  0.360  0.146  0.074  0.050  0.050
 0.714  1.514  0.358  0.145  0.074  0.050  0.050
 0.716  1.513  0.358  0.145  0.074  0.050  0.050
 0.718  1.513  0.357  0.145  0.075  0.051  0.051
 0.720  1.513  0.355  0.145  0.075  0.051  0.051
 0.722  1.513  0.354  0.145  0.075  0.051  0.051
 0.724  1.511  0.352  0.145  0.076  0.051  0.051
 0.726  1.511  0.351  0.145  0.076  0.052  0.052
 0.728  1.511  0.350  0.145  0.076  0.053  0.053
 0.730  1.511  0.350  0.145  0.077  0.053  0.053
 0.732  1.510  0.348  0.145  0.077  0.054  0.054
 0.734  1.510  0.347  0.145  0.077  0.054  0.054
 0.736  1.510  0.347  0.145  0.078  0.055  0.055
 0.738  1.510  0.347  0.145  0.078  0.056  0.056
 0.740  1.508  0.345  0.145  0.078  0.057  0.057
 0.742  1.508  0.345  0.144  0.078  0.057  0.057
 0.744  1.508  0.345  0.144  0.079  0.059  0.059
 0.746  1.508  0.345  0.144  0.079  0.060  0.060
 0.748  1.508  0.345  0.144  0.079  0.060  0.060
 0.750  1.508  0.345  0.144  0.080  0.062  0.062
 0.752  1.507  0.347  0.144  0.080  0.063  0.063
 0.754  1.507  0.347  0.144  0.080  0.064  0.064
 0.756  1.507  0.347  0.144  0.081  0.065  0.065
 0.758  1.507  0.348  0.144  0.081  0.066  0.066
 0.760  1.507  0.348  0.144  0.081  0.067  0.067
 0.762  1.507  0.350  0.144  0.081  0.069  0.069
 0.764  1.507  0.351  0.144  0.081  0.070  0.070
 0.766  1.507  0.352  0.144  0.081  0.072  0.072
 0.768  1.507  0.354  0.144  0.082  0.073  0.073
 0.770  1.507  0.355  0.144  0.082  0.075  0.075
 0.772  1.507  0.357  0.144  0.082  0.076  0.076
 0.774  1.507  0.360  0.144  0.082  0.078  0.078
 0.776  1.505  0.361  0.144  0.083  0.079  0.079
 0.778  1.505  0.364  0.144  0.083  0.081  0.081
 0.780  1.505  0.365  0.143  0.083  0.083  0.083
 0.782  1.505  0.368  0.143  0.083  0.085  0.085
 0.784  1.505  0.371  0.143  0.083  0.087  0.087
 0.786  1.505  0.374  0.144  0.084  0.089  0.089
 0.788  1.505  0.376  0.144  0.084  0.090  0.090
 0.790  1.507  0.379  0.144  0.085  0.093  0.093
 0.792  1.507  0.381  0.144  0.086  0.094  0.094
 0.794  1.508  0.384  0.145  0.087  0.096  0.096
 0.796  1.508  0.389  0.146  0.087  0.098  0.098
 0.798  1.510  0.392  0.146  0.088  0.100  0.100
 0.800  1.511  0.394  0.149  0.089  0.102  0.102
 0.802  1.513  0.397  0.150  0.091  0.104  0.104
 0.804  1.514  0.400  0.151  0.093  0.107  0.107
 0.806  1.515  0.403  0.153  0.093  0.108  0.108
 0.808  1.518  0.406  0.154  0.096  0.110  0.110
