# IsPeriodic    : True
# Period        : 0.604840 days
# Normalization : <g_mag>=0
# 
# Phase u_mag  g_mag  r_mag  i_mag  z_mag  y_mag
 0.000  0.682 -0.484 -0.479 -0.446 -0.448 -0.448
 0.002  0.682 -0.484 -0.479 -0.446 -0.448 -0.448
 0.004  0.682 -0.483 -0.479 -0.445 -0.448 -0.448
 0.006  0.683 -0.482 -0.479 -0.445 -0.447 -0.447
 0.008  0.684 -0.482 -0.478 -0.444 -0.447 -0.447
 0.010  0.685 -0.480 -0.477 -0.444 -0.446 -0.446
 0.012  0.686 -0.478 -0.476 -0.443 -0.445 -0.445
 0.014  0.687 -0.477 -0.476 -0.442 -0.444 -0.444
 0.016  0.688 -0.475 -0.475 -0.441 -0.443 -0.443
 0.018  0.690 -0.474 -0.474 -0.441 -0.441 -0.441
 0.020  0.691 -0.471 -0.473 -0.440 -0.440 -0.440
 0.022  0.693 -0.469 -0.472 -0.439 -0.438 -0.438
 0.024  0.695 -0.466 -0.470 -0.438 -0.437 -0.437
 0.026  0.696 -0.465 -0.469 -0.437 -0.436 -0.436
 0.028  0.699 -0.462 -0.468 -0.435 -0.434 -0.434
 0.030  0.700 -0.459 -0.466 -0.435 -0.433 -0.433
 0.032  0.702 -0.457 -0.465 -0.433 -0.432 -0.432
 0.034  0.705 -0.454 -0.463 -0.432 -0.431 -0.431
 0.036  0.706 -0.452 -0.462 -0.431 -0.429 -0.429
 0.038  0.708 -0.449 -0.460 -0.430 -0.428 -0.428
 0.040  0.710 -0.446 -0.459 -0.429 -0.427 -0.427
 0.042  0.713 -0.443 -0.457 -0.428 -0.426 -0.426
 0.044  0.715 -0.440 -0.455 -0.427 -0.425 -0.425
 0.046  0.718 -0.437 -0.453 -0.425 -0.423 -0.423
 0.048  0.720 -0.434 -0.452 -0.425 -0.422 -0.422
 0.050  0.722 -0.430 -0.449 -0.423 -0.421 -0.421
 0.052  0.725 -0.426 -0.448 -0.422 -0.419 -0.419
 0.054  0.728 -0.422 -0.446 -0.421 -0.418 -0.418
 0.056  0.731 -0.418 -0.443 -0.419 -0.417 -0.417
 0.058  0.734 -0.415 -0.441 -0.419 -0.416 -0.416
 0.060  0.737 -0.410 -0.439 -0.417 -0.414 -0.414
 0.062  0.740 -0.406 -0.437 -0.416 -0.413 -0.413
 0.064  0.743 -0.402 -0.434 -0.415 -0.412 -0.412
 0.066  0.746 -0.399 -0.432 -0.413 -0.411 -0.411
 0.068  0.749 -0.394 -0.429 -0.412 -0.409 -0.409
 0.070  0.753 -0.389 -0.427 -0.410 -0.408 -0.408
 0.072  0.757 -0.385 -0.425 -0.409 -0.407 -0.407
 0.074  0.760 -0.380 -0.422 -0.408 -0.406 -0.406
 0.076  0.763 -0.375 -0.419 -0.406 -0.404 -0.404
 0.078  0.767 -0.371 -0.416 -0.405 -0.403 -0.403
 0.080  0.771 -0.366 -0.413 -0.403 -0.402 -0.402
 0.082  0.774 -0.361 -0.411 -0.402 -0.401 -0.401
 0.084  0.778 -0.356 -0.408 -0.401 -0.399 -0.399
 0.086  0.781 -0.352 -0.405 -0.399 -0.398 -0.398
 0.088  0.784 -0.347 -0.402 -0.398 -0.397 -0.397
 0.090  0.788 -0.343 -0.400 -0.397 -0.395 -0.395
 0.092  0.792 -0.339 -0.397 -0.395 -0.394 -0.394
 0.094  0.796 -0.334 -0.394 -0.394 -0.393 -0.393
 0.096  0.799 -0.330 -0.391 -0.392 -0.391 -0.391
 0.098  0.803 -0.326 -0.388 -0.391 -0.390 -0.390
 0.100  0.807 -0.321 -0.386 -0.389 -0.389 -0.389
 0.102  0.809 -0.317 -0.384 -0.388 -0.388 -0.388
 0.104  0.813 -0.313 -0.381 -0.386 -0.387 -0.387
 0.106  0.817 -0.309 -0.378 -0.385 -0.386 -0.386
 0.108  0.820 -0.305 -0.375 -0.383 -0.384 -0.384
 0.110  0.824 -0.301 -0.373 -0.382 -0.383 -0.383
 0.112  0.827 -0.297 -0.371 -0.381 -0.382 -0.382
 0.114  0.831 -0.293 -0.368 -0.379 -0.380 -0.380
 0.116  0.834 -0.290 -0.366 -0.378 -0.379 -0.379
 0.118  0.838 -0.286 -0.364 -0.376 -0.378 -0.378
 0.120  0.841 -0.283 -0.361 -0.375 -0.377 -0.377
 0.122  0.845 -0.279 -0.359 -0.374 -0.376 -0.376
 0.124  0.848 -0.275 -0.357 -0.372 -0.375 -0.375
 0.126  0.852 -0.271 -0.355 -0.371 -0.373 -0.373
 0.128  0.855 -0.268 -0.353 -0.369 -0.372 -0.372
 0.130  0.859 -0.265 -0.351 -0.368 -0.371 -0.371
 0.132  0.862 -0.262 -0.349 -0.366 -0.370 -0.370
 0.134  0.865 -0.259 -0.347 -0.365 -0.369 -0.369
 0.136  0.869 -0.255 -0.345 -0.364 -0.367 -0.367
 0.138  0.873 -0.252 -0.343 -0.362 -0.366 -0.366
 0.140  0.876 -0.249 -0.341 -0.361 -0.365 -0.365
 0.142  0.879 -0.246 -0.339 -0.359 -0.364 -0.364
 0.144  0.883 -0.243 -0.337 -0.358 -0.363 -0.363
 0.146  0.887 -0.240 -0.336 -0.357 -0.362 -0.362
 0.148  0.889 -0.237 -0.334 -0.356 -0.361 -0.361
 0.150  0.893 -0.234 -0.332 -0.354 -0.360 -0.360
 0.152  0.896 -0.231 -0.331 -0.353 -0.358 -0.358
 0.154  0.900 -0.228 -0.329 -0.351 -0.357 -0.357
 0.156  0.903 -0.225 -0.327 -0.350 -0.356 -0.356
 0.158  0.906 -0.223 -0.325 -0.349 -0.355 -0.355
 0.160  0.910 -0.219 -0.324 -0.347 -0.354 -0.354
 0.162  0.913 -0.216 -0.322 -0.346 -0.353 -0.353
 0.164  0.917 -0.214 -0.320 -0.345 -0.352 -0.352
 0.166  0.920 -0.211 -0.319 -0.344 -0.351 -0.351
 0.168  0.923 -0.207 -0.317 -0.342 -0.350 -0.350
 0.170  0.926 -0.204 -0.316 -0.341 -0.348 -0.348
 0.172  0.930 -0.202 -0.314 -0.340 -0.347 -0.347
 0.174  0.933 -0.199 -0.312 -0.338 -0.347 -0.347
 0.176  0.936 -0.195 -0.311 -0.337 -0.345 -0.345
 0.178  0.939 -0.192 -0.309 -0.336 -0.344 -0.344
 0.180  0.942 -0.189 -0.308 -0.334 -0.343 -0.343
 0.182  0.946 -0.187 -0.306 -0.333 -0.342 -0.342
 0.184  0.949 -0.183 -0.304 -0.332 -0.341 -0.341
 0.186  0.953 -0.180 -0.302 -0.331 -0.340 -0.340
 0.188  0.955 -0.177 -0.301 -0.329 -0.339 -0.339
 0.190  0.958 -0.174 -0.299 -0.328 -0.338 -0.338
 0.192  0.961 -0.171 -0.297 -0.327 -0.337 -0.337
 0.194  0.965 -0.167 -0.295 -0.325 -0.336 -0.336
 0.196  0.968 -0.165 -0.293 -0.324 -0.335 -0.335
 0.198  0.971 -0.162 -0.292 -0.323 -0.334 -0.334
 0.200  0.974 -0.159 -0.290 -0.322 -0.333 -0.333
 0.202  0.978 -0.155 -0.288 -0.320 -0.332 -0.332
 0.204  0.980 -0.152 -0.286 -0.319 -0.331 -0.331
 0.206  0.983 -0.149 -0.285 -0.318 -0.330 -0.330
 0.208  0.986 -0.146 -0.283 -0.316 -0.329 -0.329
 0.210  0.989 -0.143 -0.281 -0.315 -0.328 -0.328
 0.212  0.993 -0.139 -0.279 -0.314 -0.327 -0.327
 0.214  0.996 -0.136 -0.277 -0.313 -0.326 -0.326
 0.216  0.999 -0.133 -0.276 -0.312 -0.325 -0.325
 0.218  1.002 -0.130 -0.274 -0.310 -0.324 -0.324
 0.220  1.005 -0.127 -0.272 -0.309 -0.323 -0.323
 0.222  1.008 -0.124 -0.270 -0.308 -0.322 -0.322
 0.224  1.011 -0.120 -0.268 -0.307 -0.321 -0.321
 0.226  1.013 -0.117 -0.266 -0.306 -0.320 -0.320
 0.228  1.016 -0.114 -0.264 -0.304 -0.319 -0.319
 0.230  1.019 -0.111 -0.262 -0.303 -0.318 -0.318
 0.232  1.022 -0.108 -0.261 -0.302 -0.317 -0.317
 0.234  1.025 -0.105 -0.259 -0.301 -0.316 -0.316
 0.236  1.028 -0.102 -0.257 -0.300 -0.315 -0.315
 0.238  1.030 -0.099 -0.255 -0.298 -0.314 -0.314
 0.240  1.033 -0.096 -0.253 -0.297 -0.313 -0.313
 0.242  1.036 -0.093 -0.251 -0.296 -0.312 -0.312
 0.244  1.039 -0.091 -0.249 -0.295 -0.311 -0.311
 0.246  1.042 -0.088 -0.248 -0.293 -0.310 -0.310
 0.248  1.044 -0.084 -0.245 -0.293 -0.309 -0.309
 0.250  1.047 -0.082 -0.244 -0.291 -0.308 -0.308
 0.252  1.050 -0.079 -0.242 -0.290 -0.307 -0.307
 0.254  1.052 -0.076 -0.240 -0.289 -0.306 -0.306
 0.256  1.055 -0.074 -0.238 -0.288 -0.305 -0.305
 0.258  1.058 -0.071 -0.236 -0.287 -0.305 -0.305
 0.260  1.060 -0.068 -0.235 -0.285 -0.304 -0.304
 0.262  1.063 -0.066 -0.233 -0.284 -0.303 -0.303
 0.264  1.066 -0.063 -0.231 -0.283 -0.302 -0.302
 0.266  1.069 -0.060 -0.229 -0.282 -0.301 -0.301
 0.268  1.071 -0.058 -0.227 -0.281 -0.300 -0.300
 0.270  1.074 -0.056 -0.226 -0.280 -0.299 -0.299
 0.272  1.076 -0.053 -0.223 -0.278 -0.298 -0.298
 0.274  1.079 -0.051 -0.222 -0.278 -0.297 -0.297
 0.276  1.081 -0.048 -0.220 -0.276 -0.296 -0.296
 0.278  1.084 -0.046 -0.218 -0.275 -0.296 -0.296
 0.280  1.086 -0.044 -0.216 -0.274 -0.294 -0.294
 0.282  1.088 -0.041 -0.214 -0.273 -0.294 -0.294
 0.284  1.091 -0.039 -0.213 -0.271 -0.293 -0.293
 0.286  1.093 -0.036 -0.211 -0.271 -0.292 -0.292
 0.288  1.096 -0.034 -0.209 -0.269 -0.291 -0.291
 0.290  1.099 -0.032 -0.207 -0.268 -0.290 -0.290
 0.292  1.101 -0.030 -0.205 -0.267 -0.289 -0.289
 0.294  1.103 -0.028 -0.203 -0.266 -0.289 -0.289
 0.296  1.105 -0.025 -0.202 -0.265 -0.288 -0.288
 0.298  1.108 -0.023 -0.200 -0.264 -0.287 -0.287
 0.300  1.110 -0.020 -0.198 -0.262 -0.286 -0.286
 0.302  1.113 -0.019 -0.196 -0.262 -0.285 -0.285
 0.304  1.115 -0.016 -0.194 -0.260 -0.284 -0.284
 0.306  1.117 -0.014 -0.193 -0.259 -0.283 -0.283
 0.308  1.120 -0.012 -0.191 -0.258 -0.282 -0.282
 0.310  1.122 -0.009 -0.189 -0.257 -0.281 -0.281
 0.312  1.124 -0.007 -0.187 -0.256 -0.281 -0.281
 0.314  1.126 -0.004 -0.186 -0.255 -0.280 -0.280
 0.316  1.129 -0.003 -0.184 -0.253 -0.279 -0.279
 0.318  1.132 -0.000 -0.182 -0.252 -0.278 -0.278
 0.320  1.134  0.002 -0.181 -0.251 -0.277 -0.277
 0.322  1.136  0.004 -0.179 -0.249 -0.276 -0.276
 0.324  1.138  0.007 -0.177 -0.249 -0.275 -0.275
 0.326  1.141  0.009 -0.175 -0.247 -0.274 -0.274
 0.328  1.143  0.012 -0.174 -0.246 -0.273 -0.273
 0.330  1.146  0.014 -0.172 -0.245 -0.272 -0.272
 0.332  1.148  0.016 -0.170 -0.243 -0.271 -0.271
 0.334  1.150  0.019 -0.169 -0.242 -0.270 -0.270
 0.336  1.152  0.021 -0.167 -0.241 -0.269 -0.269
 0.338  1.155  0.024 -0.166 -0.240 -0.268 -0.268
 0.340  1.157  0.026 -0.164 -0.238 -0.267 -0.267
 0.342  1.160  0.028 -0.162 -0.237 -0.266 -0.266
 0.344  1.162  0.031 -0.161 -0.236 -0.265 -0.265
 0.346  1.164  0.033 -0.159 -0.234 -0.264 -0.264
 0.348  1.166  0.036 -0.158 -0.233 -0.263 -0.263
 0.350  1.169  0.038 -0.156 -0.232 -0.262 -0.262
 0.352  1.171  0.040 -0.154 -0.230 -0.261 -0.261
 0.354  1.173  0.043 -0.153 -0.229 -0.260 -0.260
 0.356  1.176  0.045 -0.151 -0.228 -0.259 -0.259
 0.358  1.178  0.048 -0.150 -0.227 -0.258 -0.258
 0.360  1.180  0.050 -0.148 -0.225 -0.257 -0.257
 0.362  1.182  0.052 -0.147 -0.224 -0.256 -0.256
 0.364  1.185  0.055 -0.145 -0.222 -0.255 -0.255
 0.366  1.187  0.057 -0.144 -0.221 -0.254 -0.254
 0.368  1.190  0.060 -0.142 -0.220 -0.253 -0.253
 0.370  1.192  0.062 -0.141 -0.218 -0.251 -0.251
 0.372  1.194  0.064 -0.139 -0.217 -0.250 -0.250
 0.374  1.196  0.067 -0.138 -0.215 -0.249 -0.249
 0.376  1.198  0.069 -0.136 -0.214 -0.248 -0.248
 0.378  1.200  0.071 -0.135 -0.213 -0.247 -0.247
 0.380  1.202  0.073 -0.133 -0.212 -0.246 -0.246
 0.382  1.204  0.076 -0.132 -0.210 -0.245 -0.245
 0.384  1.206  0.078 -0.131 -0.209 -0.244 -0.244
 0.386  1.208  0.080 -0.129 -0.207 -0.243 -0.243
 0.388  1.210  0.082 -0.128 -0.206 -0.242 -0.242
 0.390  1.212  0.084 -0.126 -0.205 -0.241 -0.241
 0.392  1.214  0.087 -0.125 -0.203 -0.240 -0.240
 0.394  1.216  0.088 -0.124 -0.202 -0.238 -0.238
 0.396  1.217  0.091 -0.122 -0.201 -0.238 -0.238
 0.398  1.220  0.093 -0.121 -0.199 -0.236 -0.236
 0.400  1.221  0.095 -0.119 -0.198 -0.236 -0.236
 0.402  1.223  0.097 -0.118 -0.197 -0.234 -0.234
 0.404  1.225  0.099 -0.117 -0.196 -0.233 -0.233
 0.406  1.227  0.101 -0.115 -0.195 -0.233 -0.233
 0.408  1.229  0.103 -0.114 -0.193 -0.231 -0.231
 0.410  1.230  0.105 -0.113 -0.192 -0.231 -0.231
 0.412  1.231  0.107 -0.112 -0.191 -0.229 -0.229
 0.414  1.234  0.108 -0.110 -0.190 -0.229 -0.229
 0.416  1.235  0.111 -0.109 -0.189 -0.227 -0.227
 0.418  1.237  0.112 -0.108 -0.187 -0.227 -0.227
 0.420  1.238  0.114 -0.106 -0.187 -0.225 -0.225
 0.422  1.240  0.116 -0.105 -0.185 -0.225 -0.225
 0.424  1.241  0.118 -0.104 -0.184 -0.223 -0.223
 0.426  1.242  0.120 -0.103 -0.183 -0.223 -0.223
 0.428  1.244  0.121 -0.101 -0.182 -0.222 -0.222
 0.430  1.245  0.124 -0.100 -0.181 -0.221 -0.221
 0.432  1.247  0.125 -0.099 -0.180 -0.220 -0.220
 0.434  1.248  0.127 -0.098 -0.179 -0.219 -0.219
 0.436  1.250  0.128 -0.097 -0.178 -0.218 -0.218
 0.438  1.251  0.130 -0.095 -0.177 -0.217 -0.217
 0.440  1.253  0.131 -0.094 -0.176 -0.216 -0.216
 0.442  1.254  0.133 -0.093 -0.175 -0.215 -0.215
 0.444  1.256  0.135 -0.092 -0.174 -0.214 -0.214
 0.446  1.257  0.136 -0.091 -0.173 -0.213 -0.213
 0.448  1.259  0.138 -0.090 -0.172 -0.212 -0.212
 0.450  1.260  0.139 -0.089 -0.171 -0.212 -0.212
 0.452  1.262  0.141 -0.088 -0.170 -0.210 -0.210
 0.454  1.263  0.143 -0.086 -0.169 -0.210 -0.210
 0.456  1.264  0.144 -0.085 -0.168 -0.209 -0.209
 0.458  1.266  0.146 -0.084 -0.167 -0.208 -0.208
 0.460  1.267  0.147 -0.083 -0.166 -0.207 -0.207
 0.462  1.269  0.148 -0.082 -0.165 -0.206 -0.206
 0.464  1.270  0.150 -0.081 -0.164 -0.205 -0.205
 0.466  1.272  0.151 -0.080 -0.163 -0.205 -0.205
 0.468  1.274  0.153 -0.079 -0.162 -0.204 -0.204
 0.470  1.275  0.154 -0.078 -0.161 -0.203 -0.203
 0.472  1.277  0.155 -0.077 -0.160 -0.202 -0.202
 0.474  1.278  0.157 -0.076 -0.159 -0.201 -0.201
 0.476  1.280  0.158 -0.075 -0.158 -0.200 -0.200
 0.478  1.281  0.159 -0.074 -0.157 -0.199 -0.199
 0.480  1.284  0.161 -0.073 -0.156 -0.199 -0.199
 0.482  1.285  0.162 -0.072 -0.155 -0.197 -0.197
 0.484  1.286  0.163 -0.071 -0.154 -0.197 -0.197
 0.486  1.288  0.164 -0.070 -0.153 -0.196 -0.196
 0.488  1.290  0.166 -0.069 -0.152 -0.195 -0.195
 0.490  1.292  0.167 -0.068 -0.152 -0.194 -0.194
 0.492  1.293  0.168 -0.067 -0.150 -0.193 -0.193
 0.494  1.295  0.169 -0.066 -0.149 -0.193 -0.193
 0.496  1.297  0.171 -0.065 -0.149 -0.192 -0.192
 0.498  1.299  0.171 -0.064 -0.148 -0.191 -0.191
 0.500  1.300  0.172 -0.063 -0.147 -0.190 -0.190
 0.502  1.303  0.174 -0.062 -0.146 -0.190 -0.190
 0.504  1.304  0.175 -0.061 -0.145 -0.189 -0.189
 0.506  1.306  0.175 -0.060 -0.144 -0.188 -0.188
 0.508  1.308  0.177 -0.059 -0.143 -0.187 -0.187
 0.510  1.309  0.178 -0.058 -0.142 -0.186 -0.186
 0.512  1.311  0.179 -0.057 -0.141 -0.186 -0.186
 0.514  1.312  0.179 -0.057 -0.140 -0.185 -0.185
 0.516  1.314  0.181 -0.056 -0.139 -0.184 -0.184
 0.518  1.315  0.182 -0.054 -0.139 -0.183 -0.183
 0.520  1.317  0.183 -0.054 -0.138 -0.182 -0.182
 0.522  1.318  0.183 -0.053 -0.137 -0.182 -0.182
 0.524  1.319  0.184 -0.052 -0.136 -0.181 -0.181
 0.526  1.320  0.185 -0.051 -0.135 -0.180 -0.180
 0.528  1.321  0.186 -0.051 -0.134 -0.180 -0.180
 0.530  1.322  0.187 -0.050 -0.133 -0.179 -0.179
 0.532  1.323  0.187 -0.049 -0.133 -0.178 -0.178
 0.534  1.325  0.189 -0.049 -0.132 -0.177 -0.177
 0.536  1.325  0.190 -0.048 -0.131 -0.177 -0.177
 0.538  1.326  0.190 -0.047 -0.130 -0.176 -0.176
 0.540  1.327  0.191 -0.046 -0.130 -0.175 -0.175
 0.542  1.328  0.191 -0.046 -0.129 -0.175 -0.175
 0.544  1.328  0.192 -0.045 -0.129 -0.174 -0.174
 0.546  1.329  0.193 -0.045 -0.128 -0.173 -0.173
 0.548  1.329  0.194 -0.044 -0.127 -0.173 -0.173
 0.550  1.330  0.195 -0.044 -0.127 -0.172 -0.172
 0.552  1.330  0.195 -0.043 -0.126 -0.172 -0.172
 0.554  1.331  0.196 -0.043 -0.125 -0.171 -0.171
 0.556  1.331  0.196 -0.042 -0.125 -0.171 -0.171
 0.558  1.331  0.197 -0.042 -0.124 -0.170 -0.170
 0.560  1.331  0.198 -0.041 -0.124 -0.169 -0.169
 0.562  1.331  0.199 -0.040 -0.123 -0.169 -0.169
 0.564  1.331  0.199 -0.040 -0.123 -0.168 -0.168
 0.566  1.331  0.199 -0.039 -0.122 -0.167 -0.167
 0.568  1.331  0.200 -0.039 -0.122 -0.167 -0.167
 0.570  1.331  0.200 -0.039 -0.121 -0.166 -0.166
 0.572  1.331  0.201 -0.038 -0.121 -0.166 -0.166
 0.574  1.331  0.202 -0.038 -0.120 -0.165 -0.165
 0.576  1.331  0.202 -0.038 -0.120 -0.165 -0.165
 0.578  1.330  0.203 -0.038 -0.119 -0.164 -0.164
 0.580  1.330  0.203 -0.037 -0.119 -0.164 -0.164
 0.582  1.330  0.203 -0.037 -0.119 -0.163 -0.163
 0.584  1.329  0.203 -0.037 -0.118 -0.163 -0.163
 0.586  1.329  0.204 -0.037 -0.118 -0.162 -0.162
 0.588  1.329  0.204 -0.036 -0.117 -0.162 -0.162
 0.590  1.328  0.205 -0.036 -0.117 -0.161 -0.161
 0.592  1.328  0.205 -0.036 -0.117 -0.161 -0.161
 0.594  1.328  0.205 -0.036 -0.117 -0.160 -0.160
 0.596  1.328  0.206 -0.035 -0.116 -0.160 -0.160
 0.598  1.328  0.206 -0.035 -0.116 -0.159 -0.159
 0.600  1.328  0.206 -0.035 -0.115 -0.159 -0.159
 0.602  1.328  0.207 -0.035 -0.115 -0.158 -0.158
 0.604  1.328  0.207 -0.034 -0.115 -0.158 -0.158
 0.606  1.328  0.207 -0.034 -0.114 -0.157 -0.157
 0.608  1.327  0.207 -0.033 -0.114 -0.157 -0.157
 0.610  1.327  0.207 -0.033 -0.114 -0.156 -0.156
 0.612  1.327  0.207 -0.033 -0.114 -0.156 -0.156
 0.614  1.327  0.207 -0.033 -0.113 -0.155 -0.155
 0.616  1.327  0.207 -0.032 -0.113 -0.155 -0.155
 0.618  1.327  0.207 -0.032 -0.112 -0.154 -0.154
 0.620  1.327  0.207 -0.032 -0.112 -0.154 -0.154
 0.622  1.327  0.207 -0.031 -0.112 -0.153 -0.153
 0.624  1.327  0.208 -0.031 -0.111 -0.153 -0.153
 0.626  1.327  0.208 -0.031 -0.111 -0.152 -0.152
 0.628  1.327  0.208 -0.030 -0.111 -0.152 -0.152
 0.630  1.327  0.207 -0.030 -0.111 -0.151 -0.151
 0.632  1.327  0.207 -0.030 -0.110 -0.151 -0.151
 0.634  1.327  0.207 -0.029 -0.110 -0.150 -0.150
 0.636  1.328  0.207 -0.029 -0.110 -0.150 -0.150
 0.638  1.328  0.207 -0.029 -0.109 -0.149 -0.149
 0.640  1.328  0.207 -0.029 -0.109 -0.149 -0.149
 0.642  1.328  0.207 -0.028 -0.108 -0.148 -0.148
 0.644  1.328  0.207 -0.028 -0.108 -0.148 -0.148
 0.646  1.328  0.207 -0.027 -0.108 -0.147 -0.147
 0.648  1.328  0.207 -0.027 -0.108 -0.147 -0.147
 0.650  1.328  0.207 -0.026 -0.107 -0.146 -0.146
 0.652  1.329  0.207 -0.026 -0.107 -0.146 -0.146
 0.654  1.329  0.207 -0.026 -0.107 -0.145 -0.145
 0.656  1.329  0.207 -0.025 -0.106 -0.145 -0.145
 0.658  1.330  0.207 -0.025 -0.106 -0.144 -0.144
 0.660  1.330  0.207 -0.024 -0.105 -0.143 -0.143
 0.662  1.330  0.207 -0.024 -0.105 -0.143 -0.143
 0.664  1.331  0.207 -0.023 -0.105 -0.143 -0.143
 0.666  1.331  0.207 -0.022 -0.104 -0.142 -0.142
 0.668  1.331  0.207 -0.022 -0.104 -0.141 -0.141
 0.670  1.331  0.207 -0.021 -0.103 -0.141 -0.141
 0.672  1.331  0.207 -0.019 -0.102 -0.140 -0.140
 0.674  1.332  0.207 -0.019 -0.102 -0.139 -0.139
 0.676  1.332  0.207 -0.017 -0.101 -0.139 -0.139
 0.678  1.332  0.208 -0.016 -0.100 -0.138 -0.138
 0.680  1.333  0.208 -0.015 -0.099 -0.138 -0.138
 0.682  1.333  0.209 -0.013 -0.098 -0.137 -0.137
 0.684  1.333  0.209 -0.012 -0.097 -0.136 -0.136
 0.686  1.333  0.210 -0.011 -0.095 -0.136 -0.136
 0.688  1.334  0.210 -0.009 -0.094 -0.135 -0.135
 0.690  1.334  0.211 -0.008 -0.093 -0.134 -0.134
 0.692  1.335  0.211 -0.006 -0.092 -0.134 -0.134
 0.694  1.335  0.211 -0.004 -0.091 -0.133 -0.133
 0.696  1.336  0.212 -0.003 -0.089 -0.132 -0.132
 0.698  1.336  0.213 -0.001 -0.088 -0.132 -0.132
 0.700  1.336  0.214  0.001 -0.086 -0.131 -0.131
 0.702  1.337  0.215  0.003 -0.085 -0.130 -0.130
 0.704  1.337  0.215  0.005 -0.083 -0.129 -0.129
 0.706  1.338  0.216  0.007 -0.082 -0.129 -0.129
 0.708  1.339  0.217  0.009 -0.080 -0.128 -0.128
 0.710  1.339  0.218  0.012 -0.078 -0.127 -0.127
 0.712  1.339  0.219  0.014 -0.076 -0.126 -0.126
 0.714  1.339  0.219  0.017 -0.074 -0.126 -0.126
 0.716  1.340  0.220  0.019 -0.072 -0.125 -0.125
 0.718  1.341  0.221  0.022 -0.070 -0.124 -0.124
 0.720  1.341  0.222  0.025 -0.068 -0.123 -0.123
 0.722  1.342  0.223  0.028 -0.066 -0.122 -0.122
 0.724  1.342  0.224  0.030 -0.064 -0.122 -0.122
 0.726  1.343  0.226  0.033 -0.061 -0.120 -0.120
 0.728  1.344  0.227  0.036 -0.059 -0.120 -0.120
 0.730  1.344  0.228  0.038 -0.057 -0.119 -0.119
 0.732  1.346  0.230  0.040 -0.055 -0.118 -0.118
 0.734  1.347  0.231  0.043 -0.053 -0.117 -0.117
 0.736  1.348  0.233  0.045 -0.051 -0.116 -0.116
 0.738  1.349  0.235  0.047 -0.048 -0.115 -0.115
 0.740  1.350  0.236  0.049 -0.047 -0.114 -0.114
 0.742  1.352  0.238  0.051 -0.045 -0.113 -0.113
 0.744  1.353  0.239  0.053 -0.043 -0.111 -0.111
 0.746  1.355  0.242  0.054 -0.041 -0.110 -0.110
 0.748  1.356  0.243  0.056 -0.039 -0.109 -0.109
 0.750  1.358  0.246  0.057 -0.037 -0.107 -0.107
 0.752  1.359  0.247  0.058 -0.036 -0.106 -0.106
 0.754  1.361  0.250  0.059 -0.034 -0.105 -0.105
 0.756  1.362  0.251  0.059 -0.033 -0.104 -0.104
 0.758  1.364  0.254  0.060 -0.031 -0.102 -0.102
 0.760  1.366  0.256  0.060 -0.029 -0.100 -0.100
 0.762  1.367  0.258  0.060 -0.028 -0.099 -0.099
 0.764  1.369  0.260  0.060 -0.027 -0.098 -0.098
 0.766  1.372  0.263  0.060 -0.026 -0.096 -0.096
 0.768  1.374  0.266  0.060 -0.025 -0.094 -0.094
 0.770  1.376  0.268  0.060 -0.023 -0.092 -0.092
 0.772  1.378  0.271  0.059 -0.023 -0.091 -0.091
 0.774  1.381  0.274  0.058 -0.022 -0.089 -0.089
 0.776  1.383  0.277  0.058 -0.021 -0.087 -0.087
 0.778  1.386  0.280  0.057 -0.020 -0.085 -0.085
 0.780  1.389  0.283  0.056 -0.019 -0.083 -0.083
 0.782  1.392  0.287  0.054 -0.018 -0.081 -0.081
 0.784  1.394  0.290  0.053 -0.018 -0.079 -0.079
 0.786  1.397  0.293  0.051 -0.017 -0.077 -0.077
 0.788  1.400  0.295  0.050 -0.017 -0.075 -0.075
 0.790  1.402  0.299  0.047 -0.016 -0.073 -0.073
 0.792  1.405  0.301  0.045 -0.015 -0.071 -0.071
 0.794  1.407  0.303  0.043 -0.015 -0.069 -0.069
 0.796  1.409  0.306  0.041 -0.015 -0.067 -0.067
 0.798  1.411  0.308  0.038 -0.014 -0.065 -0.065
 0.800  1.412  0.310  0.036 -0.014 -0.063 -0.063
 0.802  1.413  0.311  0.033 -0.014 -0.061 -0.061
 0.804  1.414  0.313  0.030 -0.015 -0.059 -0.059
 0.806  1.415  0.314  0.026 -0.015 -0.058 -0.058
 0.808  1.416  0.315  0.023 -0.016 -0.056 -0.056
