# IsPeriodic    : True
# Period        : 0.708587 days
# Normalization : <g_mag>=0
# 
# Phase u_mag  g_mag  r_mag  i_mag  z_mag  y_mag
 0.000  0.574 -0.579 -0.549 -0.533 -0.506 -0.506
 0.002  0.574 -0.579 -0.549 -0.533 -0.506 -0.506
 0.004  0.575 -0.578 -0.548 -0.532 -0.505 -0.505
 0.006  0.576 -0.577 -0.548 -0.532 -0.505 -0.505
 0.008  0.578 -0.576 -0.547 -0.531 -0.505 -0.505
 0.010  0.579 -0.574 -0.546 -0.530 -0.504 -0.504
 0.012  0.581 -0.572 -0.545 -0.529 -0.504 -0.504
 0.014  0.583 -0.570 -0.545 -0.528 -0.503 -0.503
 0.016  0.586 -0.568 -0.543 -0.526 -0.502 -0.502
 0.018  0.589 -0.566 -0.542 -0.524 -0.502 -0.502
 0.020  0.592 -0.563 -0.541 -0.523 -0.501 -0.501
 0.022  0.594 -0.560 -0.539 -0.521 -0.500 -0.500
 0.024  0.597 -0.558 -0.537 -0.520 -0.499 -0.499
 0.026  0.601 -0.556 -0.536 -0.518 -0.498 -0.498
 0.028  0.604 -0.553 -0.535 -0.516 -0.497 -0.497
 0.030  0.606 -0.549 -0.533 -0.514 -0.496 -0.496
 0.032  0.610 -0.546 -0.531 -0.513 -0.496 -0.496
 0.034  0.613 -0.543 -0.529 -0.511 -0.495 -0.495
 0.036  0.616 -0.540 -0.527 -0.509 -0.494 -0.494
 0.038  0.619 -0.537 -0.525 -0.507 -0.493 -0.493
 0.040  0.623 -0.533 -0.523 -0.506 -0.491 -0.491
 0.042  0.626 -0.530 -0.521 -0.504 -0.490 -0.490
 0.044  0.630 -0.526 -0.519 -0.502 -0.489 -0.489
 0.046  0.633 -0.522 -0.517 -0.500 -0.488 -0.488
 0.048  0.637 -0.518 -0.515 -0.499 -0.487 -0.487
 0.050  0.641 -0.514 -0.512 -0.497 -0.485 -0.485
 0.052  0.644 -0.510 -0.510 -0.495 -0.484 -0.484
 0.054  0.649 -0.505 -0.508 -0.493 -0.483 -0.483
 0.056  0.653 -0.500 -0.505 -0.491 -0.481 -0.481
 0.058  0.657 -0.496 -0.502 -0.489 -0.480 -0.480
 0.060  0.661 -0.491 -0.500 -0.487 -0.478 -0.478
 0.062  0.666 -0.486 -0.497 -0.485 -0.477 -0.477
 0.064  0.670 -0.481 -0.494 -0.483 -0.475 -0.475
 0.066  0.675 -0.476 -0.491 -0.481 -0.474 -0.474
 0.068  0.680 -0.471 -0.488 -0.479 -0.472 -0.472
 0.070  0.684 -0.465 -0.484 -0.477 -0.470 -0.470
 0.072  0.690 -0.460 -0.482 -0.475 -0.469 -0.469
 0.074  0.695 -0.454 -0.478 -0.473 -0.467 -0.467
 0.076  0.699 -0.449 -0.475 -0.471 -0.465 -0.465
 0.078  0.705 -0.443 -0.472 -0.469 -0.463 -0.463
 0.080  0.709 -0.437 -0.468 -0.466 -0.462 -0.462
 0.082  0.714 -0.431 -0.464 -0.464 -0.460 -0.460
 0.084  0.720 -0.426 -0.461 -0.462 -0.458 -0.458
 0.086  0.724 -0.421 -0.458 -0.460 -0.456 -0.456
 0.088  0.729 -0.415 -0.454 -0.458 -0.455 -0.455
 0.090  0.735 -0.409 -0.451 -0.456 -0.453 -0.453
 0.092  0.739 -0.405 -0.447 -0.453 -0.451 -0.451
 0.094  0.744 -0.399 -0.444 -0.452 -0.450 -0.450
 0.096  0.749 -0.394 -0.440 -0.449 -0.448 -0.448
 0.098  0.754 -0.389 -0.437 -0.447 -0.446 -0.446
 0.100  0.759 -0.384 -0.434 -0.445 -0.445 -0.445
 0.102  0.763 -0.379 -0.431 -0.443 -0.443 -0.443
 0.104  0.768 -0.374 -0.428 -0.441 -0.442 -0.442
 0.106  0.773 -0.369 -0.424 -0.439 -0.440 -0.440
 0.108  0.778 -0.365 -0.421 -0.437 -0.439 -0.439
 0.110  0.783 -0.360 -0.419 -0.435 -0.437 -0.437
 0.112  0.787 -0.355 -0.415 -0.433 -0.436 -0.436
 0.114  0.792 -0.350 -0.413 -0.431 -0.434 -0.434
 0.116  0.797 -0.346 -0.410 -0.429 -0.433 -0.433
 0.118  0.801 -0.342 -0.407 -0.427 -0.431 -0.431
 0.120  0.806 -0.338 -0.404 -0.426 -0.430 -0.430
 0.122  0.811 -0.333 -0.401 -0.424 -0.429 -0.429
 0.124  0.814 -0.329 -0.399 -0.422 -0.427 -0.427
 0.126  0.819 -0.324 -0.396 -0.420 -0.426 -0.426
 0.128  0.824 -0.321 -0.393 -0.418 -0.424 -0.424
 0.130  0.828 -0.317 -0.391 -0.416 -0.423 -0.423
 0.132  0.833 -0.313 -0.389 -0.415 -0.422 -0.422
 0.134  0.837 -0.309 -0.386 -0.413 -0.420 -0.420
 0.136  0.841 -0.305 -0.383 -0.411 -0.419 -0.419
 0.138  0.846 -0.301 -0.381 -0.409 -0.418 -0.418
 0.140  0.850 -0.298 -0.379 -0.408 -0.417 -0.417
 0.142  0.854 -0.294 -0.377 -0.406 -0.415 -0.415
 0.144  0.859 -0.290 -0.374 -0.404 -0.415 -0.415
 0.146  0.863 -0.287 -0.372 -0.402 -0.413 -0.413
 0.148  0.867 -0.283 -0.370 -0.401 -0.412 -0.412
 0.150  0.871 -0.279 -0.368 -0.400 -0.411 -0.411
 0.152  0.876 -0.276 -0.366 -0.398 -0.410 -0.410
 0.154  0.879 -0.273 -0.363 -0.396 -0.409 -0.409
 0.156  0.884 -0.269 -0.361 -0.395 -0.407 -0.407
 0.158  0.888 -0.266 -0.359 -0.393 -0.406 -0.406
 0.160  0.891 -0.262 -0.357 -0.391 -0.405 -0.405
 0.162  0.896 -0.258 -0.355 -0.390 -0.404 -0.404
 0.164  0.900 -0.256 -0.353 -0.389 -0.403 -0.403
 0.166  0.903 -0.252 -0.351 -0.387 -0.401 -0.401
 0.168  0.908 -0.248 -0.349 -0.386 -0.400 -0.400
 0.170  0.912 -0.244 -0.347 -0.384 -0.399 -0.399
 0.172  0.916 -0.241 -0.345 -0.382 -0.398 -0.398
 0.174  0.919 -0.237 -0.343 -0.381 -0.397 -0.397
 0.176  0.923 -0.234 -0.341 -0.379 -0.395 -0.395
 0.178  0.928 -0.230 -0.339 -0.378 -0.394 -0.394
 0.180  0.931 -0.226 -0.337 -0.376 -0.393 -0.393
 0.182  0.935 -0.223 -0.335 -0.375 -0.392 -0.392
 0.184  0.939 -0.219 -0.333 -0.374 -0.391 -0.391
 0.186  0.942 -0.215 -0.331 -0.372 -0.389 -0.389
 0.188  0.946 -0.212 -0.329 -0.371 -0.388 -0.388
 0.190  0.950 -0.208 -0.327 -0.369 -0.387 -0.387
 0.192  0.954 -0.204 -0.324 -0.368 -0.386 -0.386
 0.194  0.956 -0.200 -0.322 -0.366 -0.385 -0.385
 0.196  0.960 -0.197 -0.320 -0.365 -0.383 -0.383
 0.198  0.964 -0.193 -0.318 -0.363 -0.382 -0.382
 0.200  0.968 -0.190 -0.316 -0.362 -0.381 -0.381
 0.202  0.971 -0.186 -0.314 -0.361 -0.380 -0.380
 0.204  0.974 -0.182 -0.312 -0.359 -0.379 -0.379
 0.206  0.978 -0.178 -0.310 -0.358 -0.377 -0.377
 0.208  0.981 -0.174 -0.307 -0.356 -0.376 -0.376
 0.210  0.984 -0.171 -0.305 -0.355 -0.375 -0.375
 0.212  0.988 -0.167 -0.302 -0.354 -0.374 -0.374
 0.214  0.992 -0.163 -0.300 -0.352 -0.373 -0.373
 0.216  0.994 -0.159 -0.298 -0.351 -0.371 -0.371
 0.218  0.998 -0.155 -0.296 -0.350 -0.370 -0.370
 0.220  1.001 -0.151 -0.294 -0.348 -0.369 -0.369
 0.222  1.005 -0.148 -0.291 -0.347 -0.368 -0.368
 0.224  1.007 -0.144 -0.289 -0.346 -0.367 -0.367
 0.226  1.011 -0.140 -0.286 -0.344 -0.365 -0.365
 0.228  1.014 -0.136 -0.284 -0.343 -0.364 -0.364
 0.230  1.018 -0.132 -0.282 -0.342 -0.363 -0.363
 0.232  1.020 -0.129 -0.280 -0.340 -0.362 -0.362
 0.234  1.023 -0.126 -0.278 -0.339 -0.360 -0.360
 0.236  1.027 -0.122 -0.275 -0.338 -0.359 -0.359
 0.238  1.030 -0.118 -0.273 -0.336 -0.358 -0.358
 0.240  1.033 -0.115 -0.270 -0.335 -0.357 -0.357
 0.242  1.036 -0.111 -0.268 -0.334 -0.356 -0.356
 0.244  1.039 -0.108 -0.266 -0.332 -0.354 -0.354
 0.246  1.042 -0.105 -0.264 -0.331 -0.353 -0.353
 0.248  1.046 -0.101 -0.261 -0.329 -0.352 -0.352
 0.250  1.048 -0.098 -0.259 -0.328 -0.351 -0.351
 0.252  1.051 -0.094 -0.256 -0.326 -0.350 -0.350
 0.254  1.055 -0.091 -0.254 -0.325 -0.349 -0.349
 0.256  1.058 -0.088 -0.252 -0.323 -0.348 -0.348
 0.258  1.060 -0.085 -0.250 -0.321 -0.346 -0.346
 0.260  1.063 -0.082 -0.248 -0.320 -0.345 -0.345
 0.262  1.067 -0.079 -0.245 -0.318 -0.344 -0.344
 0.264  1.070 -0.075 -0.243 -0.317 -0.343 -0.343
 0.266  1.072 -0.072 -0.241 -0.316 -0.342 -0.342
 0.268  1.075 -0.069 -0.238 -0.314 -0.340 -0.340
 0.270  1.078 -0.066 -0.237 -0.312 -0.339 -0.339
 0.272  1.082 -0.064 -0.234 -0.311 -0.338 -0.338
 0.274  1.085 -0.061 -0.232 -0.309 -0.337 -0.337
 0.276  1.087 -0.058 -0.230 -0.307 -0.335 -0.335
 0.278  1.090 -0.055 -0.227 -0.306 -0.334 -0.334
 0.280  1.093 -0.052 -0.225 -0.304 -0.333 -0.333
 0.282  1.096 -0.049 -0.223 -0.303 -0.332 -0.332
 0.284  1.098 -0.046 -0.221 -0.301 -0.330 -0.330
 0.286  1.101 -0.043 -0.219 -0.299 -0.329 -0.329
 0.288  1.104 -0.041 -0.216 -0.298 -0.328 -0.328
 0.290  1.107 -0.038 -0.214 -0.296 -0.327 -0.327
 0.292  1.110 -0.036 -0.211 -0.294 -0.326 -0.326
 0.294  1.113 -0.033 -0.209 -0.292 -0.324 -0.324
 0.296  1.116 -0.030 -0.207 -0.291 -0.323 -0.323
 0.298  1.119 -0.027 -0.205 -0.289 -0.322 -0.322
 0.300  1.122 -0.024 -0.203 -0.287 -0.321 -0.321
 0.302  1.124 -0.022 -0.201 -0.285 -0.319 -0.319
 0.304  1.127 -0.020 -0.198 -0.284 -0.318 -0.318
 0.306  1.130 -0.017 -0.196 -0.282 -0.317 -0.317
 0.308  1.132 -0.014 -0.194 -0.280 -0.316 -0.316
 0.310  1.135 -0.011 -0.192 -0.278 -0.314 -0.314
 0.312  1.137 -0.008 -0.189 -0.277 -0.313 -0.313
 0.314  1.140 -0.005 -0.187 -0.276 -0.312 -0.312
 0.316  1.143 -0.003 -0.185 -0.274 -0.311 -0.311
 0.318  1.146 -0.000 -0.183 -0.272 -0.309 -0.309
 0.320  1.149  0.002 -0.181 -0.270 -0.308 -0.308
 0.322  1.151  0.005 -0.179 -0.269 -0.307 -0.307
 0.324  1.154  0.008 -0.177 -0.267 -0.306 -0.306
 0.326  1.157  0.011 -0.175 -0.266 -0.304 -0.304
 0.328  1.160  0.014 -0.173 -0.265 -0.303 -0.303
 0.330  1.163  0.017 -0.171 -0.263 -0.302 -0.302
 0.332  1.165  0.020 -0.169 -0.261 -0.300 -0.300
 0.334  1.167  0.022 -0.167 -0.260 -0.299 -0.299
 0.336  1.170  0.025 -0.165 -0.258 -0.298 -0.298
 0.338  1.173  0.028 -0.163 -0.257 -0.297 -0.297
 0.340  1.176  0.031 -0.161 -0.255 -0.295 -0.295
 0.342  1.178  0.034 -0.159 -0.254 -0.294 -0.294
 0.344  1.181  0.037 -0.157 -0.252 -0.293 -0.293
 0.346  1.184  0.040 -0.155 -0.251 -0.291 -0.291
 0.348  1.186  0.043 -0.153 -0.249 -0.290 -0.290
 0.350  1.189  0.045 -0.151 -0.248 -0.289 -0.289
 0.352  1.191  0.048 -0.149 -0.247 -0.288 -0.288
 0.354  1.194  0.051 -0.147 -0.246 -0.287 -0.287
 0.356  1.197  0.054 -0.145 -0.244 -0.286 -0.286
 0.358  1.199  0.057 -0.144 -0.243 -0.284 -0.284
 0.360  1.202  0.060 -0.142 -0.242 -0.283 -0.283
 0.362  1.204  0.063 -0.140 -0.241 -0.282 -0.282
 0.364  1.207  0.065 -0.138 -0.239 -0.280 -0.280
 0.366  1.210  0.068 -0.136 -0.238 -0.279 -0.279
 0.368  1.212  0.071 -0.134 -0.237 -0.278 -0.278
 0.370  1.215  0.074 -0.132 -0.236 -0.276 -0.276
 0.372  1.217  0.077 -0.130 -0.234 -0.275 -0.275
 0.374  1.219  0.080 -0.128 -0.233 -0.274 -0.274
 0.376  1.222  0.083 -0.127 -0.232 -0.273 -0.273
 0.378  1.225  0.085 -0.125 -0.230 -0.271 -0.271
 0.380  1.227  0.087 -0.123 -0.229 -0.270 -0.270
 0.382  1.229  0.090 -0.122 -0.228 -0.269 -0.269
 0.384  1.232  0.093 -0.120 -0.226 -0.267 -0.267
 0.386  1.234  0.096 -0.118 -0.225 -0.266 -0.266
 0.388  1.237  0.098 -0.116 -0.224 -0.265 -0.265
 0.390  1.240  0.101 -0.114 -0.223 -0.264 -0.264
 0.392  1.241  0.104 -0.113 -0.221 -0.262 -0.262
 0.394  1.244  0.106 -0.111 -0.220 -0.261 -0.261
 0.396  1.246  0.108 -0.109 -0.218 -0.260 -0.260
 0.398  1.249  0.111 -0.108 -0.217 -0.258 -0.258
 0.400  1.251  0.113 -0.106 -0.215 -0.257 -0.257
 0.402  1.254  0.116 -0.104 -0.214 -0.256 -0.256
 0.404  1.255  0.118 -0.103 -0.212 -0.255 -0.255
 0.406  1.258  0.121 -0.101 -0.211 -0.253 -0.253
 0.408  1.260  0.123 -0.100 -0.210 -0.252 -0.252
 0.410  1.263  0.126 -0.098 -0.208 -0.251 -0.251
 0.412  1.265  0.128 -0.096 -0.207 -0.249 -0.249
 0.414  1.267  0.129 -0.094 -0.205 -0.248 -0.248
 0.416  1.269  0.132 -0.093 -0.204 -0.247 -0.247
 0.418  1.271  0.134 -0.092 -0.202 -0.246 -0.246
 0.420  1.274  0.136 -0.090 -0.200 -0.244 -0.244
 0.422  1.276  0.139 -0.088 -0.199 -0.243 -0.243
 0.424  1.279  0.141 -0.087 -0.197 -0.242 -0.242
 0.426  1.280  0.143 -0.086 -0.196 -0.241 -0.241
 0.428  1.282  0.145 -0.084 -0.194 -0.239 -0.239
 0.430  1.285  0.148 -0.082 -0.192 -0.238 -0.238
 0.432  1.287  0.150 -0.081 -0.191 -0.237 -0.237
 0.434  1.289  0.151 -0.080 -0.189 -0.236 -0.236
 0.436  1.291  0.153 -0.078 -0.187 -0.234 -0.234
 0.438  1.293  0.155 -0.076 -0.186 -0.233 -0.233
 0.440  1.295  0.157 -0.075 -0.184 -0.232 -0.232
 0.442  1.297  0.159 -0.074 -0.182 -0.231 -0.231
 0.444  1.299  0.161 -0.072 -0.181 -0.229 -0.229
 0.446  1.301  0.163 -0.071 -0.179 -0.228 -0.228
 0.448  1.303  0.165 -0.070 -0.177 -0.227 -0.227
 0.450  1.306  0.167 -0.068 -0.176 -0.226 -0.226
 0.452  1.307  0.169 -0.067 -0.174 -0.225 -0.225
 0.454  1.309  0.171 -0.065 -0.172 -0.224 -0.224
 0.456  1.311  0.172 -0.064 -0.171 -0.223 -0.223
 0.458  1.313  0.174 -0.062 -0.170 -0.222 -0.222
 0.460  1.315  0.175 -0.061 -0.168 -0.221 -0.221
 0.462  1.317  0.177 -0.060 -0.167 -0.220 -0.220
 0.464  1.319  0.179 -0.058 -0.165 -0.219 -0.219
 0.466  1.319  0.181 -0.057 -0.164 -0.217 -0.217
 0.468  1.321  0.183 -0.056 -0.163 -0.216 -0.216
 0.470  1.323  0.184 -0.054 -0.161 -0.215 -0.215
 0.472  1.325  0.186 -0.054 -0.160 -0.214 -0.214
 0.474  1.327  0.188 -0.053 -0.159 -0.213 -0.213
 0.476  1.329  0.189 -0.051 -0.158 -0.212 -0.212
 0.478  1.330  0.191 -0.050 -0.157 -0.211 -0.211
 0.480  1.332  0.193 -0.049 -0.156 -0.210 -0.210
 0.482  1.333  0.193 -0.047 -0.154 -0.209 -0.209
 0.484  1.334  0.195 -0.046 -0.153 -0.208 -0.208
 0.486  1.336  0.196 -0.045 -0.153 -0.207 -0.207
 0.488  1.338  0.198 -0.043 -0.152 -0.206 -0.206
 0.490  1.339  0.199 -0.043 -0.150 -0.205 -0.205
 0.492  1.341  0.201 -0.041 -0.150 -0.204 -0.204
 0.494  1.342  0.202 -0.040 -0.149 -0.204 -0.204
 0.496  1.344  0.204 -0.039 -0.148 -0.203 -0.203
 0.498  1.345  0.205 -0.037 -0.147 -0.202 -0.202
 0.500  1.346  0.206 -0.037 -0.146 -0.201 -0.201
 0.502  1.347  0.208 -0.035 -0.146 -0.200 -0.200
 0.504  1.349  0.209 -0.034 -0.145 -0.199 -0.199
 0.506  1.350  0.210 -0.033 -0.144 -0.198 -0.198
 0.508  1.351  0.212 -0.032 -0.143 -0.197 -0.197
 0.510  1.353  0.213 -0.031 -0.143 -0.196 -0.196
 0.512  1.354  0.214 -0.029 -0.142 -0.196 -0.196
 0.514  1.355  0.215 -0.029 -0.142 -0.195 -0.195
 0.516  1.357  0.216 -0.027 -0.141 -0.194 -0.194
 0.518  1.358  0.217 -0.026 -0.140 -0.193 -0.193
 0.520  1.358  0.218 -0.025 -0.139 -0.192 -0.192
 0.522  1.359  0.219 -0.024 -0.139 -0.191 -0.191
 0.524  1.360  0.220 -0.023 -0.138 -0.190 -0.190
 0.526  1.362  0.221 -0.022 -0.138 -0.189 -0.189
 0.528  1.363  0.222 -0.021 -0.137 -0.188 -0.188
 0.530  1.364  0.223 -0.021 -0.136 -0.187 -0.187
 0.532  1.365  0.224 -0.019 -0.136 -0.187 -0.187
 0.534  1.366  0.226 -0.019 -0.135 -0.186 -0.186
 0.536  1.367  0.227 -0.018 -0.134 -0.185 -0.185
 0.538  1.368  0.227 -0.017 -0.134 -0.184 -0.184
 0.540  1.369  0.228 -0.016 -0.133 -0.183 -0.183
 0.542  1.370  0.229 -0.015 -0.132 -0.182 -0.182
 0.544  1.370  0.230 -0.015 -0.131 -0.181 -0.181
 0.546  1.371  0.231 -0.014 -0.131 -0.180 -0.180
 0.548  1.371  0.232 -0.013 -0.130 -0.179 -0.179
 0.550  1.372  0.233 -0.013 -0.129 -0.178 -0.178
 0.552  1.373  0.234 -0.012 -0.128 -0.177 -0.177
 0.554  1.373  0.235 -0.011 -0.128 -0.176 -0.176
 0.556  1.374  0.235 -0.011 -0.127 -0.175 -0.175
 0.558  1.375  0.236 -0.010 -0.126 -0.174 -0.174
 0.560  1.375  0.236 -0.009 -0.125 -0.173 -0.173
 0.562  1.376  0.237 -0.009 -0.124 -0.173 -0.173
 0.564  1.377  0.237 -0.008 -0.124 -0.172 -0.172
 0.566  1.377  0.238 -0.007 -0.123 -0.171 -0.171
 0.568  1.378  0.239 -0.007 -0.122 -0.170 -0.170
 0.570  1.378  0.239 -0.007 -0.121 -0.169 -0.169
 0.572  1.379  0.240 -0.006 -0.120 -0.168 -0.168
 0.574  1.379  0.241 -0.006 -0.119 -0.167 -0.167
 0.576  1.380  0.241 -0.005 -0.119 -0.166 -0.166
 0.578  1.380  0.242 -0.005 -0.117 -0.165 -0.165
 0.580  1.381  0.242 -0.005 -0.117 -0.164 -0.164
 0.582  1.381  0.243 -0.005 -0.116 -0.164 -0.164
 0.584  1.381  0.243 -0.004 -0.115 -0.163 -0.163
 0.586  1.382  0.244 -0.004 -0.114 -0.162 -0.162
 0.588  1.382  0.244 -0.003 -0.113 -0.161 -0.161
 0.590  1.382  0.245 -0.003 -0.112 -0.160 -0.160
 0.592  1.383  0.245 -0.003 -0.112 -0.159 -0.159
 0.594  1.383  0.245 -0.003 -0.110 -0.158 -0.158
 0.596  1.383  0.246 -0.002 -0.110 -0.157 -0.157
 0.598  1.383  0.246 -0.002 -0.109 -0.157 -0.157
 0.600  1.383  0.246 -0.001 -0.108 -0.156 -0.156
 0.602  1.383  0.247 -0.001 -0.107 -0.155 -0.155
 0.604  1.384  0.247 -0.001 -0.106 -0.154 -0.154
 0.606  1.384  0.247 -0.001 -0.106 -0.154 -0.154
 0.608  1.384  0.247 -0.000 -0.105 -0.153 -0.153
 0.610  1.384  0.248 -0.000 -0.104 -0.152 -0.152
 0.612  1.384  0.248  0.001 -0.103 -0.151 -0.151
 0.614  1.384  0.248  0.001 -0.103 -0.151 -0.151
 0.616  1.384  0.248  0.001 -0.102 -0.150 -0.150
 0.618  1.384  0.248  0.002 -0.101 -0.149 -0.149
 0.620  1.384  0.248  0.002 -0.101 -0.149 -0.149
 0.622  1.384  0.248  0.003 -0.100 -0.148 -0.148
 0.624  1.384  0.249  0.003 -0.099 -0.147 -0.147
 0.626  1.384  0.249  0.003 -0.099 -0.147 -0.147
 0.628  1.383  0.249  0.004 -0.098 -0.146 -0.146
 0.630  1.383  0.248  0.004 -0.098 -0.146 -0.146
 0.632  1.383  0.248  0.005 -0.097 -0.145 -0.145
 0.634  1.383  0.248  0.005 -0.096 -0.145 -0.145
 0.636  1.383  0.248  0.005 -0.096 -0.144 -0.144
 0.638  1.382  0.248  0.006 -0.095 -0.144 -0.144
 0.640  1.382  0.248  0.006 -0.095 -0.143 -0.143
 0.642  1.382  0.248  0.007 -0.094 -0.143 -0.143
 0.644  1.381  0.247  0.007 -0.094 -0.142 -0.142
 0.646  1.381  0.247  0.008 -0.093 -0.142 -0.142
 0.648  1.381  0.247  0.008 -0.093 -0.141 -0.141
 0.650  1.380  0.247  0.009 -0.092 -0.141 -0.141
 0.652  1.380  0.247  0.009 -0.092 -0.140 -0.140
 0.654  1.380  0.247  0.009 -0.091 -0.139 -0.139
 0.656  1.379  0.247  0.010 -0.091 -0.139 -0.139
 0.658  1.379  0.247  0.011 -0.090 -0.138 -0.138
 0.660  1.379  0.247  0.011 -0.090 -0.138 -0.138
 0.662  1.379  0.247  0.012 -0.090 -0.137 -0.137
 0.664  1.378  0.247  0.013 -0.089 -0.136 -0.136
 0.666  1.378  0.247  0.014 -0.088 -0.136 -0.136
 0.668  1.378  0.247  0.015 -0.088 -0.135 -0.135
 0.670  1.378  0.247  0.016 -0.087 -0.134 -0.134
 0.672  1.378  0.248  0.017 -0.087 -0.133 -0.133
 0.674  1.377  0.248  0.018 -0.086 -0.132 -0.132
 0.676  1.377  0.248  0.020 -0.085 -0.132 -0.132
 0.678  1.377  0.249  0.021 -0.084 -0.131 -0.131
 0.680  1.377  0.249  0.023 -0.084 -0.130 -0.130
 0.682  1.377  0.250  0.025 -0.083 -0.129 -0.129
 0.684  1.377  0.250  0.026 -0.082 -0.128 -0.128
 0.686  1.377  0.251  0.028 -0.081 -0.127 -0.127
 0.688  1.377  0.251  0.030 -0.080 -0.126 -0.126
 0.690  1.377  0.252  0.032 -0.079 -0.125 -0.125
 0.692  1.377  0.253  0.034 -0.079 -0.124 -0.124
 0.694  1.377  0.253  0.036 -0.077 -0.123 -0.123
 0.696  1.378  0.254  0.038 -0.076 -0.122 -0.122
 0.698  1.378  0.255  0.040 -0.075 -0.121 -0.121
 0.700  1.378  0.256  0.042 -0.074 -0.120 -0.120
 0.702  1.378  0.257  0.045 -0.073 -0.119 -0.119
 0.704  1.378  0.258  0.047 -0.072 -0.118 -0.118
 0.706  1.379  0.258  0.050 -0.071 -0.116 -0.116
 0.708  1.379  0.259  0.052 -0.070 -0.115 -0.115
 0.710  1.379  0.260  0.056 -0.068 -0.114 -0.114
 0.712  1.379  0.261  0.058 -0.067 -0.113 -0.113
 0.714  1.379  0.262  0.062 -0.066 -0.111 -0.111
 0.716  1.380  0.263  0.065 -0.065 -0.110 -0.110
 0.718  1.380  0.264  0.068 -0.063 -0.109 -0.109
 0.720  1.380  0.265  0.072 -0.062 -0.107 -0.107
 0.722  1.381  0.267  0.075 -0.061 -0.106 -0.106
 0.724  1.382  0.268  0.078 -0.059 -0.105 -0.105
 0.726  1.382  0.270  0.082 -0.058 -0.103 -0.103
 0.728  1.383  0.271  0.085 -0.056 -0.102 -0.102
 0.730  1.384  0.273  0.088 -0.055 -0.100 -0.100
 0.732  1.384  0.275  0.091 -0.053 -0.099 -0.099
 0.734  1.385  0.277  0.094 -0.051 -0.097 -0.097
 0.736  1.387  0.279  0.097 -0.050 -0.095 -0.095
 0.738  1.388  0.280  0.099 -0.048 -0.094 -0.094
 0.740  1.390  0.282  0.102 -0.046 -0.092 -0.092
 0.742  1.392  0.284  0.104 -0.044 -0.090 -0.090
 0.744  1.393  0.286  0.106 -0.042 -0.088 -0.088
 0.746  1.395  0.289  0.108 -0.040 -0.086 -0.086
 0.748  1.397  0.291  0.110 -0.038 -0.084 -0.084
 0.750  1.399  0.294  0.111 -0.036 -0.082 -0.082
 0.752  1.401  0.296  0.112 -0.034 -0.080 -0.080
 0.754  1.403  0.299  0.114 -0.032 -0.078 -0.078
 0.756  1.406  0.301  0.114 -0.029 -0.076 -0.076
 0.758  1.408  0.303  0.115 -0.027 -0.074 -0.074
 0.760  1.410  0.306  0.116 -0.025 -0.072 -0.072
 0.762  1.413  0.308  0.116 -0.022 -0.070 -0.070
 0.764  1.416  0.311  0.116 -0.020 -0.067 -0.067
 0.766  1.419  0.314  0.116 -0.017 -0.065 -0.065
 0.768  1.423  0.318  0.115 -0.015 -0.063 -0.063
 0.770  1.425  0.321  0.115 -0.012 -0.060 -0.060
 0.772  1.429  0.324  0.114 -0.009 -0.058 -0.058
 0.774  1.433  0.327  0.113 -0.007 -0.055 -0.055
 0.776  1.436  0.331  0.112 -0.004 -0.052 -0.052
 0.778  1.440  0.335  0.111 -0.001 -0.050 -0.050
 0.780  1.445  0.339  0.110  0.003 -0.047 -0.047
 0.782  1.449  0.343  0.108  0.005 -0.044 -0.044
 0.784  1.453  0.346  0.106  0.008 -0.041 -0.041
 0.786  1.457  0.350  0.104  0.012 -0.039 -0.039
 0.788  1.462  0.353  0.102  0.015 -0.037 -0.037
 0.790  1.465  0.357  0.100  0.018 -0.034 -0.034
 0.792  1.469  0.360  0.097  0.021 -0.032 -0.032
 0.794  1.474  0.363  0.094  0.025 -0.029 -0.029
 0.796  1.477  0.365  0.092  0.028 -0.027 -0.027
 0.798  1.481  0.368  0.088  0.031 -0.025 -0.025
 0.800  1.484  0.370  0.085  0.034 -0.023 -0.023
 0.802  1.488  0.372  0.082  0.037 -0.021 -0.021
 0.804  1.490  0.374  0.078  0.040 -0.019 -0.019
 0.806  1.493  0.375  0.074  0.041 -0.018 -0.018
 0.808  1.495  0.376  0.070  0.044 -0.016 -0.016
