# IsPeriodic    : True
# Period        : 0.602280 days
# Normalization : <g_mag>=0
# 
# Phase u_mag  g_mag  r_mag  i_mag  z_mag  y_mag
 0.000  0.742 -0.456 -0.445 -0.433 -0.407 -0.407
 0.002  0.742 -0.456 -0.445 -0.433 -0.407 -0.407
 0.004  0.744 -0.456 -0.445 -0.433 -0.407 -0.407
 0.006  0.745 -0.456 -0.444 -0.432 -0.407 -0.407
 0.008  0.747 -0.454 -0.444 -0.432 -0.406 -0.406
 0.010  0.750 -0.453 -0.444 -0.432 -0.406 -0.406
 0.012  0.753 -0.452 -0.443 -0.431 -0.405 -0.405
 0.014  0.757 -0.450 -0.443 -0.430 -0.404 -0.404
 0.016  0.760 -0.449 -0.442 -0.430 -0.404 -0.404
 0.018  0.765 -0.446 -0.441 -0.429 -0.403 -0.403
 0.020  0.769 -0.444 -0.441 -0.428 -0.402 -0.402
 0.022  0.774 -0.442 -0.440 -0.428 -0.401 -0.401
 0.024  0.778 -0.440 -0.439 -0.427 -0.400 -0.400
 0.026  0.783 -0.438 -0.438 -0.426 -0.399 -0.399
 0.028  0.788 -0.435 -0.437 -0.425 -0.398 -0.398
 0.030  0.792 -0.433 -0.436 -0.424 -0.397 -0.397
 0.032  0.797 -0.430 -0.435 -0.423 -0.396 -0.396
 0.034  0.801 -0.428 -0.433 -0.422 -0.395 -0.395
 0.036  0.806 -0.425 -0.432 -0.421 -0.394 -0.394
 0.038  0.810 -0.423 -0.430 -0.420 -0.393 -0.393
 0.040  0.814 -0.420 -0.429 -0.419 -0.391 -0.391
 0.042  0.819 -0.417 -0.427 -0.419 -0.390 -0.390
 0.044  0.823 -0.413 -0.425 -0.417 -0.389 -0.389
 0.046  0.827 -0.411 -0.424 -0.417 -0.388 -0.388
 0.048  0.831 -0.407 -0.422 -0.415 -0.387 -0.387
 0.050  0.835 -0.404 -0.420 -0.414 -0.386 -0.386
 0.052  0.840 -0.400 -0.418 -0.414 -0.385 -0.385
 0.054  0.844 -0.397 -0.415 -0.412 -0.384 -0.384
 0.056  0.849 -0.392 -0.413 -0.411 -0.383 -0.383
 0.058  0.853 -0.389 -0.411 -0.410 -0.382 -0.382
 0.060  0.857 -0.385 -0.409 -0.409 -0.381 -0.381
 0.062  0.861 -0.380 -0.406 -0.408 -0.380 -0.380
 0.064  0.865 -0.376 -0.404 -0.407 -0.379 -0.379
 0.066  0.870 -0.372 -0.401 -0.406 -0.378 -0.378
 0.068  0.874 -0.367 -0.399 -0.405 -0.377 -0.377
 0.070  0.878 -0.363 -0.397 -0.404 -0.376 -0.376
 0.072  0.882 -0.358 -0.394 -0.403 -0.376 -0.376
 0.074  0.886 -0.354 -0.392 -0.402 -0.375 -0.375
 0.076  0.890 -0.349 -0.390 -0.401 -0.374 -0.374
 0.078  0.895 -0.344 -0.388 -0.399 -0.373 -0.373
 0.080  0.899 -0.340 -0.385 -0.398 -0.372 -0.372
 0.082  0.902 -0.335 -0.383 -0.397 -0.371 -0.371
 0.084  0.907 -0.330 -0.381 -0.396 -0.370 -0.370
 0.086  0.911 -0.326 -0.379 -0.394 -0.369 -0.369
 0.088  0.915 -0.321 -0.377 -0.393 -0.368 -0.368
 0.090  0.918 -0.316 -0.375 -0.392 -0.367 -0.367
 0.092  0.923 -0.312 -0.373 -0.391 -0.366 -0.366
 0.094  0.927 -0.308 -0.372 -0.389 -0.365 -0.365
 0.096  0.930 -0.304 -0.369 -0.388 -0.364 -0.364
 0.098  0.934 -0.300 -0.367 -0.387 -0.363 -0.363
 0.100  0.938 -0.295 -0.366 -0.386 -0.363 -0.363
 0.102  0.942 -0.292 -0.364 -0.384 -0.362 -0.362
 0.104  0.946 -0.288 -0.362 -0.383 -0.361 -0.361
 0.106  0.949 -0.284 -0.361 -0.382 -0.360 -0.360
 0.108  0.953 -0.280 -0.359 -0.381 -0.359 -0.359
 0.110  0.957 -0.276 -0.357 -0.380 -0.358 -0.358
 0.112  0.960 -0.273 -0.356 -0.378 -0.358 -0.358
 0.114  0.964 -0.269 -0.355 -0.377 -0.357 -0.357
 0.116  0.967 -0.265 -0.353 -0.376 -0.356 -0.356
 0.118  0.971 -0.262 -0.351 -0.375 -0.355 -0.355
 0.120  0.974 -0.258 -0.350 -0.374 -0.354 -0.354
 0.122  0.978 -0.255 -0.349 -0.372 -0.353 -0.353
 0.124  0.980 -0.252 -0.347 -0.371 -0.352 -0.352
 0.126  0.984 -0.248 -0.346 -0.370 -0.351 -0.351
 0.128  0.987 -0.245 -0.345 -0.369 -0.351 -0.351
 0.130  0.990 -0.242 -0.343 -0.368 -0.350 -0.350
 0.132  0.994 -0.239 -0.342 -0.366 -0.349 -0.349
 0.134  0.996 -0.236 -0.341 -0.365 -0.348 -0.348
 0.136  1.000 -0.233 -0.340 -0.364 -0.347 -0.347
 0.138  1.003 -0.231 -0.339 -0.363 -0.347 -0.347
 0.140  1.006 -0.228 -0.337 -0.362 -0.346 -0.346
 0.142  1.009 -0.225 -0.336 -0.360 -0.345 -0.345
 0.144  1.012 -0.222 -0.335 -0.359 -0.344 -0.344
 0.146  1.014 -0.219 -0.334 -0.358 -0.343 -0.343
 0.148  1.017 -0.217 -0.332 -0.357 -0.343 -0.343
 0.150  1.020 -0.214 -0.331 -0.355 -0.342 -0.342
 0.152  1.023 -0.212 -0.330 -0.354 -0.341 -0.341
 0.154  1.026 -0.209 -0.329 -0.353 -0.340 -0.340
 0.156  1.028 -0.207 -0.327 -0.352 -0.339 -0.339
 0.158  1.031 -0.204 -0.326 -0.351 -0.339 -0.339
 0.160  1.034 -0.201 -0.324 -0.350 -0.338 -0.338
 0.162  1.036 -0.199 -0.323 -0.348 -0.337 -0.337
 0.164  1.039 -0.196 -0.322 -0.347 -0.336 -0.336
 0.166  1.042 -0.193 -0.320 -0.346 -0.336 -0.336
 0.168  1.044 -0.191 -0.319 -0.345 -0.335 -0.335
 0.170  1.047 -0.188 -0.318 -0.344 -0.334 -0.334
 0.172  1.049 -0.186 -0.316 -0.342 -0.333 -0.333
 0.174  1.052 -0.183 -0.315 -0.341 -0.333 -0.333
 0.176  1.055 -0.180 -0.313 -0.340 -0.332 -0.332
 0.178  1.057 -0.177 -0.312 -0.339 -0.331 -0.331
 0.180  1.060 -0.174 -0.311 -0.338 -0.330 -0.330
 0.182  1.063 -0.172 -0.309 -0.337 -0.330 -0.330
 0.184  1.065 -0.169 -0.308 -0.335 -0.329 -0.329
 0.186  1.067 -0.166 -0.306 -0.334 -0.328 -0.328
 0.188  1.070 -0.163 -0.305 -0.333 -0.327 -0.327
 0.190  1.072 -0.160 -0.303 -0.332 -0.327 -0.327
 0.192  1.075 -0.158 -0.302 -0.331 -0.326 -0.326
 0.194  1.077 -0.155 -0.300 -0.330 -0.325 -0.325
 0.196  1.080 -0.152 -0.299 -0.329 -0.324 -0.324
 0.198  1.083 -0.149 -0.297 -0.328 -0.323 -0.323
 0.200  1.085 -0.146 -0.296 -0.327 -0.323 -0.323
 0.202  1.088 -0.144 -0.294 -0.326 -0.322 -0.322
 0.204  1.090 -0.141 -0.292 -0.325 -0.321 -0.321
 0.206  1.092 -0.137 -0.291 -0.324 -0.321 -0.321
 0.208  1.095 -0.134 -0.289 -0.322 -0.320 -0.320
 0.210  1.097 -0.132 -0.288 -0.322 -0.319 -0.319
 0.212  1.100 -0.129 -0.286 -0.321 -0.318 -0.318
 0.214  1.102 -0.126 -0.285 -0.319 -0.318 -0.318
 0.216  1.105 -0.122 -0.283 -0.319 -0.317 -0.317
 0.218  1.107 -0.120 -0.281 -0.317 -0.316 -0.316
 0.220  1.110 -0.117 -0.280 -0.316 -0.316 -0.316
 0.222  1.112 -0.114 -0.279 -0.316 -0.315 -0.315
 0.224  1.115 -0.111 -0.277 -0.314 -0.314 -0.314
 0.226  1.117 -0.108 -0.276 -0.314 -0.314 -0.314
 0.228  1.120 -0.105 -0.274 -0.313 -0.313 -0.313
 0.230  1.122 -0.102 -0.272 -0.312 -0.312 -0.312
 0.232  1.125 -0.099 -0.271 -0.311 -0.311 -0.311
 0.234  1.127 -0.096 -0.269 -0.310 -0.310 -0.310
 0.236  1.129 -0.094 -0.268 -0.309 -0.310 -0.310
 0.238  1.131 -0.091 -0.266 -0.308 -0.309 -0.309
 0.240  1.134 -0.089 -0.265 -0.307 -0.308 -0.308
 0.242  1.136 -0.086 -0.263 -0.306 -0.308 -0.308
 0.244  1.138 -0.083 -0.262 -0.305 -0.307 -0.307
 0.246  1.141 -0.080 -0.260 -0.304 -0.306 -0.306
 0.248  1.143 -0.078 -0.259 -0.303 -0.305 -0.305
 0.250  1.145 -0.075 -0.257 -0.302 -0.305 -0.305
 0.252  1.147 -0.073 -0.256 -0.301 -0.304 -0.304
 0.254  1.149 -0.070 -0.254 -0.300 -0.303 -0.303
 0.256  1.151 -0.068 -0.253 -0.299 -0.302 -0.302
 0.258  1.153 -0.065 -0.251 -0.298 -0.301 -0.301
 0.260  1.155 -0.063 -0.249 -0.297 -0.301 -0.301
 0.262  1.157 -0.061 -0.248 -0.296 -0.300 -0.300
 0.264  1.159 -0.058 -0.247 -0.295 -0.299 -0.299
 0.266  1.161 -0.056 -0.245 -0.294 -0.298 -0.298
 0.268  1.164 -0.054 -0.244 -0.293 -0.297 -0.297
 0.270  1.165 -0.051 -0.242 -0.292 -0.296 -0.296
 0.272  1.167 -0.049 -0.241 -0.291 -0.295 -0.295
 0.274  1.169 -0.047 -0.239 -0.290 -0.295 -0.295
 0.276  1.171 -0.044 -0.238 -0.289 -0.294 -0.294
 0.278  1.173 -0.042 -0.236 -0.288 -0.293 -0.293
 0.280  1.175 -0.040 -0.235 -0.287 -0.292 -0.292
 0.282  1.176 -0.038 -0.233 -0.286 -0.291 -0.291
 0.284  1.178 -0.036 -0.232 -0.285 -0.290 -0.290
 0.286  1.180 -0.035 -0.230 -0.284 -0.289 -0.289
 0.288  1.182 -0.032 -0.228 -0.283 -0.288 -0.288
 0.290  1.183 -0.030 -0.227 -0.282 -0.287 -0.287
 0.292  1.185 -0.028 -0.225 -0.281 -0.286 -0.286
 0.294  1.186 -0.026 -0.223 -0.280 -0.285 -0.285
 0.296  1.188 -0.024 -0.222 -0.279 -0.284 -0.284
 0.298  1.190 -0.022 -0.220 -0.278 -0.283 -0.283
 0.300  1.191 -0.021 -0.218 -0.277 -0.282 -0.282
 0.302  1.193 -0.018 -0.217 -0.276 -0.281 -0.281
 0.304  1.195 -0.016 -0.215 -0.275 -0.280 -0.280
 0.306  1.196 -0.014 -0.213 -0.273 -0.279 -0.279
 0.308  1.198 -0.012 -0.212 -0.273 -0.278 -0.278
 0.310  1.199 -0.010 -0.210 -0.272 -0.277 -0.277
 0.312  1.201 -0.009 -0.208 -0.270 -0.276 -0.276
 0.314  1.203 -0.006 -0.207 -0.269 -0.275 -0.275
 0.316  1.204 -0.004 -0.205 -0.269 -0.274 -0.274
 0.318  1.206 -0.002 -0.203 -0.267 -0.273 -0.273
 0.320  1.207 -0.000 -0.201 -0.266 -0.272 -0.272
 0.322  1.209  0.002 -0.199 -0.265 -0.271 -0.271
 0.324  1.211  0.004 -0.197 -0.264 -0.270 -0.270
 0.326  1.212  0.005 -0.195 -0.263 -0.269 -0.269
 0.328  1.214  0.008 -0.193 -0.262 -0.268 -0.268
 0.330  1.216  0.010 -0.191 -0.261 -0.267 -0.267
 0.332  1.218  0.012 -0.190 -0.260 -0.266 -0.266
 0.334  1.219  0.014 -0.187 -0.259 -0.265 -0.265
 0.336  1.221  0.016 -0.185 -0.257 -0.264 -0.264
 0.338  1.223  0.018 -0.184 -0.256 -0.264 -0.264
 0.340  1.225  0.020 -0.181 -0.255 -0.263 -0.263
 0.342  1.226  0.022 -0.180 -0.254 -0.262 -0.262
 0.344  1.228  0.024 -0.177 -0.253 -0.261 -0.261
 0.346  1.230  0.026 -0.175 -0.252 -0.260 -0.260
 0.348  1.232  0.028 -0.173 -0.251 -0.259 -0.259
 0.350  1.233  0.030 -0.171 -0.249 -0.258 -0.258
 0.352  1.235  0.032 -0.169 -0.248 -0.257 -0.257
 0.354  1.237  0.034 -0.167 -0.247 -0.257 -0.257
 0.356  1.239  0.036 -0.165 -0.246 -0.256 -0.256
 0.358  1.241  0.039 -0.164 -0.245 -0.255 -0.255
 0.360  1.243  0.040 -0.162 -0.244 -0.254 -0.254
 0.362  1.245  0.042 -0.160 -0.242 -0.253 -0.253
 0.364  1.246  0.044 -0.158 -0.241 -0.252 -0.252
 0.366  1.248  0.046 -0.156 -0.240 -0.251 -0.251
 0.368  1.251  0.048 -0.154 -0.239 -0.251 -0.251
 0.370  1.253  0.050 -0.153 -0.238 -0.250 -0.250
 0.372  1.254  0.053 -0.151 -0.236 -0.249 -0.249
 0.374  1.256  0.055 -0.149 -0.235 -0.248 -0.248
 0.376  1.258  0.056 -0.148 -0.234 -0.247 -0.247
 0.378  1.260  0.058 -0.146 -0.233 -0.247 -0.247
 0.380  1.262  0.060 -0.144 -0.231 -0.246 -0.246
 0.382  1.264  0.062 -0.143 -0.230 -0.245 -0.245
 0.384  1.266  0.065 -0.141 -0.229 -0.244 -0.244
 0.386  1.268  0.067 -0.139 -0.228 -0.244 -0.244
 0.388  1.269  0.068 -0.138 -0.227 -0.243 -0.243
 0.390  1.271  0.070 -0.137 -0.226 -0.242 -0.242
 0.392  1.274  0.072 -0.135 -0.225 -0.241 -0.241
 0.394  1.275  0.074 -0.134 -0.223 -0.240 -0.240
 0.396  1.277  0.076 -0.132 -0.222 -0.239 -0.239
 0.398  1.278  0.078 -0.131 -0.221 -0.238 -0.238
 0.400  1.281  0.080 -0.130 -0.220 -0.238 -0.238
 0.402  1.282  0.082 -0.128 -0.219 -0.237 -0.237
 0.404  1.284  0.084 -0.127 -0.218 -0.236 -0.236
 0.406  1.285  0.086 -0.126 -0.216 -0.235 -0.235
 0.408  1.287  0.088 -0.125 -0.216 -0.234 -0.234
 0.410  1.289  0.089 -0.123 -0.215 -0.233 -0.233
 0.412  1.291  0.091 -0.122 -0.213 -0.232 -0.232
 0.414  1.292  0.093 -0.121 -0.212 -0.231 -0.231
 0.416  1.294  0.095 -0.120 -0.211 -0.231 -0.231
 0.418  1.296  0.097 -0.119 -0.210 -0.230 -0.230
 0.420  1.297  0.099 -0.118 -0.209 -0.229 -0.229
 0.422  1.299  0.101 -0.117 -0.208 -0.228 -0.228
 0.424  1.300  0.102 -0.116 -0.207 -0.227 -0.227
 0.426  1.302  0.105 -0.115 -0.206 -0.226 -0.226
 0.428  1.304  0.106 -0.114 -0.205 -0.225 -0.225
 0.430  1.305  0.108 -0.112 -0.204 -0.224 -0.224
 0.432  1.306  0.110 -0.111 -0.203 -0.223 -0.223
 0.434  1.308  0.112 -0.111 -0.202 -0.222 -0.222
 0.436  1.309  0.114 -0.110 -0.201 -0.221 -0.221
 0.438  1.310  0.115 -0.108 -0.200 -0.219 -0.219
 0.440  1.312  0.117 -0.107 -0.199 -0.218 -0.218
 0.442  1.313  0.119 -0.106 -0.198 -0.217 -0.217
 0.444  1.315  0.121 -0.105 -0.197 -0.216 -0.216
 0.446  1.316  0.122 -0.104 -0.197 -0.215 -0.215
 0.448  1.317  0.124 -0.103 -0.195 -0.214 -0.214
 0.450  1.319  0.126 -0.102 -0.195 -0.213 -0.213
 0.452  1.320  0.127 -0.101 -0.194 -0.212 -0.212
 0.454  1.322  0.128 -0.100 -0.193 -0.211 -0.211
 0.456  1.323  0.130 -0.099 -0.192 -0.210 -0.210
 0.458  1.324  0.131 -0.098 -0.191 -0.209 -0.209
 0.460  1.326  0.133 -0.097 -0.190 -0.208 -0.208
 0.462  1.327  0.134 -0.096 -0.189 -0.207 -0.207
 0.464  1.328  0.136 -0.095 -0.189 -0.206 -0.206
 0.466  1.329  0.137 -0.094 -0.188 -0.205 -0.205
 0.468  1.331  0.138 -0.093 -0.187 -0.204 -0.204
 0.470  1.332  0.140 -0.092 -0.186 -0.203 -0.203
 0.472  1.333  0.141 -0.090 -0.185 -0.202 -0.202
 0.474  1.334  0.143 -0.089 -0.184 -0.201 -0.201
 0.476  1.336  0.144 -0.089 -0.184 -0.200 -0.200
 0.478  1.337  0.145 -0.088 -0.183 -0.199 -0.199
 0.480  1.338  0.146 -0.086 -0.182 -0.198 -0.198
 0.482  1.339  0.147 -0.085 -0.181 -0.198 -0.198
 0.484  1.340  0.148 -0.084 -0.180 -0.196 -0.196
 0.486  1.341  0.150 -0.084 -0.180 -0.196 -0.196
 0.488  1.343  0.151 -0.082 -0.179 -0.195 -0.195
 0.490  1.343  0.152 -0.081 -0.178 -0.194 -0.194
 0.492  1.345  0.153 -0.080 -0.177 -0.193 -0.193
 0.494  1.345  0.154 -0.079 -0.177 -0.193 -0.193
 0.496  1.347  0.154 -0.079 -0.176 -0.192 -0.192
 0.498  1.348  0.156 -0.078 -0.175 -0.191 -0.191
 0.500  1.349  0.157 -0.077 -0.175 -0.191 -0.191
 0.502  1.350  0.157 -0.076 -0.174 -0.190 -0.190
 0.504  1.351  0.159 -0.075 -0.173 -0.189 -0.189
 0.506  1.352  0.159 -0.074 -0.172 -0.189 -0.189
 0.508  1.353  0.160 -0.073 -0.172 -0.188 -0.188
 0.510  1.354  0.161 -0.072 -0.171 -0.187 -0.187
 0.512  1.355  0.162 -0.071 -0.171 -0.187 -0.187
 0.514  1.356  0.163 -0.071 -0.170 -0.186 -0.186
 0.516  1.356  0.164 -0.070 -0.169 -0.186 -0.186
 0.518  1.358  0.164 -0.069 -0.169 -0.185 -0.185
 0.520  1.359  0.165 -0.068 -0.168 -0.185 -0.185
 0.522  1.359  0.166 -0.068 -0.167 -0.184 -0.184
 0.524  1.360  0.166 -0.067 -0.167 -0.184 -0.184
 0.526  1.361  0.167 -0.067 -0.166 -0.183 -0.183
 0.528  1.362  0.168 -0.066 -0.166 -0.183 -0.183
 0.530  1.363  0.169 -0.065 -0.165 -0.182 -0.182
 0.532  1.363  0.169 -0.065 -0.164 -0.182 -0.182
 0.534  1.364  0.170 -0.064 -0.164 -0.181 -0.181
 0.536  1.364  0.171 -0.063 -0.163 -0.181 -0.181
 0.538  1.365  0.171 -0.063 -0.163 -0.180 -0.180
 0.540  1.365  0.172 -0.063 -0.162 -0.180 -0.180
 0.542  1.366  0.173 -0.062 -0.161 -0.179 -0.179
 0.544  1.366  0.173 -0.062 -0.161 -0.179 -0.179
 0.546  1.367  0.173 -0.061 -0.160 -0.178 -0.178
 0.548  1.368  0.174 -0.061 -0.160 -0.178 -0.178
 0.550  1.368  0.175 -0.060 -0.159 -0.177 -0.177
 0.552  1.368  0.176 -0.060 -0.159 -0.177 -0.177
 0.554  1.368  0.176 -0.059 -0.158 -0.176 -0.176
 0.556  1.368  0.176 -0.059 -0.158 -0.176 -0.176
 0.558  1.369  0.177 -0.059 -0.157 -0.175 -0.175
 0.560  1.369  0.177 -0.058 -0.156 -0.175 -0.175
 0.562  1.369  0.178 -0.058 -0.156 -0.174 -0.174
 0.564  1.370  0.178 -0.058 -0.156 -0.174 -0.174
 0.566  1.370  0.178 -0.057 -0.155 -0.173 -0.173
 0.568  1.370  0.179 -0.057 -0.154 -0.173 -0.173
 0.570  1.370  0.179 -0.057 -0.154 -0.172 -0.172
 0.572  1.370  0.180 -0.057 -0.154 -0.172 -0.172
 0.574  1.370  0.180 -0.057 -0.153 -0.171 -0.171
 0.576  1.370  0.180 -0.056 -0.153 -0.171 -0.171
 0.578  1.369  0.180 -0.056 -0.152 -0.170 -0.170
 0.580  1.369  0.181 -0.056 -0.152 -0.170 -0.170
 0.582  1.369  0.181 -0.055 -0.151 -0.169 -0.169
 0.584  1.369  0.182 -0.055 -0.151 -0.169 -0.169
 0.586  1.368  0.182 -0.054 -0.151 -0.168 -0.168
 0.588  1.368  0.182 -0.054 -0.150 -0.167 -0.167
 0.590  1.368  0.183 -0.053 -0.150 -0.167 -0.167
 0.592  1.368  0.183 -0.053 -0.149 -0.166 -0.166
 0.594  1.368  0.183 -0.053 -0.149 -0.166 -0.166
 0.596  1.368  0.183 -0.052 -0.149 -0.165 -0.165
 0.598  1.367  0.183 -0.052 -0.148 -0.165 -0.165
 0.600  1.367  0.184 -0.052 -0.148 -0.164 -0.164
 0.602  1.367  0.184 -0.051 -0.147 -0.164 -0.164
 0.604  1.366  0.184 -0.051 -0.147 -0.163 -0.163
 0.606  1.366  0.184 -0.050 -0.146 -0.163 -0.163
 0.608  1.366  0.185 -0.050 -0.146 -0.162 -0.162
 0.610  1.365  0.185 -0.049 -0.145 -0.162 -0.162
 0.612  1.365  0.185 -0.049 -0.145 -0.161 -0.161
 0.614  1.365  0.185 -0.048 -0.145 -0.160 -0.160
 0.616  1.365  0.185 -0.048 -0.144 -0.160 -0.160
 0.618  1.365  0.185 -0.047 -0.143 -0.159 -0.159
 0.620  1.365  0.185 -0.047 -0.143 -0.159 -0.159
 0.622  1.365  0.185 -0.046 -0.142 -0.158 -0.158
 0.624  1.365  0.185 -0.046 -0.141 -0.157 -0.157
 0.626  1.365  0.185 -0.045 -0.141 -0.157 -0.157
 0.628  1.364  0.186 -0.045 -0.140 -0.156 -0.156
 0.630  1.364  0.186 -0.044 -0.140 -0.155 -0.155
 0.632  1.364  0.186 -0.043 -0.139 -0.155 -0.155
 0.634  1.364  0.186 -0.043 -0.138 -0.154 -0.154
 0.636  1.364  0.186 -0.042 -0.138 -0.153 -0.153
 0.638  1.364  0.186 -0.042 -0.137 -0.152 -0.152
 0.640  1.364  0.186 -0.041 -0.136 -0.151 -0.151
 0.642  1.364  0.186 -0.041 -0.136 -0.151 -0.151
 0.644  1.364  0.186 -0.040 -0.135 -0.150 -0.150
 0.646  1.363  0.186 -0.039 -0.134 -0.149 -0.149
 0.648  1.363  0.186 -0.038 -0.134 -0.148 -0.148
 0.650  1.363  0.186 -0.037 -0.133 -0.148 -0.148
 0.652  1.363  0.186 -0.037 -0.132 -0.147 -0.147
 0.654  1.363  0.186 -0.036 -0.132 -0.146 -0.146
 0.656  1.363  0.186 -0.035 -0.131 -0.145 -0.145
 0.658  1.363  0.185 -0.034 -0.130 -0.145 -0.145
 0.660  1.363  0.185 -0.034 -0.129 -0.144 -0.144
 0.662  1.363  0.185 -0.033 -0.128 -0.143 -0.143
 0.664  1.364  0.185 -0.032 -0.128 -0.142 -0.142
 0.666  1.364  0.185 -0.031 -0.127 -0.141 -0.141
 0.668  1.364  0.185 -0.030 -0.126 -0.140 -0.140
 0.670  1.363  0.185 -0.029 -0.125 -0.139 -0.139
 0.672  1.363  0.184 -0.028 -0.124 -0.138 -0.138
 0.674  1.363  0.184 -0.027 -0.123 -0.137 -0.137
 0.676  1.363  0.183 -0.026 -0.122 -0.136 -0.136
 0.678  1.363  0.183 -0.025 -0.120 -0.135 -0.135
 0.680  1.363  0.183 -0.024 -0.119 -0.134 -0.134
 0.682  1.363  0.183 -0.023 -0.118 -0.133 -0.133
 0.684  1.363  0.182 -0.021 -0.117 -0.132 -0.132
 0.686  1.363  0.182 -0.020 -0.115 -0.131 -0.131
 0.688  1.363  0.181 -0.019 -0.114 -0.130 -0.130
 0.690  1.363  0.180 -0.018 -0.113 -0.128 -0.128
 0.692  1.363  0.180 -0.017 -0.112 -0.127 -0.127
 0.694  1.363  0.180 -0.015 -0.110 -0.126 -0.126
 0.696  1.363  0.179 -0.014 -0.109 -0.124 -0.124
 0.698  1.363  0.178 -0.013 -0.107 -0.123 -0.123
 0.700  1.362  0.178 -0.012 -0.105 -0.122 -0.122
 0.702  1.362  0.178 -0.010 -0.104 -0.120 -0.120
 0.704  1.362  0.177 -0.009 -0.102 -0.119 -0.119
 0.706  1.362  0.176 -0.008 -0.101 -0.117 -0.117
 0.708  1.361  0.176 -0.006 -0.099 -0.116 -0.116
 0.710  1.361  0.175 -0.005 -0.097 -0.114 -0.114
 0.712  1.361  0.174 -0.004 -0.095 -0.113 -0.113
 0.714  1.361  0.173 -0.003 -0.093 -0.111 -0.111
 0.716  1.361  0.173 -0.002 -0.091 -0.109 -0.109
 0.718  1.360  0.172 -0.001 -0.089 -0.108 -0.108
 0.720  1.360  0.171  0.000 -0.087 -0.106 -0.106
 0.722  1.360  0.171  0.001 -0.085 -0.104 -0.104
 0.724  1.359  0.170  0.002 -0.083 -0.102 -0.102
 0.726  1.359  0.169  0.003 -0.080 -0.101 -0.101
 0.728  1.359  0.169  0.004 -0.078 -0.099 -0.099
 0.730  1.359  0.169  0.005 -0.076 -0.097 -0.097
 0.732  1.359  0.169  0.006 -0.074 -0.095 -0.095
 0.734  1.359  0.169  0.007 -0.071 -0.093 -0.093
 0.736  1.359  0.169  0.007 -0.070 -0.091 -0.091
 0.738  1.359  0.169  0.007 -0.067 -0.089 -0.089
 0.740  1.359  0.169  0.008 -0.065 -0.088 -0.088
 0.742  1.359  0.169  0.009 -0.063 -0.086 -0.086
 0.744  1.359  0.170  0.009 -0.061 -0.084 -0.084
 0.746  1.360  0.170  0.010 -0.060 -0.083 -0.083
 0.748  1.360  0.171  0.010 -0.058 -0.081 -0.081
 0.750  1.361  0.171  0.011 -0.057 -0.079 -0.079
 0.752  1.361  0.172  0.011 -0.055 -0.078 -0.078
 0.754  1.363  0.173  0.011 -0.054 -0.076 -0.076
 0.756  1.363  0.174  0.012 -0.053 -0.075 -0.075
 0.758  1.365  0.175  0.012 -0.052 -0.074 -0.074
 0.760  1.366  0.176  0.012 -0.052 -0.073 -0.073
 0.762  1.368  0.178  0.012 -0.051 -0.072 -0.072
 0.764  1.369  0.178  0.012 -0.050 -0.071 -0.071
 0.766  1.370  0.180  0.012 -0.050 -0.070 -0.070
 0.768  1.372  0.182  0.012 -0.050 -0.069 -0.069
 0.770  1.375  0.183  0.012 -0.050 -0.069 -0.069
 0.772  1.376  0.185  0.012 -0.050 -0.068 -0.068
 0.774  1.378  0.187  0.012 -0.050 -0.068 -0.068
 0.776  1.380  0.189  0.012 -0.051 -0.067 -0.067
 0.778  1.382  0.191  0.011 -0.051 -0.067 -0.067
 0.780  1.384  0.193  0.011 -0.052 -0.066 -0.066
 0.782  1.387  0.196  0.010 -0.053 -0.066 -0.066
 0.784  1.390  0.198  0.009 -0.053 -0.066 -0.066
 0.786  1.392  0.200  0.007 -0.054 -0.066 -0.066
 0.788  1.395  0.203  0.006 -0.055 -0.066 -0.066
 0.790  1.398  0.205  0.004 -0.057 -0.066 -0.066
 0.792  1.401  0.207  0.002 -0.058 -0.066 -0.066
 0.794  1.404  0.210  0.000 -0.060 -0.066 -0.066
 0.796  1.408  0.212 -0.002 -0.061 -0.066 -0.066
 0.798  1.411  0.214 -0.005 -0.063 -0.066 -0.066
 0.800  1.414  0.216 -0.008 -0.065 -0.067 -0.067
 0.802  1.418  0.219 -0.012 -0.067 -0.068 -0.068
 0.804  1.421  0.221 -0.015 -0.070 -0.068 -0.068
 0.806  1.424  0.223 -0.019 -0.072 -0.069 -0.069
 0.808  1.427  0.225 -0.023 -0.074 -0.070 -0.070
