# IsPeriodic    : True
# Period        : 0.505989 days
# Normalization : <g_mag>=0
# 
# Phase u_mag  g_mag  r_mag  i_mag  z_mag  y_mag
 0.000  0.607 -0.596 -0.519 -0.437 -0.394 -0.394
 0.002  0.607 -0.596 -0.519 -0.437 -0.394 -0.394
 0.004  0.607 -0.595 -0.519 -0.437 -0.394 -0.394
 0.006  0.608 -0.594 -0.518 -0.436 -0.393 -0.393
 0.008  0.608 -0.592 -0.518 -0.435 -0.393 -0.393
 0.010  0.610 -0.590 -0.517 -0.435 -0.392 -0.392
 0.012  0.612 -0.587 -0.516 -0.434 -0.392 -0.392
 0.014  0.614 -0.583 -0.515 -0.432 -0.392 -0.392
 0.016  0.616 -0.579 -0.514 -0.430 -0.391 -0.391
 0.018  0.618 -0.575 -0.513 -0.429 -0.391 -0.391
 0.020  0.621 -0.571 -0.512 -0.427 -0.390 -0.390
 0.022  0.624 -0.567 -0.510 -0.426 -0.389 -0.389
 0.024  0.626 -0.562 -0.508 -0.423 -0.389 -0.389
 0.026  0.629 -0.557 -0.507 -0.421 -0.388 -0.388
 0.028  0.632 -0.552 -0.505 -0.420 -0.387 -0.387
 0.030  0.635 -0.547 -0.503 -0.417 -0.386 -0.386
 0.032  0.638 -0.542 -0.501 -0.415 -0.385 -0.385
 0.034  0.641 -0.538 -0.500 -0.413 -0.384 -0.384
 0.036  0.644 -0.533 -0.498 -0.410 -0.383 -0.383
 0.038  0.647 -0.528 -0.496 -0.408 -0.381 -0.381
 0.040  0.651 -0.523 -0.494 -0.406 -0.380 -0.380
 0.042  0.653 -0.518 -0.492 -0.404 -0.378 -0.378
 0.044  0.657 -0.513 -0.490 -0.401 -0.377 -0.377
 0.046  0.661 -0.508 -0.488 -0.399 -0.375 -0.375
 0.048  0.664 -0.504 -0.485 -0.397 -0.373 -0.373
 0.050  0.669 -0.498 -0.483 -0.395 -0.372 -0.372
 0.052  0.672 -0.493 -0.480 -0.393 -0.370 -0.370
 0.054  0.676 -0.489 -0.478 -0.391 -0.368 -0.368
 0.056  0.680 -0.484 -0.475 -0.389 -0.366 -0.366
 0.058  0.685 -0.478 -0.472 -0.387 -0.364 -0.364
 0.060  0.688 -0.473 -0.469 -0.384 -0.362 -0.362
 0.062  0.693 -0.469 -0.466 -0.383 -0.360 -0.360
 0.064  0.697 -0.464 -0.463 -0.381 -0.358 -0.358
 0.066  0.703 -0.458 -0.460 -0.378 -0.356 -0.356
 0.068  0.707 -0.454 -0.457 -0.376 -0.353 -0.353
 0.070  0.712 -0.449 -0.453 -0.375 -0.351 -0.351
 0.072  0.717 -0.443 -0.450 -0.372 -0.349 -0.349
 0.074  0.723 -0.438 -0.447 -0.370 -0.347 -0.347
 0.076  0.727 -0.433 -0.443 -0.368 -0.344 -0.344
 0.078  0.732 -0.428 -0.440 -0.366 -0.342 -0.342
 0.080  0.738 -0.423 -0.437 -0.364 -0.340 -0.340
 0.082  0.743 -0.418 -0.433 -0.362 -0.338 -0.338
 0.084  0.748 -0.413 -0.430 -0.361 -0.336 -0.336
 0.086  0.753 -0.407 -0.426 -0.358 -0.333 -0.333
 0.088  0.759 -0.403 -0.423 -0.357 -0.332 -0.332
 0.090  0.764 -0.397 -0.420 -0.355 -0.330 -0.330
 0.092  0.768 -0.392 -0.416 -0.353 -0.328 -0.328
 0.094  0.774 -0.387 -0.413 -0.351 -0.326 -0.326
 0.096  0.778 -0.382 -0.410 -0.349 -0.324 -0.324
 0.098  0.784 -0.377 -0.406 -0.347 -0.322 -0.322
 0.100  0.788 -0.372 -0.403 -0.345 -0.320 -0.320
 0.102  0.794 -0.367 -0.399 -0.343 -0.318 -0.318
 0.104  0.798 -0.362 -0.396 -0.342 -0.316 -0.316
 0.106  0.803 -0.357 -0.393 -0.339 -0.315 -0.315
 0.108  0.807 -0.353 -0.389 -0.338 -0.313 -0.313
 0.110  0.812 -0.348 -0.387 -0.336 -0.311 -0.311
 0.112  0.816 -0.343 -0.383 -0.334 -0.310 -0.310
 0.114  0.821 -0.338 -0.380 -0.332 -0.308 -0.308
 0.116  0.825 -0.334 -0.376 -0.330 -0.306 -0.306
 0.118  0.830 -0.329 -0.374 -0.329 -0.304 -0.304
 0.120  0.833 -0.325 -0.370 -0.327 -0.303 -0.303
 0.122  0.838 -0.320 -0.367 -0.325 -0.301 -0.301
 0.124  0.841 -0.316 -0.364 -0.323 -0.300 -0.300
 0.126  0.846 -0.312 -0.361 -0.321 -0.298 -0.298
 0.128  0.849 -0.307 -0.358 -0.319 -0.297 -0.297
 0.130  0.853 -0.302 -0.355 -0.318 -0.295 -0.295
 0.132  0.857 -0.299 -0.352 -0.316 -0.294 -0.294
 0.134  0.861 -0.294 -0.349 -0.314 -0.293 -0.293
 0.136  0.865 -0.290 -0.346 -0.312 -0.291 -0.291
 0.138  0.868 -0.286 -0.343 -0.310 -0.289 -0.289
 0.140  0.872 -0.282 -0.340 -0.309 -0.288 -0.288
 0.142  0.874 -0.278 -0.337 -0.307 -0.287 -0.287
 0.144  0.878 -0.274 -0.334 -0.305 -0.285 -0.285
 0.146  0.882 -0.269 -0.331 -0.303 -0.284 -0.284
 0.148  0.885 -0.266 -0.328 -0.301 -0.283 -0.283
 0.150  0.888 -0.262 -0.325 -0.299 -0.281 -0.281
 0.152  0.892 -0.258 -0.322 -0.298 -0.280 -0.280
 0.154  0.894 -0.254 -0.320 -0.296 -0.278 -0.278
 0.156  0.898 -0.251 -0.317 -0.294 -0.277 -0.277
 0.158  0.901 -0.247 -0.314 -0.292 -0.275 -0.275
 0.160  0.904 -0.244 -0.312 -0.291 -0.274 -0.274
 0.162  0.907 -0.240 -0.309 -0.289 -0.272 -0.272
 0.164  0.910 -0.236 -0.306 -0.287 -0.271 -0.271
 0.166  0.913 -0.233 -0.303 -0.285 -0.269 -0.269
 0.168  0.916 -0.229 -0.301 -0.284 -0.268 -0.268
 0.170  0.919 -0.225 -0.298 -0.282 -0.267 -0.267
 0.172  0.922 -0.222 -0.295 -0.280 -0.265 -0.265
 0.174  0.926 -0.218 -0.293 -0.279 -0.264 -0.264
 0.176  0.928 -0.215 -0.291 -0.277 -0.262 -0.262
 0.178  0.932 -0.211 -0.288 -0.275 -0.260 -0.260
 0.180  0.935 -0.207 -0.286 -0.273 -0.259 -0.259
 0.182  0.938 -0.203 -0.283 -0.272 -0.257 -0.257
 0.184  0.942 -0.200 -0.280 -0.270 -0.256 -0.256
 0.186  0.945 -0.197 -0.278 -0.268 -0.254 -0.254
 0.188  0.948 -0.193 -0.276 -0.267 -0.253 -0.253
 0.190  0.951 -0.189 -0.274 -0.265 -0.251 -0.251
 0.192  0.954 -0.185 -0.272 -0.264 -0.250 -0.250
 0.194  0.958 -0.182 -0.270 -0.262 -0.248 -0.248
 0.196  0.961 -0.178 -0.267 -0.261 -0.247 -0.247
 0.198  0.964 -0.174 -0.265 -0.259 -0.245 -0.245
 0.200  0.967 -0.170 -0.263 -0.258 -0.243 -0.243
 0.202  0.971 -0.167 -0.261 -0.256 -0.242 -0.242
 0.204  0.974 -0.163 -0.259 -0.255 -0.240 -0.240
 0.206  0.977 -0.159 -0.257 -0.253 -0.239 -0.239
 0.208  0.981 -0.155 -0.255 -0.252 -0.237 -0.237
 0.210  0.984 -0.151 -0.253 -0.251 -0.236 -0.236
 0.212  0.987 -0.148 -0.251 -0.249 -0.234 -0.234
 0.214  0.990 -0.144 -0.249 -0.247 -0.233 -0.233
 0.216  0.994 -0.140 -0.247 -0.246 -0.231 -0.231
 0.218  0.998 -0.136 -0.245 -0.245 -0.229 -0.229
 0.220  1.000 -0.133 -0.243 -0.244 -0.228 -0.228
 0.222  1.004 -0.129 -0.241 -0.242 -0.226 -0.226
 0.224  1.007 -0.125 -0.239 -0.241 -0.225 -0.225
 0.226  1.011 -0.121 -0.238 -0.240 -0.223 -0.223
 0.228  1.014 -0.116 -0.236 -0.238 -0.222 -0.222
 0.230  1.017 -0.113 -0.234 -0.237 -0.220 -0.220
 0.232  1.021 -0.109 -0.232 -0.236 -0.219 -0.219
 0.234  1.024 -0.105 -0.230 -0.234 -0.217 -0.217
 0.236  1.027 -0.101 -0.228 -0.233 -0.216 -0.216
 0.238  1.031 -0.098 -0.226 -0.232 -0.214 -0.214
 0.240  1.034 -0.094 -0.224 -0.231 -0.213 -0.213
 0.242  1.037 -0.090 -0.222 -0.229 -0.211 -0.211
 0.244  1.040 -0.086 -0.221 -0.228 -0.210 -0.210
 0.246  1.043 -0.082 -0.219 -0.227 -0.209 -0.209
 0.248  1.046 -0.079 -0.217 -0.226 -0.207 -0.207
 0.250  1.050 -0.076 -0.215 -0.225 -0.206 -0.206
 0.252  1.052 -0.072 -0.213 -0.223 -0.205 -0.205
 0.254  1.056 -0.068 -0.212 -0.222 -0.204 -0.204
 0.256  1.059 -0.065 -0.210 -0.221 -0.202 -0.202
 0.258  1.062 -0.062 -0.208 -0.219 -0.201 -0.201
 0.260  1.065 -0.058 -0.205 -0.218 -0.199 -0.199
 0.262  1.069 -0.055 -0.203 -0.216 -0.198 -0.198
 0.264  1.071 -0.051 -0.201 -0.215 -0.197 -0.197
 0.266  1.074 -0.048 -0.199 -0.214 -0.196 -0.196
 0.268  1.078 -0.045 -0.198 -0.213 -0.194 -0.194
 0.270  1.080 -0.042 -0.196 -0.211 -0.193 -0.193
 0.272  1.083 -0.039 -0.194 -0.210 -0.192 -0.192
 0.274  1.087 -0.035 -0.192 -0.208 -0.191 -0.191
 0.276  1.089 -0.032 -0.190 -0.207 -0.190 -0.190
 0.278  1.092 -0.030 -0.188 -0.206 -0.189 -0.189
 0.280  1.095 -0.027 -0.186 -0.204 -0.187 -0.187
 0.282  1.097 -0.024 -0.184 -0.202 -0.186 -0.186
 0.284  1.101 -0.020 -0.182 -0.201 -0.185 -0.185
 0.286  1.104 -0.017 -0.180 -0.199 -0.183 -0.183
 0.288  1.106 -0.015 -0.178 -0.198 -0.182 -0.182
 0.290  1.109 -0.012 -0.176 -0.196 -0.181 -0.181
 0.292  1.112 -0.010 -0.174 -0.195 -0.180 -0.180
 0.294  1.114 -0.007 -0.172 -0.193 -0.179 -0.179
 0.296  1.117 -0.004 -0.170 -0.192 -0.178 -0.178
 0.298  1.120 -0.001 -0.168 -0.190 -0.177 -0.177
 0.300  1.123  0.002 -0.166 -0.188 -0.175 -0.175
 0.302  1.125  0.003 -0.164 -0.187 -0.174 -0.174
 0.304  1.128  0.006 -0.162 -0.185 -0.173 -0.173
 0.306  1.131  0.009 -0.160 -0.183 -0.172 -0.172
 0.308  1.133  0.012 -0.158 -0.182 -0.170 -0.170
 0.310  1.136  0.014 -0.156 -0.180 -0.169 -0.169
 0.312  1.139  0.017 -0.154 -0.179 -0.168 -0.168
 0.314  1.141  0.019 -0.152 -0.177 -0.167 -0.167
 0.316  1.144  0.021 -0.151 -0.175 -0.165 -0.165
 0.318  1.147  0.024 -0.149 -0.173 -0.164 -0.164
 0.320  1.150  0.027 -0.147 -0.171 -0.163 -0.163
 0.322  1.151  0.030 -0.145 -0.170 -0.162 -0.162
 0.324  1.154  0.032 -0.143 -0.168 -0.161 -0.161
 0.326  1.157  0.035 -0.141 -0.167 -0.159 -0.159
 0.328  1.159  0.037 -0.139 -0.165 -0.158 -0.158
 0.330  1.162  0.040 -0.137 -0.163 -0.157 -0.157
 0.332  1.164  0.043 -0.135 -0.162 -0.155 -0.155
 0.334  1.167  0.045 -0.133 -0.161 -0.154 -0.154
 0.336  1.169  0.048 -0.131 -0.159 -0.153 -0.153
 0.338  1.171  0.051 -0.129 -0.157 -0.152 -0.152
 0.340  1.174  0.053 -0.128 -0.156 -0.150 -0.150
 0.342  1.176  0.056 -0.126 -0.154 -0.149 -0.149
 0.344  1.178  0.059 -0.124 -0.153 -0.148 -0.148
 0.346  1.181  0.062 -0.122 -0.151 -0.147 -0.147
 0.348  1.184  0.065 -0.120 -0.150 -0.145 -0.145
 0.350  1.185  0.068 -0.118 -0.149 -0.144 -0.144
 0.352  1.188  0.070 -0.116 -0.147 -0.143 -0.143
 0.354  1.190  0.073 -0.114 -0.145 -0.142 -0.142
 0.356  1.193  0.076 -0.112 -0.144 -0.140 -0.140
 0.358  1.194  0.079 -0.111 -0.143 -0.139 -0.139
 0.360  1.197  0.082 -0.109 -0.141 -0.137 -0.137
 0.362  1.199  0.085 -0.107 -0.140 -0.136 -0.136
 0.364  1.202  0.087 -0.105 -0.138 -0.135 -0.135
 0.366  1.203  0.090 -0.103 -0.137 -0.134 -0.134
 0.368  1.206  0.093 -0.101 -0.136 -0.132 -0.132
 0.370  1.208  0.096 -0.099 -0.135 -0.131 -0.131
 0.372  1.211  0.099 -0.098 -0.133 -0.130 -0.130
 0.374  1.212  0.102 -0.096 -0.132 -0.128 -0.128
 0.376  1.215  0.104 -0.094 -0.131 -0.127 -0.127
 0.378  1.217  0.107 -0.093 -0.129 -0.125 -0.125
 0.380  1.220  0.110 -0.091 -0.128 -0.124 -0.124
 0.382  1.221  0.113 -0.089 -0.127 -0.123 -0.123
 0.384  1.224  0.116 -0.087 -0.125 -0.121 -0.121
 0.386  1.226  0.119 -0.085 -0.124 -0.120 -0.120
 0.388  1.229  0.121 -0.083 -0.123 -0.119 -0.119
 0.390  1.230  0.124 -0.082 -0.122 -0.117 -0.117
 0.392  1.233  0.127 -0.080 -0.121 -0.116 -0.116
 0.394  1.235  0.130 -0.078 -0.119 -0.115 -0.115
 0.396  1.238  0.133 -0.076 -0.118 -0.113 -0.113
 0.398  1.239  0.135 -0.075 -0.116 -0.112 -0.112
 0.400  1.242  0.138 -0.073 -0.115 -0.110 -0.110
 0.402  1.245  0.140 -0.072 -0.114 -0.109 -0.109
 0.404  1.247  0.142 -0.070 -0.112 -0.107 -0.107
 0.406  1.249  0.145 -0.068 -0.111 -0.106 -0.106
 0.408  1.251  0.147 -0.066 -0.110 -0.105 -0.105
 0.410  1.254  0.150 -0.064 -0.109 -0.103 -0.103
 0.412  1.256  0.152 -0.063 -0.107 -0.102 -0.102
 0.414  1.258  0.155 -0.062 -0.106 -0.101 -0.101
 0.416  1.261  0.156 -0.060 -0.104 -0.099 -0.099
 0.418  1.264  0.159 -0.058 -0.103 -0.098 -0.098
 0.420  1.265  0.161 -0.056 -0.102 -0.096 -0.096
 0.422  1.268  0.163 -0.055 -0.100 -0.094 -0.094
 0.424  1.271  0.165 -0.053 -0.099 -0.093 -0.093
 0.426  1.273  0.168 -0.051 -0.097 -0.092 -0.092
 0.428  1.275  0.170 -0.049 -0.096 -0.090 -0.090
 0.430  1.278  0.172 -0.048 -0.095 -0.089 -0.089
 0.432  1.281  0.173 -0.047 -0.093 -0.088 -0.088
 0.434  1.283  0.175 -0.045 -0.092 -0.086 -0.086
 0.436  1.285  0.177 -0.043 -0.090 -0.085 -0.085
 0.438  1.288  0.179 -0.042 -0.089 -0.083 -0.083
 0.440  1.290  0.181 -0.040 -0.087 -0.082 -0.082
 0.442  1.292  0.183 -0.039 -0.086 -0.080 -0.080
 0.444  1.295  0.185 -0.037 -0.085 -0.079 -0.079
 0.446  1.297  0.187 -0.036 -0.083 -0.078 -0.078
 0.448  1.300  0.189 -0.035 -0.082 -0.076 -0.076
 0.450  1.302  0.189 -0.033 -0.080 -0.075 -0.075
 0.452  1.304  0.191 -0.031 -0.079 -0.074 -0.074
 0.454  1.306  0.193 -0.030 -0.077 -0.073 -0.073
 0.456  1.309  0.194 -0.028 -0.076 -0.071 -0.071
 0.458  1.310  0.196 -0.027 -0.074 -0.070 -0.070
 0.460  1.312  0.198 -0.026 -0.073 -0.069 -0.069
 0.462  1.315  0.199 -0.024 -0.072 -0.068 -0.068
 0.464  1.317  0.201 -0.023 -0.070 -0.066 -0.066
 0.466  1.318  0.202 -0.022 -0.069 -0.065 -0.065
 0.468  1.320  0.204 -0.021 -0.067 -0.063 -0.063
 0.470  1.322  0.205 -0.020 -0.066 -0.062 -0.062
 0.472  1.324  0.206 -0.018 -0.065 -0.061 -0.061
 0.474  1.326  0.207 -0.017 -0.064 -0.060 -0.060
 0.476  1.327  0.209 -0.016 -0.063 -0.059 -0.059
 0.478  1.329  0.210 -0.015 -0.061 -0.057 -0.057
 0.480  1.331  0.212 -0.014 -0.060 -0.056 -0.056
 0.482  1.333  0.213 -0.013 -0.059 -0.055 -0.055
 0.484  1.334  0.214 -0.012 -0.058 -0.054 -0.054
 0.486  1.336  0.215 -0.010 -0.056 -0.053 -0.053
 0.488  1.337  0.217 -0.010 -0.055 -0.051 -0.051
 0.490  1.338  0.218 -0.008 -0.054 -0.050 -0.050
 0.492  1.340  0.219 -0.008 -0.053 -0.049 -0.049
 0.494  1.341  0.220 -0.007 -0.052 -0.048 -0.048
 0.496  1.343  0.221 -0.006 -0.051 -0.047 -0.047
 0.498  1.344  0.222 -0.005 -0.050 -0.046 -0.046
 0.500  1.345  0.223 -0.003 -0.048 -0.045 -0.045
 0.502  1.346  0.224 -0.003 -0.047 -0.044 -0.044
 0.504  1.347  0.225 -0.002 -0.047 -0.043 -0.043
 0.506  1.348  0.226 -0.001 -0.046 -0.042 -0.042
 0.508  1.350  0.227 -0.000 -0.045 -0.041 -0.041
 0.510  1.351  0.227  0.001 -0.044 -0.039 -0.039
 0.512  1.352  0.228  0.001 -0.043 -0.038 -0.038
 0.514  1.353  0.229  0.003 -0.042 -0.037 -0.037
 0.516  1.354  0.230  0.003 -0.041 -0.036 -0.036
 0.518  1.354  0.231  0.004 -0.040 -0.035 -0.035
 0.520  1.355  0.232  0.005 -0.039 -0.034 -0.034
 0.522  1.356  0.232  0.006 -0.038 -0.033 -0.033
 0.524  1.357  0.233  0.007 -0.038 -0.032 -0.032
 0.526  1.358  0.234  0.007 -0.037 -0.031 -0.031
 0.528  1.359  0.235  0.009 -0.036 -0.030 -0.030
 0.530  1.360  0.235  0.009 -0.035 -0.029 -0.029
 0.532  1.361  0.236  0.010 -0.034 -0.028 -0.028
 0.534  1.362  0.237  0.011 -0.034 -0.027 -0.027
 0.536  1.363  0.237  0.012 -0.033 -0.026 -0.026
 0.538  1.363  0.238  0.013 -0.032 -0.025 -0.025
 0.540  1.363  0.238  0.014 -0.032 -0.024 -0.024
 0.542  1.364  0.239  0.015 -0.031 -0.024 -0.024
 0.544  1.365  0.239  0.015 -0.030 -0.023 -0.023
 0.546  1.366  0.240  0.017 -0.030 -0.021 -0.021
 0.548  1.366  0.240  0.017 -0.028 -0.020 -0.020
 0.550  1.367  0.240  0.018 -0.028 -0.020 -0.020
 0.552  1.368  0.240  0.019 -0.027 -0.019 -0.019
 0.554  1.369  0.240  0.020 -0.027 -0.018 -0.018
 0.556  1.369  0.241  0.021 -0.026 -0.017 -0.017
 0.558  1.370  0.241  0.022 -0.025 -0.016 -0.016
 0.560  1.370  0.242  0.023 -0.025 -0.015 -0.015
 0.562  1.371  0.242  0.024 -0.024 -0.014 -0.014
 0.564  1.372  0.242  0.025 -0.024 -0.014 -0.014
 0.566  1.372  0.242  0.026 -0.023 -0.013 -0.013
 0.568  1.372  0.243  0.026 -0.022 -0.012 -0.012
 0.570  1.372  0.243  0.028 -0.022 -0.011 -0.011
 0.572  1.373  0.243  0.028 -0.021 -0.010 -0.010
 0.574  1.373  0.243  0.030 -0.021 -0.010 -0.010
 0.576  1.374  0.243  0.030 -0.020 -0.009 -0.009
 0.578  1.374  0.243  0.031 -0.020 -0.008 -0.008
 0.580  1.374  0.243  0.032 -0.019 -0.007 -0.007
 0.582  1.375  0.243  0.033 -0.019 -0.006 -0.006
 0.584  1.375  0.243  0.034 -0.018 -0.005 -0.005
 0.586  1.376  0.243  0.034 -0.018 -0.004 -0.004
 0.588  1.376  0.243  0.035 -0.017 -0.003 -0.003
 0.590  1.376  0.243  0.036 -0.017 -0.003 -0.003
 0.592  1.377  0.243  0.037 -0.016 -0.002 -0.002
 0.594  1.377  0.243  0.038 -0.016 -0.001 -0.001
 0.596  1.378  0.243  0.038 -0.015 -0.000 -0.000
 0.598  1.378  0.243  0.039 -0.015  0.001  0.001
 0.600  1.378  0.243  0.039 -0.014  0.001  0.001
 0.602  1.379  0.243  0.040 -0.014  0.002  0.002
 0.604  1.379  0.243  0.040 -0.013  0.003  0.003
 0.606  1.380  0.243  0.041 -0.013  0.004  0.004
 0.608  1.380  0.243  0.042 -0.013  0.004  0.004
 0.610  1.380  0.242  0.042 -0.012  0.005  0.005
 0.612  1.380  0.242  0.042 -0.012  0.006  0.006
 0.614  1.380  0.242  0.043 -0.011  0.007  0.007
 0.616  1.381  0.242  0.043 -0.011  0.008  0.008
 0.618  1.381  0.242  0.044 -0.011  0.009  0.009
 0.620  1.382  0.242  0.044 -0.010  0.010  0.010
 0.622  1.382  0.242  0.044 -0.009  0.011  0.011
 0.624  1.383  0.242  0.044 -0.009  0.011  0.011
 0.626  1.383  0.242  0.044 -0.008  0.012  0.012
 0.628  1.383  0.242  0.045 -0.008  0.013  0.013
 0.630  1.384  0.241  0.045 -0.007  0.014  0.014
 0.632  1.384  0.241  0.045 -0.007  0.014  0.014
 0.634  1.385  0.241  0.045 -0.007  0.015  0.015
 0.636  1.385  0.241  0.045 -0.006  0.016  0.016
 0.638  1.386  0.241  0.045 -0.006  0.017  0.017
 0.640  1.386  0.241  0.045 -0.005  0.018  0.018
 0.642  1.387  0.241  0.045 -0.005  0.018  0.018
 0.644  1.387  0.241  0.045 -0.004  0.019  0.019
 0.646  1.388  0.240  0.045 -0.004  0.020  0.020
 0.648  1.388  0.240  0.045 -0.003  0.020  0.020
 0.650  1.388  0.240  0.045 -0.002  0.021  0.021
 0.652  1.389  0.240  0.045 -0.002  0.022  0.022
 0.654  1.389  0.240  0.045 -0.002  0.022  0.022
 0.656  1.389  0.240  0.046 -0.001  0.023  0.023
 0.658  1.389  0.240  0.046 -0.001  0.024  0.024
 0.660  1.390  0.240  0.046 -0.000  0.024  0.024
 0.662  1.391  0.240  0.046  0.000  0.025  0.025
 0.664  1.391  0.240  0.046  0.001  0.025  0.025
 0.666  1.392  0.240  0.047  0.001  0.025  0.025
 0.668  1.392  0.240  0.047  0.002  0.026  0.026
 0.670  1.393  0.240  0.047  0.002  0.026  0.026
 0.672  1.393  0.240  0.047  0.003  0.027  0.027
 0.674  1.394  0.240  0.048  0.004  0.027  0.027
 0.676  1.395  0.240  0.049  0.005  0.027  0.027
 0.678  1.395  0.240  0.049  0.006  0.027  0.027
 0.680  1.396  0.240  0.049  0.006  0.028  0.028
 0.682  1.396  0.240  0.050  0.007  0.028  0.028
 0.684  1.397  0.240  0.051  0.008  0.028  0.028
 0.686  1.398  0.241  0.051  0.009  0.028  0.028
 0.688  1.398  0.241  0.052  0.010  0.028  0.028
 0.690  1.398  0.242  0.053  0.011  0.028  0.028
 0.692  1.399  0.242  0.053  0.012  0.028  0.028
 0.694  1.400  0.243  0.054  0.013  0.028  0.028
 0.696  1.400  0.244  0.055  0.015  0.028  0.028
 0.698  1.401  0.244  0.056  0.016  0.028  0.028
 0.700  1.402  0.245  0.057  0.017  0.028  0.028
 0.702  1.403  0.246  0.058  0.019  0.028  0.028
 0.704  1.404  0.247  0.059  0.020  0.028  0.028
 0.706  1.404  0.248  0.060  0.022  0.028  0.028
 0.708  1.405  0.249  0.061  0.023  0.028  0.028
 0.710  1.406  0.250  0.062  0.025  0.028  0.028
 0.712  1.407  0.251  0.063  0.027  0.028  0.028
 0.714  1.407  0.252  0.064  0.028  0.028  0.028
 0.716  1.407  0.253  0.065  0.030  0.028  0.028
 0.718  1.408  0.254  0.067  0.032  0.028  0.028
 0.720  1.409  0.256  0.068  0.034  0.029  0.029
 0.722  1.410  0.256  0.069  0.036  0.029  0.029
 0.724  1.411  0.257  0.071  0.038  0.029  0.029
 0.726  1.412  0.259  0.072  0.040  0.030  0.030
 0.728  1.413  0.260  0.074  0.042  0.030  0.030
 0.730  1.414  0.262  0.076  0.044  0.031  0.031
 0.732  1.416  0.263  0.077  0.046  0.032  0.032
 0.734  1.416  0.265  0.078  0.049  0.033  0.033
 0.736  1.417  0.267  0.080  0.051  0.034  0.034
 0.738  1.419  0.268  0.082  0.053  0.035  0.035
 0.740  1.420  0.270  0.084  0.055  0.036  0.036
 0.742  1.422  0.272  0.086  0.057  0.037  0.037
 0.744  1.424  0.273  0.087  0.059  0.039  0.039
 0.746  1.425  0.274  0.089  0.062  0.040  0.040
 0.748  1.427  0.276  0.091  0.064  0.041  0.041
 0.750  1.429  0.278  0.093  0.066  0.043  0.043
 0.752  1.431  0.280  0.095  0.068  0.045  0.045
 0.754  1.433  0.282  0.097  0.070  0.046  0.046
 0.756  1.434  0.284  0.099  0.072  0.048  0.048
 0.758  1.436  0.286  0.101  0.074  0.050  0.050
 0.760  1.439  0.289  0.103  0.076  0.052  0.052
 0.762  1.441  0.290  0.105  0.078  0.054  0.054
 0.764  1.443  0.292  0.107  0.079  0.056  0.056
 0.766  1.446  0.294  0.109  0.081  0.058  0.058
 0.768  1.448  0.296  0.112  0.083  0.061  0.061
 0.770  1.451  0.299  0.114  0.084  0.063  0.063
 0.772  1.453  0.301  0.117  0.086  0.065  0.065
 0.774  1.457  0.303  0.119  0.088  0.068  0.068
 0.776  1.460  0.305  0.122  0.089  0.071  0.071
 0.778  1.462  0.307  0.125  0.090  0.073  0.073
 0.780  1.466  0.309  0.128  0.091  0.076  0.076
 0.782  1.469  0.311  0.130  0.092  0.079  0.079
 0.784  1.472  0.314  0.133  0.093  0.081  0.081
 0.786  1.476  0.316  0.136  0.095  0.084  0.084
 0.788  1.478  0.319  0.138  0.096  0.087  0.087
 0.790  1.482  0.322  0.140  0.097  0.089  0.089
 0.792  1.486  0.324  0.143  0.098  0.091  0.091
 0.794  1.488  0.327  0.145  0.099  0.094  0.094
 0.796  1.492  0.330  0.147  0.100  0.096  0.096
 0.798  1.495  0.333  0.149  0.101  0.098  0.098
 0.800  1.497  0.336  0.151  0.102  0.100  0.100
 0.802  1.500  0.339  0.153  0.103  0.102  0.102
 0.804  1.502  0.341  0.154  0.104  0.104  0.104
 0.806  1.504  0.343  0.155  0.104  0.106  0.106
 0.808  1.505  0.345  0.156  0.105  0.107  0.107
