# IsPeriodic    : True
# Period        : 0.547987 days
# Normalization : <g_mag>=0
# 
# Phase u_mag  g_mag  r_mag  i_mag  z_mag  y_mag
 0.000  0.512 -0.742 -0.638 -0.583 -0.540 -0.540
 0.002  0.512 -0.741 -0.638 -0.583 -0.540 -0.540
 0.004  0.512 -0.740 -0.638 -0.583 -0.539 -0.539
 0.006  0.513 -0.738 -0.638 -0.583 -0.538 -0.538
 0.008  0.514 -0.736 -0.638 -0.582 -0.538 -0.538
 0.010  0.515 -0.732 -0.637 -0.581 -0.537 -0.537
 0.012  0.516 -0.728 -0.636 -0.580 -0.536 -0.536
 0.014  0.518 -0.723 -0.635 -0.579 -0.535 -0.535
 0.016  0.520 -0.717 -0.634 -0.578 -0.534 -0.534
 0.018  0.522 -0.712 -0.633 -0.576 -0.533 -0.533
 0.020  0.524 -0.706 -0.632 -0.574 -0.531 -0.531
 0.022  0.527 -0.701 -0.630 -0.572 -0.530 -0.530
 0.024  0.530 -0.694 -0.629 -0.571 -0.528 -0.528
 0.026  0.535 -0.689 -0.626 -0.569 -0.527 -0.527
 0.028  0.538 -0.682 -0.625 -0.567 -0.526 -0.526
 0.030  0.542 -0.677 -0.622 -0.565 -0.524 -0.524
 0.032  0.547 -0.671 -0.621 -0.563 -0.522 -0.522
 0.034  0.551 -0.666 -0.618 -0.561 -0.520 -0.520
 0.036  0.556 -0.660 -0.616 -0.560 -0.519 -0.519
 0.038  0.561 -0.655 -0.613 -0.558 -0.517 -0.517
 0.040  0.567 -0.649 -0.610 -0.556 -0.516 -0.516
 0.042  0.573 -0.644 -0.607 -0.553 -0.513 -0.513
 0.044  0.579 -0.638 -0.604 -0.551 -0.512 -0.512
 0.046  0.585 -0.633 -0.601 -0.549 -0.510 -0.510
 0.048  0.591 -0.627 -0.597 -0.546 -0.507 -0.507
 0.050  0.598 -0.621 -0.593 -0.544 -0.506 -0.506
 0.052  0.605 -0.615 -0.590 -0.541 -0.503 -0.503
 0.054  0.612 -0.609 -0.586 -0.538 -0.501 -0.501
 0.056  0.618 -0.602 -0.582 -0.536 -0.499 -0.499
 0.058  0.625 -0.597 -0.577 -0.533 -0.496 -0.496
 0.060  0.631 -0.590 -0.573 -0.530 -0.493 -0.493
 0.062  0.639 -0.584 -0.569 -0.527 -0.491 -0.491
 0.064  0.645 -0.577 -0.564 -0.524 -0.489 -0.489
 0.066  0.652 -0.571 -0.560 -0.520 -0.486 -0.486
 0.068  0.658 -0.564 -0.554 -0.517 -0.483 -0.483
 0.070  0.664 -0.557 -0.549 -0.514 -0.481 -0.481
 0.072  0.670 -0.551 -0.545 -0.510 -0.478 -0.478
 0.074  0.677 -0.544 -0.540 -0.507 -0.475 -0.475
 0.076  0.683 -0.538 -0.534 -0.504 -0.472 -0.472
 0.078  0.688 -0.531 -0.529 -0.500 -0.470 -0.470
 0.080  0.694 -0.525 -0.525 -0.497 -0.467 -0.467
 0.082  0.699 -0.518 -0.519 -0.493 -0.464 -0.464
 0.084  0.705 -0.512 -0.514 -0.490 -0.461 -0.461
 0.086  0.711 -0.505 -0.509 -0.487 -0.458 -0.458
 0.088  0.716 -0.498 -0.504 -0.483 -0.456 -0.456
 0.090  0.721 -0.492 -0.500 -0.480 -0.453 -0.453
 0.092  0.727 -0.485 -0.496 -0.477 -0.450 -0.450
 0.094  0.732 -0.480 -0.492 -0.474 -0.448 -0.448
 0.096  0.737 -0.473 -0.487 -0.471 -0.446 -0.446
 0.098  0.742 -0.467 -0.483 -0.468 -0.443 -0.443
 0.100  0.748 -0.460 -0.479 -0.465 -0.441 -0.441
 0.102  0.753 -0.455 -0.475 -0.462 -0.439 -0.439
 0.104  0.757 -0.448 -0.471 -0.459 -0.436 -0.436
 0.106  0.762 -0.442 -0.468 -0.457 -0.434 -0.434
 0.108  0.767 -0.436 -0.464 -0.454 -0.432 -0.432
 0.110  0.771 -0.431 -0.460 -0.451 -0.430 -0.430
 0.112  0.775 -0.424 -0.456 -0.448 -0.427 -0.427
 0.114  0.781 -0.419 -0.452 -0.446 -0.425 -0.425
 0.116  0.785 -0.413 -0.449 -0.443 -0.423 -0.423
 0.118  0.789 -0.408 -0.446 -0.441 -0.421 -0.421
 0.120  0.793 -0.402 -0.443 -0.439 -0.419 -0.419
 0.122  0.797 -0.397 -0.440 -0.436 -0.418 -0.418
 0.124  0.801 -0.391 -0.436 -0.434 -0.416 -0.416
 0.126  0.805 -0.386 -0.433 -0.432 -0.413 -0.413
 0.128  0.809 -0.380 -0.430 -0.429 -0.412 -0.412
 0.130  0.814 -0.375 -0.428 -0.427 -0.410 -0.410
 0.132  0.818 -0.369 -0.424 -0.425 -0.409 -0.409
 0.134  0.822 -0.365 -0.422 -0.423 -0.407 -0.407
 0.136  0.827 -0.360 -0.420 -0.422 -0.405 -0.405
 0.138  0.831 -0.354 -0.417 -0.420 -0.404 -0.404
 0.140  0.835 -0.350 -0.415 -0.418 -0.402 -0.402
 0.142  0.839 -0.344 -0.412 -0.416 -0.401 -0.401
 0.144  0.843 -0.340 -0.410 -0.414 -0.399 -0.399
 0.146  0.847 -0.334 -0.407 -0.413 -0.398 -0.398
 0.148  0.852 -0.330 -0.405 -0.411 -0.396 -0.396
 0.150  0.856 -0.326 -0.403 -0.409 -0.395 -0.395
 0.152  0.860 -0.321 -0.400 -0.407 -0.393 -0.393
 0.154  0.864 -0.316 -0.398 -0.405 -0.392 -0.392
 0.156  0.868 -0.312 -0.395 -0.404 -0.390 -0.390
 0.158  0.872 -0.307 -0.393 -0.402 -0.389 -0.389
 0.160  0.876 -0.303 -0.391 -0.400 -0.387 -0.387
 0.162  0.880 -0.298 -0.388 -0.398 -0.386 -0.386
 0.164  0.885 -0.294 -0.386 -0.397 -0.384 -0.384
 0.166  0.889 -0.290 -0.383 -0.395 -0.383 -0.383
 0.168  0.894 -0.285 -0.381 -0.394 -0.381 -0.381
 0.170  0.898 -0.281 -0.378 -0.392 -0.380 -0.380
 0.172  0.902 -0.277 -0.375 -0.390 -0.378 -0.378
 0.174  0.906 -0.271 -0.373 -0.388 -0.377 -0.377
 0.176  0.910 -0.267 -0.371 -0.387 -0.375 -0.375
 0.178  0.914 -0.262 -0.367 -0.385 -0.374 -0.374
 0.180  0.919 -0.258 -0.365 -0.383 -0.372 -0.372
 0.182  0.923 -0.254 -0.363 -0.381 -0.370 -0.370
 0.184  0.927 -0.249 -0.359 -0.380 -0.369 -0.369
 0.186  0.931 -0.245 -0.357 -0.378 -0.367 -0.367
 0.188  0.936 -0.240 -0.354 -0.376 -0.366 -0.366
 0.190  0.940 -0.236 -0.351 -0.374 -0.364 -0.364
 0.192  0.944 -0.232 -0.348 -0.373 -0.362 -0.362
 0.194  0.948 -0.227 -0.346 -0.371 -0.360 -0.360
 0.196  0.952 -0.223 -0.343 -0.369 -0.359 -0.359
 0.198  0.957 -0.219 -0.339 -0.367 -0.357 -0.357
 0.200  0.961 -0.214 -0.337 -0.366 -0.356 -0.356
 0.202  0.965 -0.210 -0.334 -0.364 -0.354 -0.354
 0.204  0.969 -0.205 -0.331 -0.362 -0.352 -0.352
 0.206  0.973 -0.201 -0.328 -0.360 -0.350 -0.350
 0.208  0.977 -0.197 -0.325 -0.358 -0.349 -0.349
 0.210  0.981 -0.192 -0.322 -0.357 -0.347 -0.347
 0.212  0.985 -0.188 -0.318 -0.355 -0.345 -0.345
 0.214  0.990 -0.185 -0.315 -0.353 -0.343 -0.343
 0.216  0.994 -0.180 -0.313 -0.351 -0.342 -0.342
 0.218  0.997 -0.176 -0.310 -0.349 -0.340 -0.340
 0.220  1.001 -0.172 -0.306 -0.347 -0.338 -0.338
 0.222  1.005 -0.167 -0.303 -0.345 -0.336 -0.336
 0.224  1.009 -0.163 -0.300 -0.344 -0.335 -0.335
 0.226  1.012 -0.158 -0.298 -0.342 -0.333 -0.333
 0.228  1.016 -0.154 -0.294 -0.340 -0.331 -0.331
 0.230  1.020 -0.151 -0.292 -0.338 -0.329 -0.329
 0.232  1.024 -0.146 -0.289 -0.336 -0.328 -0.328
 0.234  1.028 -0.142 -0.286 -0.334 -0.326 -0.326
 0.236  1.032 -0.138 -0.283 -0.333 -0.324 -0.324
 0.238  1.035 -0.134 -0.281 -0.331 -0.322 -0.322
 0.240  1.039 -0.130 -0.278 -0.329 -0.321 -0.321
 0.242  1.042 -0.126 -0.275 -0.327 -0.320 -0.320
 0.244  1.046 -0.122 -0.273 -0.326 -0.318 -0.318
 0.246  1.049 -0.118 -0.270 -0.324 -0.316 -0.316
 0.248  1.053 -0.115 -0.268 -0.322 -0.314 -0.314
 0.250  1.056 -0.110 -0.265 -0.320 -0.313 -0.313
 0.252  1.060 -0.106 -0.262 -0.319 -0.311 -0.311
 0.254  1.064 -0.103 -0.260 -0.317 -0.310 -0.310
 0.256  1.067 -0.099 -0.258 -0.315 -0.308 -0.308
 0.258  1.070 -0.095 -0.255 -0.314 -0.307 -0.307
 0.260  1.074 -0.092 -0.253 -0.312 -0.305 -0.305
 0.262  1.077 -0.087 -0.250 -0.310 -0.303 -0.303
 0.264  1.080 -0.084 -0.249 -0.308 -0.302 -0.302
 0.266  1.083 -0.081 -0.246 -0.307 -0.300 -0.300
 0.268  1.087 -0.078 -0.244 -0.305 -0.299 -0.299
 0.270  1.090 -0.073 -0.242 -0.303 -0.297 -0.297
 0.272  1.094 -0.070 -0.240 -0.301 -0.296 -0.296
 0.274  1.097 -0.067 -0.238 -0.300 -0.294 -0.294
 0.276  1.101 -0.063 -0.236 -0.298 -0.293 -0.293
 0.278  1.104 -0.060 -0.234 -0.296 -0.291 -0.291
 0.280  1.107 -0.057 -0.232 -0.294 -0.290 -0.290
 0.282  1.110 -0.052 -0.229 -0.293 -0.288 -0.288
 0.284  1.113 -0.049 -0.228 -0.291 -0.287 -0.287
 0.286  1.117 -0.046 -0.225 -0.290 -0.285 -0.285
 0.288  1.120 -0.043 -0.224 -0.288 -0.284 -0.284
 0.290  1.123 -0.039 -0.222 -0.287 -0.282 -0.282
 0.292  1.126 -0.037 -0.220 -0.285 -0.281 -0.281
 0.294  1.130 -0.034 -0.218 -0.283 -0.279 -0.279
 0.296  1.134 -0.031 -0.216 -0.282 -0.278 -0.278
 0.298  1.137 -0.027 -0.214 -0.280 -0.277 -0.277
 0.300  1.140 -0.024 -0.213 -0.278 -0.275 -0.275
 0.302  1.143 -0.021 -0.210 -0.276 -0.274 -0.274
 0.304  1.146 -0.017 -0.209 -0.275 -0.272 -0.272
 0.306  1.150 -0.014 -0.206 -0.273 -0.271 -0.271
 0.308  1.153 -0.012 -0.205 -0.271 -0.270 -0.270
 0.310  1.156 -0.009 -0.202 -0.270 -0.268 -0.268
 0.312  1.159 -0.005 -0.201 -0.268 -0.267 -0.267
 0.314  1.162 -0.002 -0.198 -0.267 -0.265 -0.265
 0.316  1.166  0.001 -0.196 -0.265 -0.264 -0.264
 0.318  1.170  0.004 -0.194 -0.264 -0.263 -0.263
 0.320  1.173  0.007 -0.192 -0.262 -0.261 -0.261
 0.322  1.176  0.010 -0.189 -0.260 -0.260 -0.260
 0.324  1.179  0.013 -0.188 -0.258 -0.259 -0.259
 0.326  1.182  0.016 -0.185 -0.256 -0.257 -0.257
 0.328  1.185  0.020 -0.183 -0.255 -0.256 -0.256
 0.330  1.189  0.022 -0.181 -0.253 -0.255 -0.255
 0.332  1.192  0.025 -0.179 -0.251 -0.253 -0.253
 0.334  1.195  0.029 -0.177 -0.250 -0.252 -0.252
 0.336  1.199  0.032 -0.174 -0.248 -0.251 -0.251
 0.338  1.202  0.035 -0.173 -0.246 -0.250 -0.250
 0.340  1.205  0.037 -0.170 -0.245 -0.248 -0.248
 0.342  1.208  0.041 -0.168 -0.243 -0.247 -0.247
 0.344  1.211  0.044 -0.165 -0.242 -0.245 -0.245
 0.346  1.214  0.047 -0.163 -0.240 -0.244 -0.244
 0.348  1.218  0.049 -0.161 -0.238 -0.243 -0.243
 0.350  1.221  0.053 -0.158 -0.237 -0.241 -0.241
 0.352  1.224  0.056 -0.157 -0.235 -0.240 -0.240
 0.354  1.227  0.059 -0.154 -0.233 -0.239 -0.239
 0.356  1.229  0.061 -0.152 -0.231 -0.237 -0.237
 0.358  1.232  0.065 -0.149 -0.230 -0.236 -0.236
 0.360  1.236  0.068 -0.147 -0.228 -0.235 -0.235
 0.362  1.239  0.070 -0.145 -0.226 -0.234 -0.234
 0.364  1.242  0.073 -0.142 -0.224 -0.233 -0.233
 0.366  1.245  0.077 -0.140 -0.223 -0.231 -0.231
 0.368  1.248  0.080 -0.137 -0.221 -0.230 -0.230
 0.370  1.251  0.082 -0.135 -0.219 -0.229 -0.229
 0.372  1.253  0.085 -0.132 -0.218 -0.227 -0.227
 0.374  1.256  0.089 -0.130 -0.216 -0.226 -0.226
 0.376  1.259  0.091 -0.128 -0.214 -0.224 -0.224
 0.378  1.262  0.094 -0.126 -0.213 -0.223 -0.223
 0.380  1.264  0.097 -0.124 -0.211 -0.222 -0.222
 0.382  1.267  0.101 -0.121 -0.209 -0.220 -0.220
 0.384  1.271  0.103 -0.119 -0.208 -0.219 -0.219
 0.386  1.273  0.106 -0.117 -0.206 -0.217 -0.217
 0.388  1.276  0.109 -0.115 -0.204 -0.216 -0.216
 0.390  1.279  0.113 -0.112 -0.203 -0.215 -0.215
 0.392  1.281  0.115 -0.110 -0.201 -0.213 -0.213
 0.394  1.284  0.118 -0.108 -0.199 -0.212 -0.212
 0.396  1.286  0.121 -0.106 -0.197 -0.210 -0.210
 0.398  1.289  0.125 -0.104 -0.195 -0.209 -0.209
 0.400  1.291  0.127 -0.102 -0.194 -0.208 -0.208
 0.402  1.294  0.130 -0.100 -0.192 -0.206 -0.206
 0.404  1.296  0.133 -0.097 -0.190 -0.205 -0.205
 0.406  1.299  0.137 -0.096 -0.188 -0.203 -0.203
 0.408  1.301  0.140 -0.093 -0.187 -0.202 -0.202
 0.410  1.305  0.142 -0.091 -0.185 -0.201 -0.201
 0.412  1.307  0.146 -0.089 -0.183 -0.199 -0.199
 0.414  1.310  0.149 -0.087 -0.182 -0.198 -0.198
 0.416  1.312  0.152 -0.085 -0.180 -0.196 -0.196
 0.418  1.314  0.155 -0.083 -0.178 -0.194 -0.194
 0.420  1.317  0.158 -0.081 -0.177 -0.193 -0.193
 0.422  1.319  0.161 -0.079 -0.175 -0.191 -0.191
 0.424  1.321  0.164 -0.077 -0.173 -0.190 -0.190
 0.426  1.324  0.167 -0.075 -0.172 -0.188 -0.188
 0.428  1.326  0.171 -0.073 -0.170 -0.187 -0.187
 0.430  1.328  0.174 -0.071 -0.168 -0.185 -0.185
 0.432  1.330  0.176 -0.069 -0.167 -0.184 -0.184
 0.434  1.332  0.179 -0.068 -0.165 -0.182 -0.182
 0.436  1.335  0.183 -0.065 -0.163 -0.181 -0.181
 0.438  1.337  0.186 -0.064 -0.161 -0.179 -0.179
 0.440  1.340  0.189 -0.062 -0.160 -0.178 -0.178
 0.442  1.342  0.193 -0.060 -0.158 -0.176 -0.176
 0.444  1.344  0.195 -0.058 -0.156 -0.174 -0.174
 0.446  1.346  0.198 -0.056 -0.155 -0.173 -0.173
 0.448  1.348  0.201 -0.055 -0.153 -0.171 -0.171
 0.450  1.350  0.203 -0.053 -0.152 -0.170 -0.170
 0.452  1.352  0.207 -0.052 -0.151 -0.169 -0.169
 0.454  1.354  0.209 -0.050 -0.149 -0.167 -0.167
 0.456  1.357  0.211 -0.048 -0.147 -0.166 -0.166
 0.458  1.358  0.214 -0.047 -0.146 -0.164 -0.164
 0.460  1.360  0.217 -0.045 -0.145 -0.163 -0.163
 0.462  1.362  0.219 -0.043 -0.143 -0.162 -0.162
 0.464  1.364  0.221 -0.042 -0.142 -0.161 -0.161
 0.466  1.366  0.223 -0.040 -0.140 -0.159 -0.159
 0.468  1.368  0.225 -0.039 -0.139 -0.158 -0.158
 0.470  1.370  0.228 -0.038 -0.138 -0.157 -0.157
 0.472  1.372  0.230 -0.036 -0.136 -0.156 -0.156
 0.474  1.375  0.232 -0.035 -0.135 -0.154 -0.154
 0.476  1.377  0.234 -0.033 -0.134 -0.153 -0.153
 0.478  1.378  0.236 -0.032 -0.133 -0.152 -0.152
 0.480  1.380  0.237 -0.031 -0.132 -0.150 -0.150
 0.482  1.382  0.240 -0.029 -0.131 -0.149 -0.149
 0.484  1.384  0.242 -0.028 -0.129 -0.148 -0.148
 0.486  1.385  0.243 -0.027 -0.129 -0.147 -0.147
 0.488  1.387  0.245 -0.026 -0.127 -0.146 -0.146
 0.490  1.389  0.246 -0.024 -0.126 -0.145 -0.145
 0.492  1.390  0.247 -0.023 -0.125 -0.144 -0.144
 0.494  1.392  0.249 -0.023 -0.124 -0.143 -0.143
 0.496  1.393  0.250 -0.021 -0.124 -0.142 -0.142
 0.498  1.395  0.252 -0.020 -0.122 -0.140 -0.140
 0.500  1.396  0.253 -0.019 -0.122 -0.139 -0.139
 0.502  1.398  0.254 -0.018 -0.120 -0.138 -0.138
 0.504  1.399  0.255 -0.017 -0.120 -0.138 -0.138
 0.506  1.401  0.256 -0.016 -0.118 -0.136 -0.136
 0.508  1.402  0.257 -0.015 -0.118 -0.135 -0.135
 0.510  1.403  0.258 -0.014 -0.117 -0.134 -0.134
 0.512  1.405  0.259 -0.013 -0.116 -0.133 -0.133
 0.514  1.406  0.260 -0.012 -0.115 -0.132 -0.132
 0.516  1.407  0.260 -0.011 -0.115 -0.131 -0.131
 0.518  1.410  0.261 -0.010 -0.113 -0.131 -0.131
 0.520  1.411  0.262 -0.009 -0.113 -0.129 -0.129
 0.522  1.412  0.262 -0.008 -0.112 -0.128 -0.128
 0.524  1.413  0.264 -0.007 -0.111 -0.128 -0.128
 0.526  1.414  0.265 -0.006 -0.111 -0.126 -0.126
 0.528  1.415  0.266 -0.005 -0.109 -0.126 -0.126
 0.530  1.416  0.266 -0.004 -0.109 -0.125 -0.125
 0.532  1.417  0.267 -0.003 -0.108 -0.124 -0.124
 0.534  1.418  0.267 -0.003 -0.108 -0.123 -0.123
 0.536  1.419  0.268 -0.002 -0.107 -0.122 -0.122
 0.538  1.420  0.269 -0.000 -0.106 -0.121 -0.121
 0.540  1.421  0.269  0.001 -0.105 -0.120 -0.120
 0.542  1.422  0.270  0.001 -0.104 -0.119 -0.119
 0.544  1.423  0.271  0.002 -0.104 -0.118 -0.118
 0.546  1.424  0.271  0.003 -0.103 -0.118 -0.118
 0.548  1.425  0.272  0.004 -0.102 -0.117 -0.117
 0.550  1.425  0.272  0.005 -0.102 -0.116 -0.116
 0.552  1.426  0.273  0.006 -0.101 -0.115 -0.115
 0.554  1.427  0.273  0.007 -0.100 -0.114 -0.114
 0.556  1.427  0.275  0.008 -0.100 -0.114 -0.114
 0.558  1.428  0.275  0.009 -0.099 -0.113 -0.113
 0.560  1.429  0.276  0.009 -0.099 -0.112 -0.112
 0.562  1.429  0.276  0.010 -0.098 -0.111 -0.111
 0.564  1.430  0.277  0.011 -0.097 -0.111 -0.111
 0.566  1.430  0.277  0.012 -0.097 -0.110 -0.110
 0.568  1.430  0.277  0.013 -0.096 -0.109 -0.109
 0.570  1.431  0.278  0.013 -0.096 -0.108 -0.108
 0.572  1.431  0.278  0.014 -0.095 -0.107 -0.107
 0.574  1.432  0.279  0.015 -0.095 -0.107 -0.107
 0.576  1.432  0.279  0.016 -0.094 -0.106 -0.106
 0.578  1.432  0.279  0.017 -0.093 -0.105 -0.105
 0.580  1.432  0.280  0.017 -0.093 -0.105 -0.105
 0.582  1.432  0.280  0.018 -0.092 -0.104 -0.104
 0.584  1.432  0.280  0.019 -0.091 -0.103 -0.103
 0.586  1.433  0.281  0.020 -0.091 -0.103 -0.103
 0.588  1.433  0.281  0.021 -0.091 -0.102 -0.102
 0.590  1.433  0.281  0.021 -0.090 -0.101 -0.101
 0.592  1.433  0.281  0.021 -0.090 -0.100 -0.100
 0.594  1.432  0.282  0.022 -0.089 -0.100 -0.100
 0.596  1.432  0.282  0.023 -0.088 -0.099 -0.099
 0.598  1.432  0.282  0.024 -0.088 -0.098 -0.098
 0.600  1.432  0.282  0.024 -0.087 -0.098 -0.098
 0.602  1.432  0.283  0.025 -0.086 -0.097 -0.097
 0.604  1.432  0.283  0.025 -0.086 -0.096 -0.096
 0.606  1.431  0.283  0.025 -0.086 -0.096 -0.096
 0.608  1.431  0.283  0.026 -0.085 -0.095 -0.095
 0.610  1.431  0.283  0.027 -0.084 -0.094 -0.094
 0.612  1.430  0.284  0.027 -0.084 -0.094 -0.094
 0.614  1.430  0.284  0.028 -0.083 -0.093 -0.093
 0.616  1.429  0.284  0.028 -0.082 -0.092 -0.092
 0.618  1.429  0.284  0.029 -0.082 -0.091 -0.091
 0.620  1.428  0.284  0.029 -0.081 -0.091 -0.091
 0.622  1.427  0.284  0.029 -0.081 -0.090 -0.090
 0.624  1.427  0.284  0.029 -0.080 -0.090 -0.090
 0.626  1.426  0.285  0.030 -0.079 -0.089 -0.089
 0.628  1.426  0.285  0.030 -0.079 -0.088 -0.088
 0.630  1.425  0.285  0.030 -0.078 -0.087 -0.087
 0.632  1.425  0.285  0.031 -0.077 -0.087 -0.087
 0.634  1.424  0.285  0.031 -0.077 -0.086 -0.086
 0.636  1.424  0.285  0.031 -0.076 -0.086 -0.086
 0.638  1.423  0.285  0.032 -0.075 -0.085 -0.085
 0.640  1.423  0.285  0.032 -0.075 -0.084 -0.084
 0.642  1.422  0.285  0.032 -0.074 -0.084 -0.084
 0.644  1.422  0.285  0.033 -0.073 -0.083 -0.083
 0.646  1.422  0.285  0.033 -0.073 -0.083 -0.083
 0.648  1.421  0.285  0.033 -0.072 -0.082 -0.082
 0.650  1.421  0.285  0.033 -0.072 -0.081 -0.081
 0.652  1.421  0.285  0.033 -0.071 -0.080 -0.080
 0.654  1.420  0.285  0.033 -0.070 -0.080 -0.080
 0.656  1.420  0.285  0.033 -0.070 -0.080 -0.080
 0.658  1.420  0.285  0.033 -0.070 -0.079 -0.079
 0.660  1.419  0.285  0.033 -0.069 -0.079 -0.079
 0.662  1.419  0.284  0.033 -0.068 -0.078 -0.078
 0.664  1.419  0.284  0.033 -0.068 -0.077 -0.077
 0.666  1.419  0.284  0.033 -0.068 -0.077 -0.077
 0.668  1.419  0.284  0.033 -0.067 -0.076 -0.076
 0.670  1.418  0.284  0.033 -0.066 -0.076 -0.076
 0.672  1.418  0.283  0.033 -0.066 -0.075 -0.075
 0.674  1.418  0.283  0.033 -0.066 -0.075 -0.075
 0.676  1.418  0.283  0.033 -0.066 -0.075 -0.075
 0.678  1.418  0.282  0.032 -0.065 -0.074 -0.074
 0.680  1.418  0.282  0.032 -0.065 -0.073 -0.073
 0.682  1.418  0.281  0.032 -0.064 -0.073 -0.073
 0.684  1.418  0.281  0.032 -0.064 -0.073 -0.073
 0.686  1.418  0.281  0.031 -0.064 -0.072 -0.072
 0.688  1.418  0.280  0.031 -0.064 -0.072 -0.072
 0.690  1.418  0.280  0.031 -0.064 -0.072 -0.072
 0.692  1.418  0.279  0.030 -0.064 -0.072 -0.072
 0.694  1.418  0.279  0.030 -0.064 -0.071 -0.071
 0.696  1.418  0.278  0.029 -0.063 -0.071 -0.071
 0.698  1.418  0.277  0.029 -0.063 -0.070 -0.070
 0.700  1.418  0.277  0.029 -0.063 -0.070 -0.070
 0.702  1.418  0.276  0.029 -0.063 -0.070 -0.070
 0.704  1.418  0.275  0.028 -0.063 -0.070 -0.070
 0.706  1.418  0.275  0.028 -0.063 -0.069 -0.069
 0.708  1.418  0.273  0.027 -0.063 -0.069 -0.069
 0.710  1.419  0.272  0.026 -0.063 -0.069 -0.069
 0.712  1.419  0.271  0.026 -0.064 -0.069 -0.069
 0.714  1.419  0.270  0.025 -0.064 -0.068 -0.068
 0.716  1.419  0.270  0.025 -0.064 -0.068 -0.068
 0.718  1.419  0.269  0.025 -0.064 -0.068 -0.068
 0.720  1.419  0.268  0.025 -0.064 -0.068 -0.068
 0.722  1.419  0.267  0.025 -0.064 -0.067 -0.067
 0.724  1.420  0.266  0.024 -0.064 -0.067 -0.067
 0.726  1.420  0.265  0.024 -0.064 -0.066 -0.066
 0.728  1.420  0.264  0.025 -0.064 -0.066 -0.066
 0.730  1.420  0.264  0.025 -0.064 -0.065 -0.065
 0.732  1.421  0.262  0.025 -0.063 -0.065 -0.065
 0.734  1.421  0.261  0.025 -0.063 -0.063 -0.063
 0.736  1.421  0.261  0.026 -0.062 -0.063 -0.063
 0.738  1.422  0.261  0.026 -0.061 -0.062 -0.062
 0.740  1.422  0.260  0.028 -0.061 -0.061 -0.061
 0.742  1.422  0.260  0.029 -0.060 -0.060 -0.060
 0.744  1.423  0.260  0.029 -0.059 -0.059 -0.059
 0.746  1.423  0.260  0.031 -0.058 -0.057 -0.057
 0.748  1.423  0.260  0.032 -0.057 -0.056 -0.056
 0.750  1.424  0.260  0.033 -0.055 -0.055 -0.055
 0.752  1.424  0.261  0.035 -0.054 -0.053 -0.053
 0.754  1.424  0.261  0.037 -0.053 -0.052 -0.052
 0.756  1.424  0.261  0.038 -0.052 -0.050 -0.050
 0.758  1.425  0.262  0.040 -0.050 -0.048 -0.048
 0.760  1.425  0.262  0.041 -0.048 -0.047 -0.047
 0.762  1.426  0.264  0.044 -0.047 -0.045 -0.045
 0.764  1.426  0.265  0.045 -0.045 -0.043 -0.043
 0.766  1.427  0.266  0.048 -0.043 -0.041 -0.041
 0.768  1.427  0.267  0.050 -0.041 -0.039 -0.039
 0.770  1.428  0.268  0.053 -0.039 -0.037 -0.037
 0.772  1.429  0.269  0.055 -0.037 -0.035 -0.035
 0.774  1.430  0.271  0.058 -0.034 -0.033 -0.033
 0.776  1.431  0.272  0.062 -0.032 -0.030 -0.030
 0.778  1.433  0.275  0.064 -0.029 -0.028 -0.028
 0.780  1.434  0.276  0.067 -0.027 -0.025 -0.025
 0.782  1.436  0.278  0.070 -0.024 -0.023 -0.023
 0.784  1.437  0.280  0.074 -0.021 -0.020 -0.020
 0.786  1.439  0.282  0.077 -0.018 -0.017 -0.017
 0.788  1.441  0.283  0.080 -0.016 -0.014 -0.014
 0.790  1.444  0.285  0.083 -0.012 -0.012 -0.012
 0.792  1.446  0.288  0.086 -0.010 -0.010 -0.010
 0.794  1.448  0.290  0.090 -0.007 -0.007 -0.007
 0.796  1.451  0.293  0.093 -0.004 -0.005 -0.005
 0.798  1.453  0.295  0.096 -0.002 -0.002 -0.002
 0.800  1.456  0.297  0.099  0.002  0.001  0.001
 0.802  1.459  0.300  0.102  0.004  0.003  0.003
 0.804  1.461  0.302  0.105  0.007  0.005  0.005
 0.806  1.464  0.304  0.108  0.009  0.008  0.008
 0.808  1.468  0.306  0.110  0.012  0.009  0.009
