# IsPeriodic    : True
# Period        : 0.682794 days
# Normalization : <g_mag>=0
# 
# Phase u_mag  g_mag  r_mag  i_mag  z_mag  y_mag
 0.000  1.003 -0.143 -0.298 -0.348 -0.332 -0.332
 0.002  1.003 -0.143 -0.298 -0.348 -0.332 -0.332
 0.004  1.003 -0.143 -0.298 -0.348 -0.332 -0.332
 0.006  1.003 -0.143 -0.298 -0.348 -0.332 -0.332
 0.008  1.003 -0.143 -0.298 -0.348 -0.332 -0.332
 0.010  1.004 -0.142 -0.298 -0.348 -0.332 -0.332
 0.012  1.004 -0.142 -0.298 -0.348 -0.332 -0.332
 0.014  1.005 -0.142 -0.298 -0.347 -0.331 -0.331
 0.016  1.006 -0.142 -0.298 -0.347 -0.331 -0.331
 0.018  1.006 -0.141 -0.298 -0.347 -0.331 -0.331
 0.020  1.007 -0.141 -0.297 -0.346 -0.330 -0.330
 0.022  1.008 -0.141 -0.297 -0.346 -0.330 -0.330
 0.024  1.009 -0.140 -0.297 -0.346 -0.330 -0.330
 0.026  1.010 -0.140 -0.297 -0.345 -0.329 -0.329
 0.028  1.010 -0.139 -0.296 -0.345 -0.329 -0.329
 0.030  1.011 -0.139 -0.296 -0.345 -0.329 -0.329
 0.032  1.012 -0.138 -0.295 -0.344 -0.328 -0.328
 0.034  1.013 -0.138 -0.295 -0.344 -0.328 -0.328
 0.036  1.014 -0.137 -0.295 -0.344 -0.328 -0.328
 0.038  1.015 -0.136 -0.294 -0.343 -0.327 -0.327
 0.040  1.016 -0.136 -0.294 -0.343 -0.327 -0.327
 0.042  1.017 -0.135 -0.293 -0.343 -0.326 -0.326
 0.044  1.018 -0.134 -0.293 -0.342 -0.326 -0.326
 0.046  1.019 -0.134 -0.292 -0.342 -0.326 -0.326
 0.048  1.020 -0.133 -0.292 -0.342 -0.325 -0.325
 0.050  1.021 -0.132 -0.291 -0.341 -0.325 -0.325
 0.052  1.022 -0.131 -0.291 -0.341 -0.325 -0.325
 0.054  1.024 -0.131 -0.290 -0.341 -0.324 -0.324
 0.056  1.025 -0.130 -0.289 -0.340 -0.324 -0.324
 0.058  1.026 -0.129 -0.289 -0.340 -0.324 -0.324
 0.060  1.027 -0.128 -0.288 -0.339 -0.323 -0.323
 0.062  1.028 -0.127 -0.287 -0.339 -0.323 -0.323
 0.064  1.029 -0.126 -0.287 -0.339 -0.323 -0.323
 0.066  1.031 -0.125 -0.286 -0.338 -0.322 -0.322
 0.068  1.032 -0.124 -0.285 -0.338 -0.322 -0.322
 0.070  1.033 -0.123 -0.284 -0.338 -0.321 -0.321
 0.072  1.034 -0.121 -0.283 -0.337 -0.321 -0.321
 0.074  1.036 -0.120 -0.282 -0.337 -0.321 -0.321
 0.076  1.037 -0.119 -0.282 -0.336 -0.321 -0.321
 0.078  1.038 -0.118 -0.281 -0.336 -0.320 -0.320
 0.080  1.040 -0.117 -0.280 -0.336 -0.320 -0.320
 0.082  1.041 -0.116 -0.279 -0.335 -0.320 -0.320
 0.084  1.042 -0.115 -0.278 -0.335 -0.319 -0.319
 0.086  1.044 -0.114 -0.277 -0.335 -0.319 -0.319
 0.088  1.045 -0.112 -0.277 -0.334 -0.319 -0.319
 0.090  1.047 -0.111 -0.276 -0.334 -0.318 -0.318
 0.092  1.048 -0.110 -0.275 -0.333 -0.318 -0.318
 0.094  1.050 -0.109 -0.274 -0.333 -0.318 -0.318
 0.096  1.051 -0.108 -0.273 -0.333 -0.317 -0.317
 0.098  1.052 -0.107 -0.273 -0.332 -0.317 -0.317
 0.100  1.054 -0.106 -0.272 -0.332 -0.317 -0.317
 0.102  1.055 -0.105 -0.271 -0.331 -0.316 -0.316
 0.104  1.056 -0.103 -0.271 -0.331 -0.316 -0.316
 0.106  1.058 -0.102 -0.270 -0.331 -0.316 -0.316
 0.108  1.059 -0.101 -0.269 -0.330 -0.315 -0.315
 0.110  1.060 -0.100 -0.269 -0.330 -0.315 -0.315
 0.112  1.062 -0.099 -0.268 -0.329 -0.315 -0.315
 0.114  1.063 -0.098 -0.267 -0.329 -0.315 -0.315
 0.116  1.064 -0.097 -0.266 -0.328 -0.314 -0.314
 0.118  1.065 -0.096 -0.266 -0.328 -0.314 -0.314
 0.120  1.067 -0.095 -0.265 -0.327 -0.314 -0.314
 0.122  1.068 -0.094 -0.265 -0.327 -0.313 -0.313
 0.124  1.069 -0.093 -0.264 -0.326 -0.313 -0.313
 0.126  1.070 -0.092 -0.263 -0.326 -0.313 -0.313
 0.128  1.072 -0.091 -0.263 -0.325 -0.313 -0.313
 0.130  1.073 -0.090 -0.262 -0.325 -0.312 -0.312
 0.132  1.074 -0.089 -0.262 -0.324 -0.312 -0.312
 0.134  1.075 -0.088 -0.261 -0.324 -0.312 -0.312
 0.136  1.076 -0.087 -0.261 -0.323 -0.311 -0.311
 0.138  1.077 -0.086 -0.260 -0.323 -0.311 -0.311
 0.140  1.078 -0.085 -0.260 -0.322 -0.311 -0.311
 0.142  1.079 -0.084 -0.259 -0.322 -0.310 -0.310
 0.144  1.081 -0.083 -0.259 -0.321 -0.310 -0.310
 0.146  1.082 -0.082 -0.258 -0.321 -0.310 -0.310
 0.148  1.083 -0.081 -0.258 -0.320 -0.310 -0.310
 0.150  1.084 -0.080 -0.257 -0.319 -0.309 -0.309
 0.152  1.085 -0.079 -0.257 -0.319 -0.309 -0.309
 0.154  1.086 -0.078 -0.256 -0.318 -0.309 -0.309
 0.156  1.087 -0.077 -0.256 -0.318 -0.309 -0.309
 0.158  1.088 -0.076 -0.255 -0.317 -0.308 -0.308
 0.160  1.089 -0.075 -0.255 -0.317 -0.308 -0.308
 0.162  1.090 -0.074 -0.254 -0.316 -0.308 -0.308
 0.164  1.091 -0.073 -0.254 -0.315 -0.307 -0.307
 0.166  1.092 -0.072 -0.253 -0.315 -0.307 -0.307
 0.168  1.093 -0.071 -0.253 -0.314 -0.307 -0.307
 0.170  1.094 -0.070 -0.252 -0.314 -0.307 -0.307
 0.172  1.095 -0.069 -0.252 -0.313 -0.306 -0.306
 0.174  1.096 -0.068 -0.251 -0.313 -0.306 -0.306
 0.176  1.097 -0.067 -0.250 -0.312 -0.306 -0.306
 0.178  1.098 -0.066 -0.250 -0.312 -0.306 -0.306
 0.180  1.099 -0.065 -0.249 -0.311 -0.305 -0.305
 0.182  1.100 -0.064 -0.249 -0.310 -0.305 -0.305
 0.184  1.101 -0.063 -0.248 -0.310 -0.305 -0.305
 0.186  1.102 -0.062 -0.247 -0.309 -0.305 -0.305
 0.188  1.103 -0.061 -0.247 -0.309 -0.304 -0.304
 0.190  1.104 -0.060 -0.246 -0.308 -0.304 -0.304
 0.192  1.105 -0.059 -0.245 -0.308 -0.304 -0.304
 0.194  1.106 -0.058 -0.245 -0.307 -0.304 -0.304
 0.196  1.107 -0.057 -0.244 -0.307 -0.303 -0.303
 0.198  1.109 -0.056 -0.243 -0.307 -0.303 -0.303
 0.200  1.110 -0.054 -0.243 -0.306 -0.303 -0.303
 0.202  1.111 -0.053 -0.242 -0.306 -0.302 -0.302
 0.204  1.112 -0.052 -0.241 -0.305 -0.302 -0.302
 0.206  1.113 -0.051 -0.241 -0.305 -0.302 -0.302
 0.208  1.114 -0.050 -0.240 -0.304 -0.302 -0.302
 0.210  1.115 -0.049 -0.239 -0.304 -0.301 -0.301
 0.212  1.116 -0.048 -0.238 -0.304 -0.301 -0.301
 0.214  1.118 -0.047 -0.238 -0.303 -0.301 -0.301
 0.216  1.119 -0.046 -0.237 -0.303 -0.301 -0.301
 0.218  1.120 -0.045 -0.236 -0.302 -0.300 -0.300
 0.220  1.121 -0.043 -0.235 -0.302 -0.300 -0.300
 0.222  1.122 -0.042 -0.235 -0.302 -0.300 -0.300
 0.224  1.124 -0.041 -0.234 -0.301 -0.300 -0.300
 0.226  1.125 -0.040 -0.233 -0.301 -0.299 -0.299
 0.228  1.126 -0.039 -0.232 -0.301 -0.299 -0.299
 0.230  1.127 -0.038 -0.231 -0.300 -0.299 -0.299
 0.232  1.128 -0.037 -0.231 -0.300 -0.299 -0.299
 0.234  1.129 -0.035 -0.230 -0.299 -0.298 -0.298
 0.236  1.131 -0.035 -0.229 -0.299 -0.298 -0.298
 0.238  1.132 -0.033 -0.228 -0.299 -0.298 -0.298
 0.240  1.133 -0.032 -0.227 -0.298 -0.298 -0.298
 0.242  1.134 -0.031 -0.227 -0.298 -0.297 -0.297
 0.244  1.135 -0.030 -0.226 -0.298 -0.297 -0.297
 0.246  1.136 -0.029 -0.225 -0.297 -0.297 -0.297
 0.248  1.137 -0.028 -0.224 -0.297 -0.297 -0.297
 0.250  1.139 -0.027 -0.224 -0.297 -0.296 -0.296
 0.252  1.140 -0.026 -0.223 -0.296 -0.296 -0.296
 0.254  1.141 -0.024 -0.222 -0.296 -0.296 -0.296
 0.256  1.142 -0.023 -0.221 -0.295 -0.296 -0.296
 0.258  1.143 -0.022 -0.220 -0.295 -0.295 -0.295
 0.260  1.144 -0.021 -0.220 -0.294 -0.295 -0.295
 0.262  1.145 -0.020 -0.219 -0.294 -0.295 -0.295
 0.264  1.146 -0.019 -0.218 -0.294 -0.294 -0.294
 0.266  1.147 -0.018 -0.217 -0.293 -0.294 -0.294
 0.268  1.148 -0.017 -0.217 -0.293 -0.294 -0.294
 0.270  1.149 -0.016 -0.216 -0.292 -0.293 -0.293
 0.272  1.150 -0.015 -0.215 -0.292 -0.293 -0.293
 0.274  1.151 -0.014 -0.214 -0.291 -0.293 -0.293
 0.276  1.152 -0.012 -0.213 -0.291 -0.293 -0.293
 0.278  1.153 -0.011 -0.213 -0.290 -0.292 -0.292
 0.280  1.154 -0.010 -0.212 -0.290 -0.292 -0.292
 0.282  1.155 -0.009 -0.211 -0.289 -0.292 -0.292
 0.284  1.155 -0.008 -0.210 -0.289 -0.291 -0.291
 0.286  1.156 -0.007 -0.210 -0.289 -0.291 -0.291
 0.288  1.157 -0.006 -0.209 -0.288 -0.291 -0.291
 0.290  1.158 -0.005 -0.208 -0.288 -0.290 -0.290
 0.292  1.159 -0.004 -0.207 -0.287 -0.290 -0.290
 0.294  1.160 -0.003 -0.207 -0.286 -0.290 -0.290
 0.296  1.160 -0.002 -0.206 -0.286 -0.289 -0.289
 0.298  1.161 -0.001 -0.205 -0.285 -0.289 -0.289
 0.300  1.162  0.000 -0.204 -0.285 -0.289 -0.289
 0.302  1.163  0.001 -0.204 -0.284 -0.288 -0.288
 0.304  1.164  0.002 -0.203 -0.284 -0.288 -0.288
 0.306  1.164  0.003 -0.202 -0.283 -0.287 -0.287
 0.308  1.165  0.004 -0.201 -0.283 -0.287 -0.287
 0.310  1.166  0.005 -0.201 -0.282 -0.287 -0.287
 0.312  1.167  0.006 -0.200 -0.281 -0.286 -0.286
 0.314  1.168  0.007 -0.199 -0.281 -0.286 -0.286
 0.316  1.168  0.008 -0.199 -0.280 -0.286 -0.286
 0.318  1.169  0.009 -0.198 -0.280 -0.285 -0.285
 0.320  1.170  0.010 -0.197 -0.279 -0.285 -0.285
 0.322  1.171  0.011 -0.197 -0.279 -0.285 -0.285
 0.324  1.171  0.012 -0.196 -0.278 -0.284 -0.284
 0.326  1.172  0.013 -0.195 -0.278 -0.284 -0.284
 0.328  1.173  0.013 -0.195 -0.277 -0.284 -0.284
 0.330  1.174  0.014 -0.194 -0.277 -0.283 -0.283
 0.332  1.175  0.015 -0.194 -0.276 -0.283 -0.283
 0.334  1.176  0.016 -0.193 -0.276 -0.283 -0.283
 0.336  1.176  0.017 -0.192 -0.275 -0.282 -0.282
 0.338  1.177  0.017 -0.192 -0.274 -0.282 -0.282
 0.340  1.178  0.018 -0.191 -0.274 -0.282 -0.282
 0.342  1.179  0.019 -0.191 -0.273 -0.281 -0.281
 0.344  1.179  0.020 -0.190 -0.273 -0.281 -0.281
 0.346  1.180  0.020 -0.190 -0.272 -0.281 -0.281
 0.348  1.181  0.021 -0.189 -0.272 -0.280 -0.280
 0.350  1.182  0.022 -0.189 -0.271 -0.280 -0.280
 0.352  1.183  0.023 -0.188 -0.271 -0.280 -0.280
 0.354  1.183  0.023 -0.187 -0.270 -0.279 -0.279
 0.356  1.184  0.024 -0.187 -0.270 -0.279 -0.279
 0.358  1.185  0.025 -0.187 -0.269 -0.279 -0.279
 0.360  1.186  0.025 -0.186 -0.269 -0.279 -0.279
 0.362  1.186  0.026 -0.186 -0.268 -0.278 -0.278
 0.364  1.187  0.027 -0.185 -0.268 -0.278 -0.278
 0.366  1.188  0.027 -0.185 -0.267 -0.278 -0.278
 0.368  1.189  0.028 -0.184 -0.267 -0.277 -0.277
 0.370  1.190  0.029 -0.184 -0.266 -0.277 -0.277
 0.372  1.190  0.029 -0.183 -0.266 -0.277 -0.277
 0.374  1.191  0.030 -0.183 -0.265 -0.277 -0.277
 0.376  1.192  0.030 -0.182 -0.265 -0.276 -0.276
 0.378  1.193  0.031 -0.182 -0.265 -0.276 -0.276
 0.380  1.193  0.032 -0.181 -0.264 -0.276 -0.276
 0.382  1.194  0.032 -0.181 -0.264 -0.276 -0.276
 0.384  1.195  0.033 -0.181 -0.263 -0.275 -0.275
 0.386  1.196  0.034 -0.180 -0.263 -0.275 -0.275
 0.388  1.197  0.035 -0.180 -0.262 -0.275 -0.275
 0.390  1.197  0.035 -0.179 -0.262 -0.274 -0.274
 0.392  1.198  0.036 -0.179 -0.261 -0.274 -0.274
 0.394  1.199  0.037 -0.178 -0.261 -0.274 -0.274
 0.396  1.200  0.037 -0.178 -0.260 -0.273 -0.273
 0.398  1.200  0.038 -0.178 -0.260 -0.273 -0.273
 0.400  1.201  0.039 -0.177 -0.260 -0.273 -0.273
 0.402  1.202  0.040 -0.177 -0.259 -0.273 -0.273
 0.404  1.203  0.040 -0.176 -0.259 -0.272 -0.272
 0.406  1.203  0.041 -0.176 -0.258 -0.272 -0.272
 0.408  1.204  0.042 -0.175 -0.258 -0.272 -0.272
 0.410  1.205  0.043 -0.175 -0.257 -0.271 -0.271
 0.412  1.205  0.043 -0.174 -0.257 -0.271 -0.271
 0.414  1.206  0.044 -0.174 -0.257 -0.271 -0.271
 0.416  1.207  0.045 -0.173 -0.256 -0.270 -0.270
 0.418  1.208  0.046 -0.173 -0.256 -0.270 -0.270
 0.420  1.208  0.046 -0.172 -0.255 -0.270 -0.270
 0.422  1.209  0.047 -0.172 -0.255 -0.269 -0.269
 0.424  1.210  0.048 -0.171 -0.254 -0.269 -0.269
 0.426  1.210  0.049 -0.171 -0.254 -0.269 -0.269
 0.428  1.211  0.050 -0.171 -0.254 -0.268 -0.268
 0.430  1.212  0.050 -0.170 -0.253 -0.268 -0.268
 0.432  1.212  0.051 -0.170 -0.253 -0.268 -0.268
 0.434  1.213  0.052 -0.169 -0.252 -0.267 -0.267
 0.436  1.214  0.053 -0.169 -0.252 -0.267 -0.267
 0.438  1.214  0.054 -0.168 -0.251 -0.266 -0.266
 0.440  1.215  0.054 -0.168 -0.251 -0.266 -0.266
 0.442  1.216  0.055 -0.168 -0.251 -0.266 -0.266
 0.444  1.216  0.056 -0.167 -0.250 -0.265 -0.265
 0.446  1.217  0.057 -0.167 -0.250 -0.265 -0.265
 0.448  1.217  0.057 -0.166 -0.249 -0.265 -0.265
 0.450  1.218  0.058 -0.166 -0.249 -0.264 -0.264
 0.452  1.219  0.059 -0.165 -0.249 -0.264 -0.264
 0.454  1.219  0.060 -0.165 -0.248 -0.263 -0.263
 0.456  1.220  0.060 -0.164 -0.248 -0.263 -0.263
 0.458  1.220  0.061 -0.164 -0.247 -0.263 -0.263
 0.460  1.221  0.061 -0.164 -0.247 -0.262 -0.262
 0.462  1.221  0.062 -0.163 -0.247 -0.262 -0.262
 0.464  1.222  0.063 -0.163 -0.246 -0.262 -0.262
 0.466  1.222  0.063 -0.162 -0.246 -0.261 -0.261
 0.468  1.223  0.064 -0.162 -0.246 -0.261 -0.261
 0.470  1.223  0.064 -0.162 -0.245 -0.261 -0.261
 0.472  1.224  0.065 -0.161 -0.245 -0.260 -0.260
 0.474  1.225  0.066 -0.161 -0.244 -0.260 -0.260
 0.476  1.225  0.066 -0.160 -0.244 -0.260 -0.260
 0.478  1.226  0.067 -0.160 -0.244 -0.259 -0.259
 0.480  1.226  0.067 -0.160 -0.243 -0.259 -0.259
 0.482  1.226  0.068 -0.159 -0.243 -0.259 -0.259
 0.484  1.227  0.068 -0.159 -0.242 -0.258 -0.258
 0.486  1.227  0.069 -0.158 -0.242 -0.258 -0.258
 0.488  1.228  0.069 -0.158 -0.242 -0.258 -0.258
 0.490  1.228  0.070 -0.158 -0.241 -0.258 -0.258
 0.492  1.228  0.070 -0.157 -0.241 -0.257 -0.257
 0.494  1.229  0.071 -0.157 -0.240 -0.257 -0.257
 0.496  1.229  0.071 -0.157 -0.240 -0.257 -0.257
 0.498  1.229  0.072 -0.156 -0.240 -0.257 -0.257
 0.500  1.230  0.072 -0.156 -0.239 -0.256 -0.256
 0.502  1.230  0.072 -0.155 -0.239 -0.256 -0.256
 0.504  1.230  0.073 -0.155 -0.239 -0.256 -0.256
 0.506  1.231  0.073 -0.155 -0.238 -0.256 -0.256
 0.508  1.231  0.074 -0.155 -0.238 -0.255 -0.255
 0.510  1.231  0.074 -0.154 -0.237 -0.255 -0.255
 0.512  1.231  0.074 -0.154 -0.237 -0.255 -0.255
 0.514  1.232  0.075 -0.153 -0.237 -0.255 -0.255
 0.516  1.232  0.075 -0.153 -0.236 -0.255 -0.255
 0.518  1.232  0.075 -0.153 -0.236 -0.254 -0.254
 0.520  1.232  0.076 -0.152 -0.236 -0.254 -0.254
 0.522  1.233  0.076 -0.152 -0.235 -0.254 -0.254
 0.524  1.233  0.076 -0.152 -0.235 -0.254 -0.254
 0.526  1.233  0.077 -0.151 -0.234 -0.254 -0.254
 0.528  1.233  0.077 -0.151 -0.234 -0.254 -0.254
 0.530  1.233  0.077 -0.151 -0.234 -0.253 -0.253
 0.532  1.234  0.078 -0.151 -0.233 -0.253 -0.253
 0.534  1.234  0.078 -0.150 -0.233 -0.253 -0.253
 0.536  1.234  0.078 -0.150 -0.233 -0.253 -0.253
 0.538  1.234  0.079 -0.150 -0.232 -0.253 -0.253
 0.540  1.235  0.079 -0.149 -0.232 -0.253 -0.253
 0.542  1.235  0.079 -0.149 -0.232 -0.252 -0.252
 0.544  1.235  0.080 -0.149 -0.231 -0.252 -0.252
 0.546  1.235  0.080 -0.148 -0.231 -0.252 -0.252
 0.548  1.235  0.080 -0.148 -0.231 -0.252 -0.252
 0.550  1.236  0.081 -0.148 -0.231 -0.252 -0.252
 0.552  1.236  0.081 -0.148 -0.230 -0.251 -0.251
 0.554  1.236  0.081 -0.148 -0.230 -0.251 -0.251
 0.556  1.236  0.081 -0.147 -0.230 -0.251 -0.251
 0.558  1.236  0.082 -0.147 -0.229 -0.251 -0.251
 0.560  1.236  0.082 -0.147 -0.229 -0.251 -0.251
 0.562  1.237  0.082 -0.146 -0.229 -0.251 -0.251
 0.564  1.237  0.083 -0.146 -0.228 -0.250 -0.250
 0.566  1.237  0.083 -0.146 -0.228 -0.250 -0.250
 0.568  1.237  0.083 -0.146 -0.228 -0.250 -0.250
 0.570  1.237  0.083 -0.145 -0.227 -0.250 -0.250
 0.572  1.238  0.084 -0.145 -0.227 -0.250 -0.250
 0.574  1.238  0.084 -0.145 -0.227 -0.250 -0.250
 0.576  1.238  0.084 -0.145 -0.227 -0.249 -0.249
 0.578  1.238  0.084 -0.145 -0.226 -0.249 -0.249
 0.580  1.238  0.085 -0.144 -0.226 -0.249 -0.249
 0.582  1.238  0.085 -0.144 -0.226 -0.249 -0.249
 0.584  1.239  0.085 -0.144 -0.226 -0.249 -0.249
 0.586  1.239  0.085 -0.144 -0.225 -0.248 -0.248
 0.588  1.239  0.086 -0.143 -0.225 -0.248 -0.248
 0.590  1.239  0.086 -0.143 -0.225 -0.248 -0.248
 0.592  1.239  0.086 -0.143 -0.225 -0.248 -0.248
 0.594  1.239  0.086 -0.143 -0.224 -0.248 -0.248
 0.596  1.240  0.086 -0.142 -0.224 -0.248 -0.248
 0.598  1.240  0.087 -0.142 -0.224 -0.247 -0.247
 0.600  1.240  0.087 -0.142 -0.224 -0.247 -0.247
 0.602  1.240  0.087 -0.142 -0.223 -0.247 -0.247
 0.604  1.240  0.087 -0.141 -0.223 -0.247 -0.247
 0.606  1.240  0.087 -0.141 -0.223 -0.247 -0.247
 0.608  1.240  0.087 -0.141 -0.223 -0.246 -0.246
 0.610  1.241  0.088 -0.141 -0.222 -0.246 -0.246
 0.612  1.241  0.088 -0.140 -0.222 -0.246 -0.246
 0.614  1.241  0.088 -0.140 -0.222 -0.246 -0.246
 0.616  1.241  0.088 -0.140 -0.222 -0.245 -0.245
 0.618  1.241  0.088 -0.139 -0.222 -0.245 -0.245
 0.620  1.241  0.088 -0.139 -0.221 -0.245 -0.245
 0.622  1.241  0.088 -0.139 -0.221 -0.245 -0.245
 0.624  1.241  0.088 -0.138 -0.221 -0.245 -0.245
 0.626  1.241  0.088 -0.138 -0.221 -0.244 -0.244
 0.628  1.241  0.089 -0.138 -0.220 -0.244 -0.244
 0.630  1.242  0.089 -0.138 -0.220 -0.244 -0.244
 0.632  1.242  0.089 -0.137 -0.220 -0.244 -0.244
 0.634  1.242  0.089 -0.137 -0.220 -0.243 -0.243
 0.636  1.242  0.089 -0.137 -0.220 -0.243 -0.243
 0.638  1.242  0.089 -0.136 -0.219 -0.243 -0.243
 0.640  1.242  0.089 -0.136 -0.219 -0.243 -0.243
 0.642  1.242  0.089 -0.136 -0.219 -0.242 -0.242
 0.644  1.242  0.089 -0.135 -0.219 -0.242 -0.242
 0.646  1.242  0.089 -0.135 -0.219 -0.242 -0.242
 0.648  1.242  0.089 -0.135 -0.219 -0.242 -0.242
 0.650  1.242  0.089 -0.134 -0.218 -0.241 -0.241
 0.652  1.242  0.089 -0.134 -0.218 -0.241 -0.241
 0.654  1.242  0.089 -0.133 -0.218 -0.241 -0.241
 0.656  1.242  0.089 -0.133 -0.218 -0.240 -0.240
 0.658  1.242  0.089 -0.133 -0.218 -0.240 -0.240
 0.660  1.242  0.089 -0.132 -0.218 -0.240 -0.240
 0.662  1.242  0.089 -0.132 -0.217 -0.240 -0.240
 0.664  1.242  0.089 -0.131 -0.217 -0.239 -0.239
 0.666  1.242  0.090 -0.131 -0.217 -0.239 -0.239
 0.668  1.242  0.090 -0.130 -0.217 -0.239 -0.239
 0.670  1.242  0.090 -0.130 -0.217 -0.238 -0.238
 0.672  1.242  0.090 -0.129 -0.216 -0.238 -0.238
 0.674  1.243  0.090 -0.129 -0.216 -0.238 -0.238
 0.676  1.243  0.091 -0.128 -0.216 -0.237 -0.237
 0.678  1.243  0.091 -0.128 -0.216 -0.237 -0.237
 0.680  1.243  0.091 -0.127 -0.216 -0.236 -0.236
 0.682  1.243  0.091 -0.127 -0.215 -0.236 -0.236
 0.684  1.243  0.092 -0.126 -0.215 -0.236 -0.236
 0.686  1.243  0.092 -0.125 -0.215 -0.235 -0.235
 0.688  1.243  0.092 -0.125 -0.215 -0.235 -0.235
 0.690  1.244  0.093 -0.124 -0.214 -0.234 -0.234
 0.692  1.244  0.093 -0.123 -0.214 -0.234 -0.234
 0.694  1.244  0.093 -0.123 -0.214 -0.234 -0.234
 0.696  1.244  0.094 -0.122 -0.214 -0.233 -0.233
 0.698  1.244  0.094 -0.122 -0.213 -0.233 -0.233
 0.700  1.245  0.095 -0.121 -0.213 -0.232 -0.232
 0.702  1.245  0.095 -0.120 -0.213 -0.232 -0.232
 0.704  1.245  0.096 -0.119 -0.212 -0.231 -0.231
 0.706  1.245  0.096 -0.119 -0.212 -0.231 -0.231
 0.708  1.245  0.097 -0.118 -0.212 -0.230 -0.230
 0.710  1.246  0.097 -0.117 -0.211 -0.230 -0.230
 0.712  1.246  0.098 -0.116 -0.211 -0.229 -0.229
 0.714  1.246  0.098 -0.115 -0.211 -0.228 -0.228
 0.716  1.247  0.099 -0.115 -0.210 -0.228 -0.228
 0.718  1.247  0.100 -0.114 -0.210 -0.227 -0.227
 0.720  1.247  0.100 -0.113 -0.210 -0.227 -0.227
 0.722  1.248  0.101 -0.112 -0.209 -0.226 -0.226
 0.724  1.248  0.101 -0.112 -0.209 -0.225 -0.225
 0.726  1.248  0.102 -0.111 -0.209 -0.225 -0.225
 0.728  1.249  0.102 -0.111 -0.208 -0.224 -0.224
 0.730  1.249  0.102 -0.110 -0.208 -0.223 -0.223
 0.732  1.249  0.103 -0.110 -0.208 -0.223 -0.223
 0.734  1.250  0.103 -0.110 -0.207 -0.222 -0.222
 0.736  1.250  0.103 -0.110 -0.207 -0.222 -0.222
 0.738  1.250  0.103 -0.110 -0.207 -0.221 -0.221
 0.740  1.251  0.103 -0.110 -0.207 -0.220 -0.220
 0.742  1.251  0.103 -0.111 -0.206 -0.220 -0.220
 0.744  1.251  0.103 -0.111 -0.206 -0.219 -0.219
 0.746  1.252  0.103 -0.112 -0.206 -0.218 -0.218
 0.748  1.252  0.103 -0.112 -0.206 -0.218 -0.218
 0.750  1.252  0.102 -0.113 -0.206 -0.217 -0.217
 0.752  1.252  0.102 -0.114 -0.206 -0.217 -0.217
 0.754  1.253  0.102 -0.115 -0.206 -0.216 -0.216
 0.756  1.253  0.101 -0.115 -0.207 -0.216 -0.216
 0.758  1.253  0.101 -0.117 -0.207 -0.215 -0.215
 0.760  1.253  0.100 -0.118 -0.207 -0.215 -0.215
 0.762  1.254  0.100 -0.119 -0.207 -0.215 -0.215
 0.764  1.254  0.099 -0.120 -0.208 -0.214 -0.214
 0.766  1.254  0.099 -0.122 -0.208 -0.214 -0.214
 0.768  1.254  0.098 -0.123 -0.209 -0.214 -0.214
 0.770  1.254  0.097 -0.125 -0.209 -0.214 -0.214
 0.772  1.254  0.096 -0.127 -0.210 -0.213 -0.213
 0.774  1.254  0.096 -0.129 -0.210 -0.213 -0.213
 0.776  1.254  0.095 -0.131 -0.211 -0.213 -0.213
 0.778  1.255  0.094 -0.133 -0.212 -0.213 -0.213
 0.780  1.255  0.093 -0.135 -0.213 -0.213 -0.213
 0.782  1.255  0.092 -0.138 -0.213 -0.213 -0.213
 0.784  1.255  0.091 -0.140 -0.214 -0.213 -0.213
 0.786  1.255  0.089 -0.142 -0.215 -0.213 -0.213
 0.788  1.255  0.088 -0.145 -0.216 -0.213 -0.213
 0.790  1.255  0.087 -0.148 -0.217 -0.213 -0.213
 0.792  1.255  0.085 -0.150 -0.218 -0.213 -0.213
 0.794  1.255  0.084 -0.153 -0.219 -0.213 -0.213
 0.796  1.255  0.082 -0.155 -0.220 -0.213 -0.213
 0.798  1.255  0.081 -0.158 -0.221 -0.213 -0.213
 0.800  1.255  0.079 -0.161 -0.223 -0.213 -0.213
 0.802  1.255  0.077 -0.163 -0.224 -0.213 -0.213
 0.804  1.255  0.076 -0.166 -0.225 -0.213 -0.213
 0.806  1.255  0.074 -0.168 -0.227 -0.214 -0.214
 0.808  1.254  0.072 -0.171 -0.228 -0.214 -0.214
