# IsPeriodic    : True
# Period        : 0.607068 days
# Normalization : <g_mag>=0
# 
# Phase u_mag  g_mag  r_mag  i_mag  z_mag  y_mag
 0.000  0.601 -0.520 -0.573 -0.485 -0.453 -0.453
 0.002  0.601 -0.520 -0.573 -0.485 -0.453 -0.453
 0.004  0.601 -0.519 -0.573 -0.484 -0.453 -0.453
 0.006  0.602 -0.518 -0.572 -0.484 -0.452 -0.452
 0.008  0.603 -0.516 -0.571 -0.483 -0.452 -0.452
 0.010  0.604 -0.514 -0.570 -0.482 -0.452 -0.452
 0.012  0.605 -0.512 -0.568 -0.481 -0.451 -0.451
 0.014  0.607 -0.508 -0.567 -0.480 -0.451 -0.451
 0.016  0.608 -0.505 -0.565 -0.479 -0.450 -0.450
 0.018  0.611 -0.502 -0.562 -0.478 -0.450 -0.450
 0.020  0.613 -0.498 -0.560 -0.477 -0.450 -0.450
 0.022  0.615 -0.494 -0.558 -0.476 -0.449 -0.449
 0.024  0.618 -0.490 -0.556 -0.474 -0.448 -0.448
 0.026  0.621 -0.485 -0.554 -0.473 -0.447 -0.447
 0.028  0.623 -0.481 -0.551 -0.472 -0.447 -0.447
 0.030  0.626 -0.477 -0.549 -0.470 -0.446 -0.446
 0.032  0.629 -0.473 -0.547 -0.469 -0.445 -0.445
 0.034  0.632 -0.469 -0.544 -0.468 -0.444 -0.444
 0.036  0.636 -0.465 -0.542 -0.467 -0.444 -0.444
 0.038  0.639 -0.461 -0.540 -0.465 -0.443 -0.443
 0.040  0.642 -0.456 -0.537 -0.464 -0.442 -0.442
 0.042  0.646 -0.451 -0.535 -0.463 -0.441 -0.441
 0.044  0.651 -0.447 -0.532 -0.461 -0.440 -0.440
 0.046  0.655 -0.443 -0.530 -0.460 -0.439 -0.439
 0.048  0.659 -0.439 -0.527 -0.459 -0.437 -0.437
 0.050  0.663 -0.434 -0.524 -0.458 -0.437 -0.437
 0.052  0.668 -0.430 -0.521 -0.456 -0.435 -0.435
 0.054  0.673 -0.426 -0.519 -0.455 -0.434 -0.434
 0.056  0.678 -0.422 -0.515 -0.453 -0.433 -0.433
 0.058  0.683 -0.417 -0.512 -0.452 -0.431 -0.431
 0.060  0.688 -0.413 -0.509 -0.450 -0.430 -0.430
 0.062  0.694 -0.409 -0.506 -0.448 -0.429 -0.429
 0.064  0.699 -0.405 -0.502 -0.447 -0.427 -0.427
 0.066  0.704 -0.400 -0.499 -0.445 -0.426 -0.426
 0.068  0.711 -0.395 -0.496 -0.443 -0.424 -0.424
 0.070  0.717 -0.391 -0.492 -0.442 -0.423 -0.423
 0.072  0.723 -0.386 -0.489 -0.441 -0.421 -0.421
 0.074  0.729 -0.382 -0.486 -0.439 -0.419 -0.419
 0.076  0.735 -0.377 -0.482 -0.437 -0.418 -0.418
 0.078  0.742 -0.373 -0.479 -0.436 -0.417 -0.417
 0.080  0.747 -0.369 -0.475 -0.434 -0.415 -0.415
 0.082  0.754 -0.364 -0.471 -0.432 -0.413 -0.413
 0.084  0.760 -0.360 -0.468 -0.430 -0.412 -0.412
 0.086  0.766 -0.355 -0.464 -0.429 -0.410 -0.410
 0.088  0.771 -0.351 -0.461 -0.427 -0.409 -0.409
 0.090  0.777 -0.346 -0.457 -0.425 -0.407 -0.407
 0.092  0.783 -0.342 -0.454 -0.424 -0.405 -0.405
 0.094  0.789 -0.338 -0.451 -0.422 -0.404 -0.404
 0.096  0.794 -0.333 -0.448 -0.421 -0.403 -0.403
 0.098  0.799 -0.329 -0.444 -0.419 -0.401 -0.401
 0.100  0.804 -0.325 -0.441 -0.417 -0.400 -0.400
 0.102  0.809 -0.320 -0.438 -0.416 -0.399 -0.399
 0.104  0.814 -0.316 -0.435 -0.414 -0.397 -0.397
 0.106  0.819 -0.311 -0.432 -0.412 -0.396 -0.396
 0.108  0.824 -0.307 -0.429 -0.411 -0.394 -0.394
 0.110  0.829 -0.303 -0.426 -0.409 -0.393 -0.393
 0.112  0.834 -0.299 -0.423 -0.407 -0.392 -0.392
 0.114  0.838 -0.295 -0.419 -0.406 -0.390 -0.390
 0.116  0.843 -0.291 -0.417 -0.405 -0.389 -0.389
 0.118  0.847 -0.287 -0.414 -0.403 -0.388 -0.388
 0.120  0.852 -0.284 -0.411 -0.402 -0.386 -0.386
 0.122  0.856 -0.279 -0.408 -0.400 -0.385 -0.385
 0.124  0.861 -0.275 -0.406 -0.398 -0.384 -0.384
 0.126  0.865 -0.272 -0.403 -0.397 -0.383 -0.383
 0.128  0.869 -0.268 -0.400 -0.395 -0.382 -0.382
 0.130  0.873 -0.264 -0.398 -0.394 -0.380 -0.380
 0.132  0.876 -0.260 -0.395 -0.392 -0.379 -0.379
 0.134  0.880 -0.256 -0.393 -0.391 -0.378 -0.378
 0.136  0.884 -0.253 -0.390 -0.389 -0.377 -0.377
 0.138  0.888 -0.249 -0.388 -0.388 -0.376 -0.376
 0.140  0.891 -0.246 -0.385 -0.387 -0.375 -0.375
 0.142  0.894 -0.242 -0.383 -0.385 -0.374 -0.374
 0.144  0.898 -0.239 -0.381 -0.384 -0.373 -0.373
 0.146  0.901 -0.235 -0.378 -0.382 -0.372 -0.372
 0.148  0.904 -0.232 -0.376 -0.381 -0.371 -0.371
 0.150  0.908 -0.228 -0.374 -0.379 -0.369 -0.369
 0.152  0.911 -0.225 -0.371 -0.378 -0.368 -0.368
 0.154  0.914 -0.222 -0.369 -0.376 -0.367 -0.367
 0.156  0.918 -0.218 -0.367 -0.375 -0.366 -0.366
 0.158  0.921 -0.215 -0.365 -0.373 -0.365 -0.365
 0.160  0.924 -0.213 -0.363 -0.372 -0.364 -0.364
 0.162  0.927 -0.209 -0.361 -0.371 -0.363 -0.363
 0.164  0.930 -0.206 -0.358 -0.369 -0.362 -0.362
 0.166  0.933 -0.203 -0.356 -0.368 -0.361 -0.361
 0.168  0.937 -0.200 -0.354 -0.367 -0.360 -0.360
 0.170  0.940 -0.196 -0.352 -0.365 -0.359 -0.359
 0.172  0.943 -0.194 -0.350 -0.364 -0.358 -0.358
 0.174  0.947 -0.190 -0.348 -0.362 -0.356 -0.356
 0.176  0.949 -0.187 -0.346 -0.361 -0.355 -0.355
 0.178  0.952 -0.184 -0.343 -0.359 -0.354 -0.354
 0.180  0.956 -0.181 -0.342 -0.358 -0.353 -0.353
 0.182  0.959 -0.177 -0.340 -0.357 -0.352 -0.352
 0.184  0.962 -0.174 -0.337 -0.355 -0.351 -0.351
 0.186  0.966 -0.172 -0.335 -0.354 -0.350 -0.350
 0.188  0.969 -0.168 -0.333 -0.353 -0.348 -0.348
 0.190  0.971 -0.165 -0.331 -0.352 -0.347 -0.347
 0.192  0.975 -0.162 -0.329 -0.350 -0.346 -0.346
 0.194  0.978 -0.158 -0.327 -0.349 -0.345 -0.345
 0.196  0.981 -0.155 -0.325 -0.348 -0.344 -0.344
 0.198  0.985 -0.152 -0.323 -0.346 -0.343 -0.343
 0.200  0.988 -0.148 -0.321 -0.345 -0.341 -0.341
 0.202  0.990 -0.145 -0.319 -0.344 -0.340 -0.340
 0.204  0.994 -0.142 -0.317 -0.342 -0.339 -0.339
 0.206  0.997 -0.139 -0.315 -0.341 -0.338 -0.338
 0.208  1.000 -0.135 -0.313 -0.340 -0.337 -0.337
 0.210  1.003 -0.132 -0.311 -0.338 -0.336 -0.336
 0.212  1.006 -0.129 -0.309 -0.337 -0.334 -0.334
 0.214  1.009 -0.125 -0.307 -0.336 -0.334 -0.334
 0.216  1.013 -0.122 -0.305 -0.335 -0.332 -0.332
 0.218  1.016 -0.119 -0.303 -0.334 -0.331 -0.331
 0.220  1.018 -0.116 -0.302 -0.332 -0.330 -0.330
 0.222  1.022 -0.112 -0.300 -0.331 -0.329 -0.329
 0.224  1.025 -0.109 -0.298 -0.330 -0.327 -0.327
 0.226  1.028 -0.106 -0.296 -0.328 -0.326 -0.326
 0.228  1.031 -0.102 -0.294 -0.327 -0.325 -0.325
 0.230  1.034 -0.098 -0.292 -0.326 -0.324 -0.324
 0.232  1.037 -0.095 -0.290 -0.325 -0.323 -0.323
 0.234  1.040 -0.092 -0.289 -0.323 -0.321 -0.321
 0.236  1.042 -0.088 -0.287 -0.322 -0.321 -0.321
 0.238  1.046 -0.085 -0.285 -0.321 -0.319 -0.319
 0.240  1.048 -0.082 -0.283 -0.320 -0.318 -0.318
 0.242  1.052 -0.079 -0.281 -0.319 -0.317 -0.317
 0.244  1.054 -0.075 -0.279 -0.317 -0.316 -0.316
 0.246  1.056 -0.072 -0.277 -0.316 -0.315 -0.315
 0.248  1.060 -0.069 -0.275 -0.315 -0.314 -0.314
 0.250  1.062 -0.066 -0.274 -0.313 -0.313 -0.313
 0.252  1.065 -0.063 -0.272 -0.312 -0.311 -0.311
 0.254  1.068 -0.060 -0.270 -0.311 -0.310 -0.310
 0.256  1.071 -0.057 -0.268 -0.309 -0.309 -0.309
 0.258  1.073 -0.054 -0.266 -0.308 -0.308 -0.308
 0.260  1.075 -0.051 -0.264 -0.307 -0.307 -0.307
 0.262  1.078 -0.048 -0.262 -0.305 -0.306 -0.306
 0.264  1.081 -0.045 -0.260 -0.304 -0.305 -0.305
 0.266  1.084 -0.042 -0.259 -0.303 -0.304 -0.304
 0.268  1.086 -0.039 -0.257 -0.302 -0.303 -0.303
 0.270  1.089 -0.037 -0.255 -0.300 -0.301 -0.301
 0.272  1.091 -0.034 -0.254 -0.299 -0.301 -0.301
 0.274  1.094 -0.031 -0.252 -0.298 -0.300 -0.300
 0.276  1.096 -0.028 -0.250 -0.296 -0.298 -0.298
 0.278  1.099 -0.026 -0.248 -0.295 -0.297 -0.297
 0.280  1.101 -0.023 -0.246 -0.294 -0.296 -0.296
 0.282  1.104 -0.021 -0.244 -0.292 -0.295 -0.295
 0.284  1.105 -0.018 -0.242 -0.291 -0.294 -0.294
 0.286  1.108 -0.015 -0.241 -0.290 -0.293 -0.293
 0.288  1.110 -0.013 -0.239 -0.288 -0.292 -0.292
 0.290  1.113 -0.010 -0.237 -0.287 -0.291 -0.291
 0.292  1.115 -0.009 -0.236 -0.285 -0.290 -0.290
 0.294  1.118 -0.006 -0.234 -0.285 -0.289 -0.289
 0.296  1.119 -0.004 -0.232 -0.283 -0.288 -0.288
 0.298  1.122 -0.001 -0.230 -0.282 -0.287 -0.287
 0.300  1.124  0.001 -0.229 -0.281 -0.286 -0.286
 0.302  1.127  0.003 -0.227 -0.279 -0.285 -0.285
 0.304  1.128  0.005 -0.225 -0.278 -0.284 -0.284
 0.306  1.131  0.008 -0.223 -0.276 -0.282 -0.282
 0.308  1.133  0.010 -0.221 -0.275 -0.282 -0.282
 0.310  1.136  0.012 -0.220 -0.274 -0.281 -0.281
 0.312  1.137  0.015 -0.218 -0.272 -0.279 -0.279
 0.314  1.140  0.017 -0.216 -0.271 -0.278 -0.278
 0.316  1.142  0.019 -0.214 -0.270 -0.277 -0.277
 0.318  1.145  0.021 -0.212 -0.269 -0.276 -0.276
 0.320  1.147  0.024 -0.211 -0.268 -0.275 -0.275
 0.322  1.149  0.026 -0.209 -0.266 -0.274 -0.274
 0.324  1.152  0.028 -0.207 -0.265 -0.273 -0.273
 0.326  1.153  0.030 -0.206 -0.264 -0.271 -0.271
 0.328  1.156  0.033 -0.204 -0.263 -0.270 -0.270
 0.330  1.158  0.035 -0.202 -0.261 -0.269 -0.269
 0.332  1.161  0.038 -0.201 -0.260 -0.268 -0.268
 0.334  1.162  0.039 -0.199 -0.259 -0.267 -0.267
 0.336  1.165  0.042 -0.197 -0.258 -0.265 -0.265
 0.338  1.167  0.044 -0.196 -0.256 -0.264 -0.264
 0.340  1.169  0.047 -0.194 -0.255 -0.263 -0.263
 0.342  1.171  0.049 -0.192 -0.254 -0.262 -0.262
 0.344  1.173  0.052 -0.190 -0.253 -0.261 -0.261
 0.346  1.176  0.054 -0.189 -0.251 -0.259 -0.259
 0.348  1.178  0.057 -0.187 -0.250 -0.258 -0.258
 0.350  1.180  0.059 -0.185 -0.249 -0.257 -0.257
 0.352  1.182  0.061 -0.184 -0.248 -0.256 -0.256
 0.354  1.185  0.064 -0.182 -0.247 -0.255 -0.255
 0.356  1.186  0.066 -0.180 -0.246 -0.253 -0.253
 0.358  1.189  0.069 -0.178 -0.245 -0.252 -0.252
 0.360  1.190  0.071 -0.177 -0.243 -0.251 -0.251
 0.362  1.193  0.074 -0.175 -0.242 -0.249 -0.249
 0.364  1.195  0.076 -0.173 -0.241 -0.248 -0.248
 0.366  1.197  0.079 -0.172 -0.240 -0.247 -0.247
 0.368  1.199  0.081 -0.170 -0.239 -0.246 -0.246
 0.370  1.201  0.084 -0.168 -0.238 -0.244 -0.244
 0.372  1.204  0.086 -0.167 -0.236 -0.243 -0.243
 0.374  1.205  0.089 -0.165 -0.235 -0.242 -0.242
 0.376  1.208  0.091 -0.163 -0.234 -0.241 -0.241
 0.378  1.209  0.094 -0.162 -0.233 -0.240 -0.240
 0.380  1.212  0.096 -0.160 -0.232 -0.238 -0.238
 0.382  1.214  0.098 -0.158 -0.231 -0.237 -0.237
 0.384  1.216  0.101 -0.157 -0.230 -0.236 -0.236
 0.386  1.218  0.103 -0.155 -0.229 -0.235 -0.235
 0.388  1.220  0.106 -0.153 -0.227 -0.234 -0.234
 0.390  1.222  0.108 -0.152 -0.226 -0.232 -0.232
 0.392  1.224  0.111 -0.150 -0.225 -0.231 -0.231
 0.394  1.226  0.113 -0.148 -0.224 -0.230 -0.230
 0.396  1.228  0.116 -0.147 -0.223 -0.229 -0.229
 0.398  1.230  0.117 -0.145 -0.221 -0.228 -0.228
 0.400  1.233  0.120 -0.144 -0.220 -0.227 -0.227
 0.402  1.234  0.122 -0.142 -0.219 -0.226 -0.226
 0.404  1.237  0.124 -0.140 -0.218 -0.224 -0.224
 0.406  1.238  0.126 -0.139 -0.216 -0.223 -0.223
 0.408  1.240  0.128 -0.137 -0.216 -0.222 -0.222
 0.410  1.242  0.131 -0.136 -0.215 -0.221 -0.221
 0.412  1.244  0.132 -0.134 -0.213 -0.220 -0.220
 0.414  1.246  0.135 -0.133 -0.212 -0.219 -0.219
 0.416  1.248  0.136 -0.131 -0.211 -0.218 -0.218
 0.418  1.250  0.139 -0.129 -0.210 -0.217 -0.217
 0.420  1.252  0.140 -0.128 -0.208 -0.216 -0.216
 0.422  1.254  0.142 -0.126 -0.207 -0.215 -0.215
 0.424  1.256  0.144 -0.125 -0.206 -0.213 -0.213
 0.426  1.258  0.146 -0.123 -0.205 -0.212 -0.212
 0.428  1.260  0.148 -0.121 -0.204 -0.211 -0.211
 0.430  1.261  0.150 -0.120 -0.202 -0.210 -0.210
 0.432  1.263  0.151 -0.118 -0.201 -0.209 -0.209
 0.434  1.266  0.153 -0.116 -0.200 -0.208 -0.208
 0.436  1.267  0.154 -0.115 -0.199 -0.207 -0.207
 0.438  1.269  0.156 -0.113 -0.198 -0.206 -0.206
 0.440  1.271  0.158 -0.112 -0.197 -0.205 -0.205
 0.442  1.273  0.159 -0.110 -0.196 -0.204 -0.204
 0.444  1.275  0.161 -0.109 -0.194 -0.203 -0.203
 0.446  1.276  0.163 -0.107 -0.193 -0.202 -0.202
 0.448  1.278  0.164 -0.106 -0.192 -0.201 -0.201
 0.450  1.280  0.165 -0.105 -0.191 -0.200 -0.200
 0.452  1.281  0.167 -0.103 -0.190 -0.199 -0.199
 0.454  1.283  0.168 -0.101 -0.189 -0.197 -0.197
 0.456  1.285  0.169 -0.100 -0.187 -0.197 -0.197
 0.458  1.286  0.171 -0.099 -0.186 -0.196 -0.196
 0.460  1.288  0.173 -0.098 -0.185 -0.195 -0.195
 0.462  1.290  0.173 -0.096 -0.184 -0.193 -0.193
 0.464  1.291  0.175 -0.095 -0.183 -0.192 -0.192
 0.466  1.293  0.176 -0.093 -0.182 -0.191 -0.191
 0.468  1.295  0.178 -0.092 -0.181 -0.191 -0.191
 0.470  1.296  0.178 -0.091 -0.181 -0.190 -0.190
 0.472  1.298  0.180 -0.090 -0.179 -0.188 -0.188
 0.474  1.299  0.181 -0.088 -0.178 -0.187 -0.187
 0.476  1.301  0.182 -0.087 -0.177 -0.186 -0.186
 0.478  1.302  0.183 -0.086 -0.176 -0.185 -0.185
 0.480  1.304  0.185 -0.085 -0.176 -0.184 -0.184
 0.482  1.305  0.186 -0.084 -0.175 -0.183 -0.183
 0.484  1.307  0.187 -0.083 -0.174 -0.182 -0.182
 0.486  1.308  0.187 -0.082 -0.173 -0.181 -0.181
 0.488  1.309  0.189 -0.080 -0.172 -0.180 -0.180
 0.490  1.311  0.190 -0.080 -0.171 -0.179 -0.179
 0.492  1.312  0.191 -0.078 -0.170 -0.178 -0.178
 0.494  1.314  0.192 -0.077 -0.169 -0.177 -0.177
 0.496  1.315  0.192 -0.077 -0.168 -0.176 -0.176
 0.498  1.316  0.193 -0.075 -0.167 -0.175 -0.175
 0.500  1.318  0.194 -0.074 -0.167 -0.174 -0.174
 0.502  1.319  0.196 -0.073 -0.166 -0.173 -0.173
 0.504  1.320  0.196 -0.072 -0.165 -0.172 -0.172
 0.506  1.321  0.197 -0.072 -0.164 -0.171 -0.171
 0.508  1.323  0.198 -0.070 -0.164 -0.170 -0.170
 0.510  1.323  0.198 -0.070 -0.163 -0.169 -0.169
 0.512  1.325  0.199 -0.068 -0.162 -0.168 -0.168
 0.514  1.326  0.200 -0.068 -0.161 -0.167 -0.167
 0.516  1.327  0.201 -0.067 -0.160 -0.166 -0.166
 0.518  1.328  0.201 -0.066 -0.160 -0.165 -0.165
 0.520  1.329  0.202 -0.065 -0.159 -0.165 -0.165
 0.522  1.330  0.202 -0.064 -0.158 -0.164 -0.164
 0.524  1.331  0.203 -0.063 -0.157 -0.163 -0.163
 0.526  1.332  0.204 -0.063 -0.156 -0.162 -0.162
 0.528  1.333  0.205 -0.062 -0.156 -0.161 -0.161
 0.530  1.333  0.205 -0.061 -0.155 -0.160 -0.160
 0.532  1.334  0.206 -0.060 -0.154 -0.159 -0.159
 0.534  1.335  0.206 -0.060 -0.153 -0.158 -0.158
 0.536  1.336  0.206 -0.058 -0.153 -0.158 -0.158
 0.538  1.337  0.207 -0.058 -0.152 -0.157 -0.157
 0.540  1.338  0.207 -0.057 -0.151 -0.156 -0.156
 0.542  1.338  0.208 -0.057 -0.150 -0.155 -0.155
 0.544  1.339  0.208 -0.056 -0.149 -0.154 -0.154
 0.546  1.340  0.209 -0.055 -0.149 -0.154 -0.154
 0.548  1.341  0.209 -0.054 -0.148 -0.153 -0.153
 0.550  1.341  0.210 -0.053 -0.147 -0.152 -0.152
 0.552  1.342  0.210 -0.053 -0.146 -0.152 -0.152
 0.554  1.342  0.210 -0.052 -0.146 -0.151 -0.151
 0.556  1.342  0.210 -0.052 -0.145 -0.150 -0.150
 0.558  1.343  0.210 -0.051 -0.144 -0.149 -0.149
 0.560  1.343  0.211 -0.050 -0.144 -0.149 -0.149
 0.562  1.344  0.211 -0.050 -0.143 -0.148 -0.148
 0.564  1.344  0.211 -0.049 -0.142 -0.147 -0.147
 0.566  1.345  0.211 -0.048 -0.141 -0.146 -0.146
 0.568  1.345  0.212 -0.048 -0.140 -0.146 -0.146
 0.570  1.346  0.212 -0.047 -0.140 -0.145 -0.145
 0.572  1.346  0.212 -0.047 -0.139 -0.145 -0.145
 0.574  1.346  0.212 -0.046 -0.138 -0.144 -0.144
 0.576  1.347  0.212 -0.045 -0.137 -0.143 -0.143
 0.578  1.347  0.212 -0.045 -0.137 -0.143 -0.143
 0.580  1.347  0.212 -0.044 -0.136 -0.142 -0.142
 0.582  1.347  0.212 -0.043 -0.135 -0.141 -0.141
 0.584  1.347  0.212 -0.043 -0.134 -0.141 -0.141
 0.586  1.347  0.212 -0.043 -0.134 -0.140 -0.140
 0.588  1.347  0.212 -0.042 -0.133 -0.139 -0.139
 0.590  1.347  0.212 -0.042 -0.132 -0.139 -0.139
 0.592  1.347  0.212 -0.041 -0.132 -0.139 -0.139
 0.594  1.348  0.212 -0.041 -0.131 -0.138 -0.138
 0.596  1.348  0.212 -0.040 -0.130 -0.137 -0.137
 0.598  1.348  0.212 -0.040 -0.130 -0.136 -0.136
 0.600  1.348  0.212 -0.040 -0.129 -0.136 -0.136
 0.602  1.348  0.212 -0.039 -0.129 -0.135 -0.135
 0.604  1.348  0.212 -0.039 -0.129 -0.134 -0.134
 0.606  1.348  0.212 -0.039 -0.128 -0.134 -0.134
 0.608  1.348  0.212 -0.038 -0.128 -0.133 -0.133
 0.610  1.348  0.211 -0.038 -0.127 -0.132 -0.132
 0.612  1.348  0.211 -0.037 -0.127 -0.132 -0.132
 0.614  1.348  0.211 -0.037 -0.126 -0.131 -0.131
 0.616  1.348  0.211 -0.037 -0.126 -0.131 -0.131
 0.618  1.348  0.211 -0.037 -0.125 -0.130 -0.130
 0.620  1.348  0.211 -0.036 -0.125 -0.129 -0.129
 0.622  1.348  0.211 -0.036 -0.125 -0.129 -0.129
 0.624  1.348  0.211 -0.036 -0.124 -0.128 -0.128
 0.626  1.347  0.211 -0.035 -0.124 -0.127 -0.127
 0.628  1.347  0.211 -0.035 -0.124 -0.127 -0.127
 0.630  1.347  0.210 -0.035 -0.123 -0.126 -0.126
 0.632  1.347  0.210 -0.035 -0.123 -0.126 -0.126
 0.634  1.347  0.210 -0.035 -0.123 -0.125 -0.125
 0.636  1.347  0.210 -0.035 -0.123 -0.124 -0.124
 0.638  1.347  0.210 -0.035 -0.123 -0.124 -0.124
 0.640  1.347  0.210 -0.035 -0.123 -0.123 -0.123
 0.642  1.347  0.210 -0.034 -0.122 -0.122 -0.122
 0.644  1.346  0.210 -0.034 -0.122 -0.122 -0.122
 0.646  1.346  0.210 -0.034 -0.122 -0.121 -0.121
 0.648  1.346  0.210 -0.034 -0.122 -0.120 -0.120
 0.650  1.345  0.210 -0.034 -0.122 -0.119 -0.119
 0.652  1.345  0.210 -0.034 -0.122 -0.119 -0.119
 0.654  1.345  0.210 -0.034 -0.121 -0.118 -0.118
 0.656  1.345  0.210 -0.034 -0.121 -0.118 -0.118
 0.658  1.344  0.209 -0.034 -0.121 -0.117 -0.117
 0.660  1.344  0.209 -0.034 -0.121 -0.116 -0.116
 0.662  1.344  0.209 -0.034 -0.121 -0.115 -0.115
 0.664  1.343  0.209 -0.034 -0.120 -0.115 -0.115
 0.666  1.343  0.209 -0.034 -0.120 -0.114 -0.114
 0.668  1.343  0.209 -0.035 -0.120 -0.113 -0.113
 0.670  1.342  0.209 -0.035 -0.119 -0.113 -0.113
 0.672  1.342  0.209 -0.035 -0.119 -0.112 -0.112
 0.674  1.342  0.209 -0.035 -0.118 -0.111 -0.111
 0.676  1.342  0.209 -0.035 -0.118 -0.110 -0.110
 0.678  1.342  0.209 -0.035 -0.117 -0.109 -0.109
 0.680  1.342  0.210 -0.035 -0.117 -0.108 -0.108
 0.682  1.342  0.210 -0.036 -0.116 -0.107 -0.107
 0.684  1.341  0.210 -0.036 -0.116 -0.106 -0.106
 0.686  1.341  0.210 -0.037 -0.115 -0.106 -0.106
 0.688  1.341  0.210 -0.037 -0.114 -0.105 -0.105
 0.690  1.340  0.211 -0.037 -0.113 -0.104 -0.104
 0.692  1.340  0.211 -0.037 -0.113 -0.103 -0.103
 0.694  1.340  0.212 -0.038 -0.112 -0.102 -0.102
 0.696  1.339  0.213 -0.038 -0.111 -0.101 -0.101
 0.698  1.339  0.213 -0.039 -0.111 -0.100 -0.100
 0.700  1.339  0.214 -0.039 -0.110 -0.100 -0.100
 0.702  1.338  0.215 -0.039 -0.109 -0.099 -0.099
 0.704  1.338  0.215 -0.040 -0.108 -0.098 -0.098
 0.706  1.338  0.216 -0.040 -0.107 -0.097 -0.097
 0.708  1.338  0.217 -0.040 -0.106 -0.096 -0.096
 0.710  1.338  0.218 -0.041 -0.105 -0.095 -0.095
 0.712  1.338  0.219 -0.042 -0.104 -0.094 -0.094
 0.714  1.338  0.220 -0.042 -0.103 -0.093 -0.093
 0.716  1.337  0.220 -0.043 -0.102 -0.092 -0.092
 0.718  1.337  0.221 -0.043 -0.100 -0.091 -0.091
 0.720  1.337  0.223 -0.043 -0.099 -0.090 -0.090
 0.722  1.337  0.224 -0.044 -0.098 -0.089 -0.089
 0.724  1.336  0.224 -0.045 -0.097 -0.087 -0.087
 0.726  1.336  0.226 -0.045 -0.095 -0.086 -0.086
 0.728  1.336  0.227 -0.045 -0.094 -0.085 -0.085
 0.730  1.336  0.229 -0.045 -0.093 -0.083 -0.083
 0.732  1.335  0.229 -0.045 -0.091 -0.082 -0.082
 0.734  1.335  0.231 -0.045 -0.090 -0.080 -0.080
 0.736  1.335  0.233 -0.045 -0.088 -0.079 -0.079
 0.738  1.335  0.234 -0.045 -0.086 -0.077 -0.077
 0.740  1.334  0.235 -0.045 -0.085 -0.075 -0.075
 0.742  1.334  0.237 -0.044 -0.083 -0.073 -0.073
 0.744  1.334  0.238 -0.043 -0.081 -0.071 -0.071
 0.746  1.334  0.239 -0.043 -0.079 -0.069 -0.069
 0.748  1.334  0.241 -0.042 -0.077 -0.067 -0.067
 0.750  1.334  0.243 -0.041 -0.075 -0.065 -0.065
 0.752  1.333  0.244 -0.040 -0.073 -0.063 -0.063
 0.754  1.333  0.246 -0.039 -0.071 -0.061 -0.061
 0.756  1.333  0.248 -0.038 -0.069 -0.059 -0.059
 0.758  1.333  0.249 -0.037 -0.067 -0.056 -0.056
 0.760  1.333  0.252 -0.035 -0.065 -0.054 -0.054
 0.762  1.333  0.253 -0.034 -0.062 -0.051 -0.051
 0.764  1.333  0.255 -0.032 -0.060 -0.049 -0.049
 0.766  1.333  0.257 -0.030 -0.058 -0.046 -0.046
 0.768  1.333  0.258 -0.029 -0.056 -0.043 -0.043
 0.770  1.333  0.261 -0.026 -0.053 -0.041 -0.041
 0.772  1.333  0.262 -0.024 -0.050 -0.038 -0.038
 0.774  1.333  0.264 -0.022 -0.047 -0.035 -0.035
 0.776  1.333  0.266 -0.020 -0.044 -0.031 -0.031
 0.778  1.333  0.268 -0.017 -0.042 -0.028 -0.028
 0.780  1.333  0.270 -0.014 -0.039 -0.025 -0.025
 0.782  1.333  0.271 -0.012 -0.036 -0.022 -0.022
 0.784  1.333  0.274 -0.009 -0.033 -0.018 -0.018
 0.786  1.333  0.276 -0.006 -0.030 -0.015 -0.015
 0.788  1.333  0.278 -0.004 -0.027 -0.012 -0.012
 0.790  1.333  0.280 -0.000 -0.024 -0.009 -0.009
 0.792  1.333  0.283  0.003 -0.021 -0.006 -0.006
 0.794  1.334  0.285  0.005 -0.019 -0.003 -0.003
 0.796  1.334  0.288  0.008 -0.016 -0.001 -0.001
 0.798  1.335  0.290  0.011 -0.013  0.001  0.001
 0.800  1.336  0.293  0.014 -0.011  0.004  0.004
 0.802  1.337  0.295  0.016 -0.009  0.005  0.005
 0.804  1.338  0.298  0.019 -0.007  0.007  0.007
 0.806  1.338  0.299  0.022 -0.005  0.008  0.008
 0.808  1.340  0.301  0.024 -0.004  0.010  0.010
