# IsPeriodic    : True
# Period        : 0.500316 days
# Normalization : <g_mag>=0
# 
# Phase u_mag  g_mag  r_mag  i_mag  z_mag  y_mag
 0.000  0.289 -0.968 -0.803 -0.621 -0.511 -0.511
 0.002  0.289 -0.968 -0.803 -0.621 -0.511 -0.511
 0.004  0.289 -0.968 -0.803 -0.621 -0.510 -0.510
 0.006  0.290 -0.966 -0.802 -0.620 -0.509 -0.509
 0.008  0.292 -0.965 -0.801 -0.620 -0.509 -0.509
 0.010  0.293 -0.963 -0.799 -0.619 -0.507 -0.507
 0.012  0.295 -0.962 -0.796 -0.618 -0.506 -0.506
 0.014  0.297 -0.960 -0.794 -0.616 -0.504 -0.504
 0.016  0.300 -0.957 -0.792 -0.614 -0.502 -0.502
 0.018  0.303 -0.954 -0.789 -0.612 -0.501 -0.501
 0.020  0.306 -0.951 -0.786 -0.611 -0.498 -0.498
 0.022  0.310 -0.948 -0.784 -0.609 -0.496 -0.496
 0.024  0.314 -0.944 -0.780 -0.606 -0.494 -0.494
 0.026  0.320 -0.941 -0.777 -0.604 -0.492 -0.492
 0.028  0.324 -0.936 -0.773 -0.601 -0.489 -0.489
 0.030  0.329 -0.931 -0.770 -0.599 -0.486 -0.486
 0.032  0.336 -0.926 -0.765 -0.596 -0.484 -0.484
 0.034  0.342 -0.920 -0.762 -0.593 -0.482 -0.482
 0.036  0.349 -0.914 -0.757 -0.591 -0.480 -0.480
 0.038  0.356 -0.908 -0.753 -0.587 -0.477 -0.477
 0.040  0.364 -0.902 -0.749 -0.584 -0.475 -0.475
 0.042  0.371 -0.895 -0.744 -0.581 -0.472 -0.472
 0.044  0.379 -0.888 -0.739 -0.577 -0.469 -0.469
 0.046  0.387 -0.880 -0.734 -0.573 -0.467 -0.467
 0.048  0.396 -0.873 -0.729 -0.570 -0.464 -0.464
 0.050  0.405 -0.864 -0.723 -0.566 -0.461 -0.461
 0.052  0.414 -0.855 -0.717 -0.561 -0.457 -0.457
 0.054  0.423 -0.846 -0.711 -0.557 -0.454 -0.454
 0.056  0.432 -0.836 -0.704 -0.552 -0.450 -0.450
 0.058  0.441 -0.827 -0.699 -0.548 -0.447 -0.447
 0.060  0.450 -0.817 -0.692 -0.543 -0.444 -0.444
 0.062  0.460 -0.806 -0.685 -0.538 -0.440 -0.440
 0.064  0.468 -0.796 -0.678 -0.533 -0.436 -0.436
 0.066  0.478 -0.785 -0.671 -0.528 -0.433 -0.433
 0.068  0.486 -0.774 -0.664 -0.522 -0.429 -0.429
 0.070  0.494 -0.763 -0.656 -0.517 -0.425 -0.425
 0.072  0.502 -0.751 -0.649 -0.511 -0.421 -0.421
 0.074  0.511 -0.741 -0.641 -0.506 -0.417 -0.417
 0.076  0.519 -0.729 -0.635 -0.501 -0.413 -0.413
 0.078  0.526 -0.717 -0.626 -0.495 -0.409 -0.409
 0.080  0.534 -0.707 -0.620 -0.490 -0.405 -0.405
 0.082  0.541 -0.695 -0.612 -0.484 -0.401 -0.401
 0.084  0.550 -0.685 -0.604 -0.479 -0.397 -0.397
 0.086  0.557 -0.674 -0.597 -0.473 -0.393 -0.393
 0.088  0.563 -0.664 -0.590 -0.468 -0.390 -0.390
 0.090  0.570 -0.654 -0.583 -0.462 -0.386 -0.386
 0.092  0.579 -0.645 -0.576 -0.458 -0.382 -0.382
 0.094  0.586 -0.634 -0.569 -0.452 -0.379 -0.379
 0.096  0.593 -0.626 -0.562 -0.448 -0.375 -0.375
 0.098  0.599 -0.617 -0.555 -0.443 -0.371 -0.371
 0.100  0.606 -0.608 -0.548 -0.438 -0.368 -0.368
 0.102  0.613 -0.599 -0.543 -0.433 -0.364 -0.364
 0.104  0.619 -0.590 -0.536 -0.429 -0.362 -0.362
 0.106  0.626 -0.581 -0.530 -0.425 -0.358 -0.358
 0.108  0.633 -0.574 -0.524 -0.421 -0.355 -0.355
 0.110  0.638 -0.565 -0.517 -0.416 -0.351 -0.351
 0.112  0.644 -0.557 -0.512 -0.412 -0.348 -0.348
 0.114  0.651 -0.550 -0.506 -0.408 -0.345 -0.345
 0.116  0.656 -0.541 -0.500 -0.403 -0.342 -0.342
 0.118  0.662 -0.534 -0.495 -0.400 -0.339 -0.339
 0.120  0.667 -0.526 -0.489 -0.395 -0.336 -0.336
 0.122  0.673 -0.519 -0.483 -0.392 -0.333 -0.333
 0.124  0.678 -0.513 -0.477 -0.388 -0.330 -0.330
 0.126  0.684 -0.506 -0.473 -0.384 -0.328 -0.328
 0.128  0.690 -0.500 -0.467 -0.381 -0.325 -0.325
 0.130  0.695 -0.494 -0.462 -0.377 -0.322 -0.322
 0.132  0.701 -0.488 -0.458 -0.374 -0.319 -0.319
 0.134  0.706 -0.482 -0.453 -0.371 -0.317 -0.317
 0.136  0.713 -0.476 -0.447 -0.367 -0.315 -0.315
 0.138  0.719 -0.470 -0.443 -0.364 -0.312 -0.312
 0.140  0.724 -0.466 -0.438 -0.362 -0.310 -0.310
 0.142  0.730 -0.460 -0.435 -0.358 -0.308 -0.308
 0.144  0.735 -0.454 -0.430 -0.355 -0.305 -0.305
 0.146  0.741 -0.449 -0.426 -0.352 -0.303 -0.303
 0.148  0.746 -0.444 -0.421 -0.350 -0.301 -0.301
 0.150  0.752 -0.439 -0.417 -0.346 -0.299 -0.299
 0.152  0.757 -0.433 -0.413 -0.343 -0.296 -0.296
 0.154  0.763 -0.429 -0.408 -0.341 -0.294 -0.294
 0.156  0.769 -0.423 -0.404 -0.338 -0.292 -0.292
 0.158  0.774 -0.417 -0.400 -0.335 -0.290 -0.290
 0.160  0.780 -0.412 -0.396 -0.332 -0.288 -0.288
 0.162  0.785 -0.407 -0.391 -0.330 -0.285 -0.285
 0.164  0.791 -0.401 -0.388 -0.327 -0.283 -0.283
 0.166  0.796 -0.396 -0.383 -0.324 -0.281 -0.281
 0.168  0.803 -0.390 -0.380 -0.322 -0.279 -0.279
 0.170  0.809 -0.384 -0.375 -0.319 -0.277 -0.277
 0.172  0.814 -0.378 -0.371 -0.316 -0.274 -0.274
 0.174  0.820 -0.372 -0.367 -0.313 -0.272 -0.272
 0.176  0.825 -0.368 -0.363 -0.311 -0.270 -0.270
 0.178  0.831 -0.362 -0.359 -0.308 -0.268 -0.268
 0.180  0.836 -0.356 -0.355 -0.305 -0.265 -0.265
 0.182  0.842 -0.350 -0.350 -0.303 -0.263 -0.263
 0.184  0.848 -0.344 -0.347 -0.300 -0.261 -0.261
 0.186  0.853 -0.338 -0.342 -0.297 -0.259 -0.259
 0.188  0.860 -0.332 -0.338 -0.295 -0.257 -0.257
 0.190  0.866 -0.327 -0.334 -0.293 -0.254 -0.254
 0.192  0.871 -0.321 -0.330 -0.290 -0.253 -0.253
 0.194  0.877 -0.315 -0.326 -0.287 -0.251 -0.251
 0.196  0.882 -0.309 -0.322 -0.284 -0.248 -0.248
 0.198  0.888 -0.303 -0.319 -0.282 -0.246 -0.246
 0.200  0.893 -0.297 -0.314 -0.279 -0.244 -0.244
 0.202  0.899 -0.291 -0.311 -0.277 -0.242 -0.242
 0.204  0.904 -0.285 -0.306 -0.274 -0.240 -0.240
 0.206  0.910 -0.279 -0.303 -0.272 -0.237 -0.237
 0.208  0.915 -0.273 -0.299 -0.269 -0.235 -0.235
 0.210  0.921 -0.267 -0.295 -0.266 -0.233 -0.233
 0.212  0.926 -0.261 -0.291 -0.264 -0.231 -0.231
 0.214  0.932 -0.254 -0.287 -0.262 -0.228 -0.228
 0.216  0.938 -0.248 -0.283 -0.259 -0.226 -0.226
 0.218  0.942 -0.242 -0.280 -0.256 -0.224 -0.224
 0.220  0.947 -0.236 -0.275 -0.253 -0.222 -0.222
 0.222  0.953 -0.230 -0.272 -0.252 -0.220 -0.220
 0.224  0.958 -0.224 -0.269 -0.249 -0.217 -0.217
 0.226  0.963 -0.219 -0.265 -0.246 -0.215 -0.215
 0.228  0.968 -0.213 -0.260 -0.244 -0.214 -0.214
 0.230  0.974 -0.207 -0.257 -0.242 -0.211 -0.211
 0.232  0.978 -0.201 -0.254 -0.239 -0.209 -0.209
 0.234  0.983 -0.195 -0.250 -0.237 -0.207 -0.207
 0.236  0.989 -0.189 -0.247 -0.234 -0.205 -0.205
 0.238  0.993 -0.184 -0.243 -0.232 -0.203 -0.203
 0.240  0.999 -0.179 -0.240 -0.230 -0.201 -0.201
 0.242  1.003 -0.173 -0.235 -0.227 -0.199 -0.199
 0.244  1.008 -0.168 -0.232 -0.224 -0.197 -0.197
 0.246  1.012 -0.162 -0.228 -0.223 -0.194 -0.194
 0.248  1.018 -0.156 -0.225 -0.220 -0.193 -0.193
 0.250  1.022 -0.152 -0.221 -0.218 -0.191 -0.191
 0.252  1.026 -0.146 -0.218 -0.215 -0.189 -0.189
 0.254  1.032 -0.142 -0.215 -0.213 -0.187 -0.187
 0.256  1.036 -0.136 -0.212 -0.211 -0.185 -0.185
 0.258  1.040 -0.131 -0.209 -0.208 -0.183 -0.183
 0.260  1.046 -0.125 -0.205 -0.206 -0.181 -0.181
 0.262  1.050 -0.121 -0.202 -0.203 -0.179 -0.179
 0.264  1.054 -0.115 -0.199 -0.202 -0.177 -0.177
 0.266  1.058 -0.110 -0.195 -0.199 -0.175 -0.175
 0.268  1.064 -0.106 -0.192 -0.197 -0.174 -0.174
 0.270  1.068 -0.102 -0.189 -0.194 -0.172 -0.172
 0.272  1.072 -0.096 -0.186 -0.193 -0.170 -0.170
 0.274  1.076 -0.091 -0.182 -0.191 -0.168 -0.168
 0.276  1.082 -0.087 -0.179 -0.188 -0.166 -0.166
 0.278  1.086 -0.082 -0.177 -0.186 -0.164 -0.164
 0.280  1.090 -0.078 -0.173 -0.183 -0.163 -0.163
 0.282  1.094 -0.073 -0.170 -0.182 -0.160 -0.160
 0.284  1.098 -0.069 -0.168 -0.179 -0.159 -0.159
 0.286  1.104 -0.065 -0.164 -0.177 -0.157 -0.157
 0.288  1.108 -0.060 -0.161 -0.175 -0.155 -0.155
 0.290  1.112 -0.056 -0.158 -0.173 -0.154 -0.154
 0.292  1.116 -0.051 -0.155 -0.171 -0.152 -0.152
 0.294  1.120 -0.045 -0.153 -0.168 -0.150 -0.150
 0.296  1.126 -0.041 -0.149 -0.166 -0.149 -0.149
 0.298  1.130 -0.036 -0.147 -0.164 -0.146 -0.146
 0.300  1.134 -0.032 -0.143 -0.162 -0.145 -0.145
 0.302  1.138 -0.028 -0.140 -0.160 -0.143 -0.143
 0.304  1.143 -0.023 -0.138 -0.157 -0.141 -0.141
 0.306  1.148 -0.019 -0.134 -0.155 -0.140 -0.140
 0.308  1.152 -0.014 -0.132 -0.154 -0.138 -0.138
 0.310  1.157 -0.010 -0.129 -0.151 -0.136 -0.136
 0.312  1.161 -0.005 -0.126 -0.149 -0.135 -0.135
 0.314  1.165 -0.001 -0.123 -0.146 -0.133 -0.133
 0.316  1.169  0.004 -0.119 -0.144 -0.131 -0.131
 0.318  1.175  0.008 -0.117 -0.142 -0.129 -0.129
 0.320  1.179  0.012 -0.114 -0.140 -0.128 -0.128
 0.322  1.183  0.017 -0.111 -0.137 -0.126 -0.126
 0.324  1.187  0.021 -0.108 -0.135 -0.124 -0.124
 0.326  1.191  0.026 -0.104 -0.133 -0.123 -0.123
 0.328  1.195  0.030 -0.102 -0.131 -0.121 -0.121
 0.330  1.201  0.035 -0.099 -0.128 -0.119 -0.119
 0.332  1.205  0.039 -0.096 -0.126 -0.118 -0.118
 0.334  1.209  0.043 -0.093 -0.124 -0.116 -0.116
 0.336  1.213  0.048 -0.091 -0.122 -0.114 -0.114
 0.338  1.217  0.052 -0.087 -0.119 -0.112 -0.112
 0.340  1.222  0.057 -0.085 -0.117 -0.111 -0.111
 0.342  1.226  0.061 -0.081 -0.114 -0.109 -0.109
 0.344  1.230  0.066 -0.078 -0.112 -0.107 -0.107
 0.346  1.234  0.070 -0.076 -0.110 -0.106 -0.106
 0.348  1.240  0.075 -0.072 -0.107 -0.104 -0.104
 0.350  1.244  0.079 -0.070 -0.105 -0.102 -0.102
 0.352  1.248  0.083 -0.067 -0.103 -0.101 -0.101
 0.354  1.252  0.088 -0.064 -0.101 -0.098 -0.098
 0.356  1.255  0.092 -0.061 -0.098 -0.097 -0.097
 0.358  1.259  0.097 -0.057 -0.095 -0.095 -0.095
 0.360  1.263  0.101 -0.055 -0.094 -0.094 -0.094
 0.362  1.267  0.106 -0.052 -0.091 -0.092 -0.092
 0.364  1.272  0.110 -0.049 -0.089 -0.090 -0.090
 0.366  1.276  0.115 -0.046 -0.086 -0.089 -0.089
 0.368  1.280  0.119 -0.044 -0.084 -0.087 -0.087
 0.370  1.284  0.123 -0.040 -0.082 -0.085 -0.085
 0.372  1.287  0.128 -0.038 -0.079 -0.084 -0.084
 0.374  1.291  0.132 -0.034 -0.077 -0.081 -0.081
 0.376  1.295  0.137 -0.032 -0.074 -0.080 -0.080
 0.378  1.299  0.140 -0.029 -0.073 -0.078 -0.078
 0.380  1.302  0.144 -0.026 -0.070 -0.076 -0.076
 0.382  1.306  0.149 -0.023 -0.068 -0.075 -0.075
 0.384  1.310  0.153 -0.021 -0.065 -0.072 -0.072
 0.386  1.313  0.157 -0.017 -0.064 -0.071 -0.071
 0.388  1.317  0.162 -0.015 -0.061 -0.069 -0.069
 0.390  1.321  0.165 -0.012 -0.059 -0.067 -0.067
 0.392  1.324  0.169 -0.009 -0.056 -0.065 -0.065
 0.394  1.328  0.174 -0.006 -0.054 -0.064 -0.064
 0.396  1.331  0.178 -0.003 -0.053 -0.061 -0.061
 0.398  1.335  0.181 -0.000 -0.050 -0.060 -0.060
 0.400  1.338  0.186  0.002 -0.048 -0.058 -0.058
 0.402  1.342  0.190  0.006 -0.045 -0.056 -0.056
 0.404  1.345  0.194  0.008 -0.044 -0.054 -0.054
 0.406  1.349  0.197  0.011 -0.042 -0.053 -0.053
 0.408  1.352  0.202  0.014 -0.039 -0.050 -0.050
 0.410  1.356  0.206  0.017 -0.037 -0.048 -0.048
 0.412  1.359  0.209  0.019 -0.035 -0.047 -0.047
 0.414  1.363  0.214  0.023 -0.033 -0.044 -0.044
 0.416  1.366  0.217  0.025 -0.031 -0.043 -0.043
 0.418  1.369  0.221  0.028 -0.029 -0.041 -0.041
 0.420  1.373  0.226  0.031 -0.026 -0.038 -0.038
 0.422  1.375  0.229  0.033 -0.025 -0.037 -0.037
 0.424  1.378  0.233  0.037 -0.023 -0.035 -0.035
 0.426  1.382  0.236  0.039 -0.021 -0.033 -0.033
 0.428  1.385  0.240  0.042 -0.018 -0.031 -0.031
 0.430  1.388  0.243  0.045 -0.016 -0.029 -0.029
 0.432  1.391  0.248  0.047 -0.015 -0.027 -0.027
 0.434  1.393  0.251  0.050 -0.013 -0.025 -0.025
 0.436  1.398  0.255  0.053 -0.011 -0.023 -0.023
 0.438  1.400  0.258  0.056 -0.008 -0.021 -0.021
 0.440  1.403  0.263  0.058 -0.006 -0.019 -0.019
 0.442  1.406  0.266  0.061 -0.005 -0.017 -0.017
 0.444  1.409  0.268  0.064 -0.003 -0.015 -0.015
 0.446  1.411  0.271  0.067  0.000 -0.013 -0.013
 0.448  1.414  0.276  0.069  0.002 -0.011 -0.011
 0.450  1.417  0.279  0.071  0.004 -0.010 -0.010
 0.452  1.420  0.282  0.075  0.005 -0.007 -0.007
 0.454  1.423  0.285  0.077  0.007 -0.006 -0.006
 0.456  1.427  0.289  0.079  0.010 -0.004 -0.004
 0.458  1.428  0.292  0.081  0.012 -0.002 -0.002
 0.460  1.431  0.295  0.085  0.014 -0.000 -0.000
 0.462  1.434  0.298  0.087  0.015  0.001  0.001
 0.464  1.436  0.301  0.089  0.018  0.003  0.003
 0.466  1.439  0.304  0.092  0.020  0.005  0.005
 0.468  1.442  0.307  0.094  0.022  0.007  0.007
 0.470  1.445  0.310  0.096  0.024  0.008  0.008
 0.472  1.447  0.313  0.100  0.025  0.010  0.010
 0.474  1.450  0.314  0.102  0.028  0.012  0.012
 0.476  1.453  0.317  0.104  0.030  0.013  0.013
 0.478  1.454  0.320  0.107  0.032  0.015  0.015
 0.480  1.457  0.323  0.109  0.034  0.017  0.017
 0.482  1.460  0.326  0.111  0.035  0.018  0.018
 0.484  1.463  0.329  0.114  0.038  0.020  0.020
 0.486  1.464  0.331  0.116  0.040  0.021  0.021
 0.488  1.467  0.334  0.118  0.042  0.023  0.023
 0.490  1.470  0.337  0.120  0.044  0.024  0.024
 0.492  1.471  0.338  0.123  0.046  0.026  0.026
 0.494  1.474  0.341  0.125  0.048  0.027  0.027
 0.496  1.475  0.342  0.127  0.050  0.029  0.029
 0.498  1.478  0.345  0.130  0.052  0.030  0.030
 0.500  1.479  0.347  0.132  0.054  0.032  0.032
 0.502  1.482  0.350  0.134  0.056  0.033  0.033
 0.504  1.484  0.351  0.137  0.058  0.035  0.035
 0.506  1.486  0.354  0.139  0.060  0.036  0.036
 0.508  1.488  0.356  0.140  0.062  0.038  0.038
 0.510  1.489  0.359  0.142  0.064  0.038  0.038
 0.512  1.492  0.360  0.145  0.065  0.040  0.040
 0.514  1.493  0.362  0.147  0.067  0.041  0.041
 0.516  1.495  0.363  0.148  0.069  0.043  0.043
 0.518  1.497  0.366  0.150  0.071  0.044  0.044
 0.520  1.499  0.368  0.153  0.073  0.045  0.045
 0.522  1.500  0.369  0.154  0.075  0.047  0.047
 0.524  1.502  0.371  0.156  0.075  0.048  0.048
 0.526  1.503  0.372  0.157  0.077  0.049  0.049
 0.528  1.504  0.374  0.159  0.079  0.050  0.050
 0.530  1.506  0.375  0.161  0.080  0.051  0.051
 0.532  1.507  0.377  0.163  0.082  0.052  0.052
 0.534  1.508  0.378  0.164  0.083  0.054  0.054
 0.536  1.510  0.380  0.166  0.085  0.055  0.055
 0.538  1.511  0.381  0.167  0.085  0.056  0.056
 0.540  1.513  0.381  0.169  0.087  0.057  0.057
 0.542  1.514  0.382  0.171  0.088  0.058  0.058
 0.544  1.515  0.384  0.172  0.089  0.059  0.059
 0.546  1.517  0.385  0.173  0.091  0.060  0.060
 0.548  1.518  0.385  0.174  0.092  0.061  0.061
 0.550  1.518  0.387  0.176  0.093  0.062  0.062
 0.552  1.520  0.387  0.178  0.094  0.064  0.064
 0.554  1.521  0.388  0.179  0.095  0.064  0.064
 0.556  1.521  0.390  0.180  0.095  0.065  0.065
 0.558  1.522  0.390  0.181  0.096  0.066  0.066
 0.560  1.524  0.390  0.182  0.097  0.067  0.067
 0.562  1.524  0.391  0.184  0.098  0.068  0.068
 0.564  1.525  0.391  0.185  0.099  0.069  0.069
 0.566  1.525  0.393  0.186  0.100  0.069  0.069
 0.568  1.525  0.393  0.187  0.101  0.070  0.070
 0.570  1.526  0.393  0.187  0.101  0.072  0.072
 0.572  1.526  0.394  0.188  0.102  0.072  0.072
 0.574  1.528  0.394  0.189  0.103  0.073  0.073
 0.576  1.528  0.394  0.190  0.103  0.074  0.074
 0.578  1.528  0.394  0.190  0.104  0.075  0.075
 0.580  1.528  0.394  0.192  0.105  0.075  0.075
 0.582  1.528  0.396  0.193  0.105  0.076  0.076
 0.584  1.528  0.396  0.193  0.105  0.077  0.077
 0.586  1.529  0.396  0.194  0.105  0.078  0.078
 0.588  1.529  0.396  0.194  0.106  0.078  0.078
 0.590  1.529  0.396  0.195  0.106  0.079  0.079
 0.592  1.529  0.396  0.195  0.107  0.080  0.080
 0.594  1.528  0.396  0.196  0.107  0.081  0.081
 0.596  1.528  0.396  0.196  0.108  0.081  0.081
 0.598  1.528  0.396  0.197  0.108  0.081  0.081
 0.600  1.528  0.396  0.197  0.109  0.082  0.082
 0.602  1.528  0.396  0.197  0.109  0.083  0.083
 0.604  1.528  0.396  0.197  0.110  0.084  0.084
 0.606  1.526  0.396  0.198  0.110  0.084  0.084
 0.608  1.526  0.396  0.198  0.111  0.084  0.084
 0.610  1.526  0.396  0.198  0.111  0.085  0.085
 0.612  1.525  0.396  0.198  0.111  0.086  0.086
 0.614  1.525  0.396  0.198  0.112  0.086  0.086
 0.616  1.524  0.396  0.198  0.112  0.086  0.086
 0.618  1.524  0.396  0.198  0.112  0.087  0.087
 0.620  1.522  0.396  0.198  0.113  0.088  0.088
 0.622  1.521  0.394  0.198  0.113  0.089  0.089
 0.624  1.521  0.394  0.198  0.113  0.089  0.089
 0.626  1.520  0.394  0.198  0.114  0.089  0.089
 0.628  1.520  0.394  0.197  0.114  0.089  0.089
 0.630  1.518  0.394  0.197  0.114  0.090  0.090
 0.632  1.518  0.393  0.197  0.114  0.091  0.091
 0.634  1.517  0.393  0.196  0.115  0.091  0.091
 0.636  1.517  0.393  0.196  0.115  0.092  0.092
 0.638  1.515  0.393  0.196  0.115  0.092  0.092
 0.640  1.515  0.391  0.195  0.115  0.092  0.092
 0.642  1.514  0.391  0.195  0.115  0.092  0.092
 0.644  1.514  0.391  0.194  0.115  0.093  0.093
 0.646  1.514  0.390  0.194  0.115  0.093  0.093
 0.648  1.513  0.390  0.193  0.115  0.094  0.094
 0.650  1.513  0.388  0.193  0.115  0.094  0.094
 0.652  1.513  0.388  0.192  0.115  0.095  0.095
 0.654  1.511  0.387  0.192  0.115  0.095  0.095
 0.656  1.511  0.387  0.190  0.116  0.095  0.095
 0.658  1.511  0.385  0.190  0.116  0.095  0.095
 0.660  1.510  0.385  0.190  0.116  0.095  0.095
 0.662  1.510  0.384  0.189  0.116  0.096  0.096
 0.664  1.510  0.384  0.189  0.116  0.096  0.096
 0.666  1.510  0.382  0.188  0.117  0.097  0.097
 0.668  1.510  0.382  0.188  0.117  0.097  0.097
 0.670  1.508  0.381  0.187  0.117  0.097  0.097
 0.672  1.508  0.380  0.187  0.117  0.098  0.098
 0.674  1.508  0.380  0.187  0.117  0.098  0.098
 0.676  1.508  0.378  0.186  0.118  0.098  0.098
 0.678  1.508  0.378  0.186  0.118  0.098  0.098
 0.680  1.508  0.377  0.186  0.118  0.099  0.099
 0.682  1.508  0.375  0.185  0.118  0.099  0.099
 0.684  1.508  0.374  0.185  0.119  0.100  0.100
 0.686  1.508  0.374  0.185  0.119  0.100  0.100
 0.688  1.508  0.372  0.185  0.119  0.100  0.100
 0.690  1.508  0.371  0.184  0.119  0.101  0.101
 0.692  1.508  0.369  0.184  0.120  0.101  0.101
 0.694  1.508  0.368  0.184  0.120  0.101  0.101
 0.696  1.508  0.366  0.184  0.120  0.101  0.101
 0.698  1.508  0.365  0.184  0.121  0.102  0.102
 0.700  1.508  0.363  0.182  0.121  0.102  0.102
 0.702  1.508  0.363  0.182  0.121  0.102  0.102
 0.704  1.508  0.362  0.182  0.121  0.103  0.103
 0.706  1.508  0.360  0.182  0.122  0.103  0.103
 0.708  1.508  0.359  0.182  0.122  0.103  0.103
 0.710  1.510  0.357  0.182  0.122  0.103  0.103
 0.712  1.510  0.356  0.182  0.123  0.104  0.104
 0.714  1.510  0.354  0.181  0.123  0.104  0.104
 0.716  1.510  0.353  0.181  0.123  0.104  0.104
 0.718  1.510  0.351  0.181  0.124  0.105  0.105
 0.720  1.510  0.351  0.181  0.124  0.105  0.105
 0.722  1.510  0.350  0.181  0.124  0.106  0.106
 0.724  1.511  0.348  0.181  0.124  0.106  0.106
 0.726  1.511  0.348  0.181  0.124  0.106  0.106
 0.728  1.511  0.348  0.181  0.124  0.107  0.107
 0.730  1.511  0.347  0.181  0.125  0.107  0.107
 0.732  1.513  0.347  0.181  0.125  0.108  0.108
 0.734  1.513  0.347  0.181  0.125  0.109  0.109
 0.736  1.513  0.347  0.181  0.126  0.109  0.109
 0.738  1.514  0.348  0.181  0.126  0.110  0.110
 0.740  1.514  0.348  0.181  0.126  0.111  0.111
 0.742  1.514  0.348  0.180  0.126  0.112  0.112
 0.744  1.515  0.350  0.180  0.127  0.113  0.113
 0.746  1.515  0.351  0.180  0.127  0.114  0.114
 0.748  1.515  0.351  0.180  0.127  0.115  0.115
 0.750  1.517  0.353  0.180  0.128  0.116  0.116
 0.752  1.517  0.354  0.180  0.128  0.117  0.117
 0.754  1.517  0.356  0.180  0.128  0.118  0.118
 0.756  1.517  0.357  0.180  0.129  0.119  0.119
 0.758  1.518  0.360  0.180  0.129  0.120  0.120
 0.760  1.518  0.362  0.180  0.129  0.121  0.121
 0.762  1.520  0.363  0.180  0.130  0.123  0.123
 0.764  1.520  0.366  0.180  0.130  0.124  0.124
 0.766  1.521  0.368  0.180  0.130  0.126  0.126
 0.768  1.521  0.371  0.180  0.131  0.127  0.127
 0.770  1.522  0.374  0.180  0.131  0.129  0.129
 0.772  1.524  0.377  0.180  0.131  0.130  0.130
 0.774  1.525  0.380  0.180  0.131  0.132  0.132
 0.776  1.526  0.382  0.180  0.132  0.133  0.133
 0.778  1.529  0.387  0.180  0.132  0.135  0.135
 0.780  1.531  0.390  0.179  0.132  0.137  0.137
 0.782  1.533  0.393  0.179  0.132  0.139  0.139
 0.784  1.535  0.397  0.179  0.132  0.140  0.140
 0.786  1.538  0.400  0.180  0.133  0.143  0.143
 0.788  1.540  0.405  0.180  0.133  0.144  0.144
 0.790  1.543  0.408  0.180  0.134  0.146  0.146
 0.792  1.546  0.412  0.180  0.134  0.148  0.148
 0.794  1.549  0.415  0.181  0.135  0.150  0.150
 0.796  1.553  0.419  0.182  0.136  0.152  0.152
 0.798  1.556  0.422  0.182  0.137  0.154  0.154
 0.800  1.560  0.427  0.185  0.138  0.156  0.156
 0.802  1.564  0.430  0.186  0.140  0.158  0.158
 0.804  1.567  0.434  0.187  0.142  0.160  0.160
 0.806  1.571  0.437  0.189  0.143  0.162  0.162
 0.808  1.576  0.440  0.190  0.145  0.164  0.164
