# IsPeriodic    : True
# Period        : 0.505347 days
# Normalization : <g_mag>=0
# 
# Phase u_mag  g_mag  r_mag  i_mag  z_mag  y_mag
 0.000  0.409 -0.796 -0.697 -0.600 -0.524 -0.524
 0.002  0.409 -0.796 -0.697 -0.600 -0.524 -0.524
 0.004  0.410 -0.795 -0.696 -0.600 -0.523 -0.523
 0.006  0.411 -0.794 -0.695 -0.598 -0.522 -0.522
 0.008  0.412 -0.793 -0.693 -0.597 -0.522 -0.522
 0.010  0.414 -0.791 -0.692 -0.594 -0.520 -0.520
 0.012  0.416 -0.790 -0.690 -0.591 -0.519 -0.519
 0.014  0.419 -0.788 -0.689 -0.588 -0.518 -0.518
 0.016  0.422 -0.786 -0.686 -0.585 -0.516 -0.516
 0.018  0.425 -0.784 -0.684 -0.582 -0.514 -0.514
 0.020  0.429 -0.781 -0.681 -0.578 -0.512 -0.512
 0.022  0.432 -0.777 -0.679 -0.574 -0.510 -0.510
 0.024  0.436 -0.775 -0.676 -0.571 -0.508 -0.508
 0.026  0.440 -0.771 -0.673 -0.567 -0.507 -0.507
 0.028  0.443 -0.767 -0.669 -0.563 -0.504 -0.504
 0.030  0.447 -0.762 -0.666 -0.559 -0.502 -0.502
 0.032  0.452 -0.759 -0.663 -0.556 -0.500 -0.500
 0.034  0.455 -0.754 -0.660 -0.553 -0.498 -0.498
 0.036  0.459 -0.749 -0.657 -0.550 -0.496 -0.496
 0.038  0.464 -0.742 -0.653 -0.546 -0.493 -0.493
 0.040  0.468 -0.736 -0.649 -0.543 -0.491 -0.491
 0.042  0.473 -0.730 -0.645 -0.539 -0.489 -0.489
 0.044  0.477 -0.724 -0.641 -0.535 -0.486 -0.486
 0.046  0.481 -0.717 -0.637 -0.532 -0.484 -0.484
 0.048  0.486 -0.710 -0.633 -0.529 -0.481 -0.481
 0.050  0.490 -0.702 -0.629 -0.525 -0.479 -0.479
 0.052  0.495 -0.693 -0.624 -0.521 -0.475 -0.475
 0.054  0.500 -0.686 -0.619 -0.518 -0.473 -0.473
 0.056  0.505 -0.677 -0.614 -0.514 -0.469 -0.469
 0.058  0.510 -0.670 -0.609 -0.510 -0.467 -0.467
 0.060  0.515 -0.661 -0.603 -0.506 -0.463 -0.463
 0.062  0.520 -0.652 -0.599 -0.502 -0.460 -0.460
 0.064  0.526 -0.643 -0.593 -0.498 -0.457 -0.457
 0.066  0.531 -0.634 -0.587 -0.494 -0.454 -0.454
 0.068  0.537 -0.626 -0.581 -0.491 -0.450 -0.450
 0.070  0.542 -0.617 -0.575 -0.486 -0.447 -0.447
 0.072  0.548 -0.609 -0.570 -0.483 -0.443 -0.443
 0.074  0.553 -0.600 -0.564 -0.479 -0.440 -0.440
 0.076  0.560 -0.592 -0.558 -0.474 -0.436 -0.436
 0.078  0.565 -0.584 -0.552 -0.471 -0.432 -0.432
 0.080  0.571 -0.575 -0.546 -0.467 -0.429 -0.429
 0.082  0.577 -0.568 -0.540 -0.463 -0.426 -0.426
 0.084  0.583 -0.560 -0.534 -0.459 -0.422 -0.422
 0.086  0.589 -0.552 -0.528 -0.455 -0.418 -0.418
 0.088  0.595 -0.544 -0.522 -0.451 -0.415 -0.415
 0.090  0.602 -0.536 -0.517 -0.447 -0.412 -0.412
 0.092  0.607 -0.529 -0.512 -0.443 -0.408 -0.408
 0.094  0.614 -0.523 -0.507 -0.439 -0.405 -0.405
 0.096  0.619 -0.515 -0.501 -0.436 -0.402 -0.402
 0.098  0.626 -0.508 -0.496 -0.432 -0.399 -0.399
 0.100  0.631 -0.500 -0.491 -0.428 -0.396 -0.396
 0.102  0.638 -0.494 -0.487 -0.424 -0.393 -0.393
 0.104  0.643 -0.488 -0.482 -0.421 -0.390 -0.390
 0.106  0.650 -0.480 -0.477 -0.417 -0.387 -0.387
 0.108  0.656 -0.474 -0.472 -0.414 -0.384 -0.384
 0.110  0.661 -0.467 -0.467 -0.410 -0.381 -0.381
 0.112  0.667 -0.461 -0.462 -0.406 -0.378 -0.378
 0.114  0.672 -0.455 -0.458 -0.403 -0.375 -0.375
 0.116  0.678 -0.449 -0.454 -0.400 -0.373 -0.373
 0.118  0.683 -0.442 -0.449 -0.397 -0.370 -0.370
 0.120  0.689 -0.436 -0.445 -0.393 -0.367 -0.367
 0.122  0.694 -0.430 -0.441 -0.390 -0.365 -0.365
 0.124  0.699 -0.424 -0.436 -0.387 -0.362 -0.362
 0.126  0.704 -0.418 -0.432 -0.383 -0.359 -0.359
 0.128  0.710 -0.412 -0.429 -0.380 -0.357 -0.357
 0.130  0.714 -0.407 -0.425 -0.377 -0.355 -0.355
 0.132  0.719 -0.401 -0.422 -0.374 -0.352 -0.352
 0.134  0.725 -0.396 -0.418 -0.371 -0.350 -0.350
 0.136  0.729 -0.391 -0.414 -0.368 -0.348 -0.348
 0.138  0.735 -0.386 -0.411 -0.365 -0.346 -0.346
 0.140  0.739 -0.380 -0.407 -0.362 -0.344 -0.344
 0.142  0.744 -0.375 -0.404 -0.359 -0.342 -0.342
 0.144  0.749 -0.370 -0.402 -0.356 -0.340 -0.340
 0.146  0.754 -0.365 -0.398 -0.353 -0.338 -0.338
 0.148  0.758 -0.359 -0.395 -0.351 -0.336 -0.336
 0.150  0.762 -0.354 -0.392 -0.348 -0.334 -0.334
 0.152  0.767 -0.348 -0.388 -0.345 -0.332 -0.332
 0.154  0.771 -0.343 -0.385 -0.343 -0.330 -0.330
 0.156  0.776 -0.338 -0.382 -0.340 -0.328 -0.328
 0.158  0.780 -0.333 -0.379 -0.338 -0.326 -0.326
 0.160  0.785 -0.328 -0.375 -0.335 -0.324 -0.324
 0.162  0.789 -0.323 -0.373 -0.333 -0.322 -0.322
 0.164  0.793 -0.318 -0.370 -0.330 -0.320 -0.320
 0.166  0.798 -0.313 -0.367 -0.327 -0.318 -0.318
 0.168  0.802 -0.308 -0.363 -0.325 -0.316 -0.316
 0.170  0.807 -0.303 -0.360 -0.323 -0.314 -0.314
 0.172  0.811 -0.298 -0.357 -0.320 -0.312 -0.312
 0.174  0.815 -0.293 -0.354 -0.318 -0.310 -0.310
 0.176  0.820 -0.288 -0.350 -0.315 -0.308 -0.308
 0.178  0.824 -0.283 -0.347 -0.312 -0.306 -0.306
 0.180  0.829 -0.278 -0.345 -0.310 -0.304 -0.304
 0.182  0.834 -0.274 -0.341 -0.308 -0.302 -0.302
 0.184  0.839 -0.269 -0.338 -0.306 -0.300 -0.300
 0.186  0.843 -0.264 -0.335 -0.303 -0.298 -0.298
 0.188  0.847 -0.259 -0.331 -0.300 -0.296 -0.296
 0.190  0.852 -0.254 -0.328 -0.298 -0.294 -0.294
 0.192  0.857 -0.250 -0.325 -0.296 -0.293 -0.293
 0.194  0.862 -0.245 -0.321 -0.294 -0.291 -0.291
 0.196  0.866 -0.240 -0.318 -0.292 -0.289 -0.289
 0.198  0.872 -0.236 -0.315 -0.289 -0.287 -0.287
 0.200  0.876 -0.231 -0.312 -0.287 -0.285 -0.285
 0.202  0.881 -0.226 -0.309 -0.285 -0.283 -0.283
 0.204  0.886 -0.223 -0.305 -0.283 -0.281 -0.281
 0.206  0.890 -0.218 -0.302 -0.280 -0.279 -0.279
 0.208  0.896 -0.213 -0.299 -0.278 -0.277 -0.277
 0.210  0.900 -0.209 -0.295 -0.276 -0.275 -0.275
 0.212  0.906 -0.204 -0.292 -0.274 -0.273 -0.273
 0.214  0.911 -0.200 -0.288 -0.272 -0.271 -0.271
 0.216  0.916 -0.195 -0.286 -0.270 -0.269 -0.269
 0.218  0.921 -0.190 -0.283 -0.268 -0.267 -0.267
 0.220  0.926 -0.186 -0.279 -0.265 -0.265 -0.265
 0.222  0.931 -0.181 -0.276 -0.264 -0.263 -0.263
 0.224  0.937 -0.177 -0.272 -0.262 -0.261 -0.261
 0.226  0.941 -0.172 -0.269 -0.259 -0.259 -0.259
 0.228  0.946 -0.169 -0.266 -0.258 -0.257 -0.257
 0.230  0.952 -0.164 -0.263 -0.256 -0.255 -0.255
 0.232  0.958 -0.160 -0.260 -0.253 -0.253 -0.253
 0.234  0.962 -0.155 -0.257 -0.252 -0.251 -0.251
 0.236  0.967 -0.151 -0.254 -0.250 -0.249 -0.249
 0.238  0.973 -0.146 -0.251 -0.247 -0.248 -0.248
 0.240  0.977 -0.142 -0.248 -0.246 -0.246 -0.246
 0.242  0.983 -0.139 -0.244 -0.244 -0.244 -0.244
 0.244  0.987 -0.134 -0.241 -0.242 -0.242 -0.242
 0.246  0.993 -0.130 -0.238 -0.240 -0.240 -0.240
 0.248  0.997 -0.125 -0.235 -0.238 -0.239 -0.239
 0.250  1.003 -0.121 -0.232 -0.236 -0.237 -0.237
 0.252  1.007 -0.116 -0.230 -0.234 -0.235 -0.235
 0.254  1.012 -0.112 -0.227 -0.232 -0.234 -0.234
 0.256  1.016 -0.108 -0.224 -0.230 -0.232 -0.232
 0.258  1.020 -0.103 -0.221 -0.228 -0.230 -0.230
 0.260  1.025 -0.100 -0.218 -0.226 -0.228 -0.228
 0.262  1.029 -0.096 -0.215 -0.224 -0.226 -0.226
 0.264  1.034 -0.091 -0.212 -0.222 -0.225 -0.225
 0.266  1.038 -0.087 -0.209 -0.220 -0.223 -0.223
 0.268  1.042 -0.083 -0.207 -0.218 -0.222 -0.222
 0.270  1.047 -0.078 -0.204 -0.216 -0.220 -0.220
 0.272  1.051 -0.075 -0.202 -0.215 -0.218 -0.218
 0.274  1.056 -0.071 -0.199 -0.212 -0.216 -0.216
 0.276  1.060 -0.067 -0.197 -0.211 -0.215 -0.215
 0.278  1.063 -0.062 -0.194 -0.209 -0.213 -0.213
 0.280  1.068 -0.058 -0.191 -0.206 -0.212 -0.212
 0.282  1.072 -0.054 -0.188 -0.205 -0.210 -0.210
 0.284  1.075 -0.051 -0.186 -0.203 -0.208 -0.208
 0.286  1.080 -0.046 -0.183 -0.201 -0.207 -0.207
 0.288  1.083 -0.042 -0.180 -0.199 -0.205 -0.205
 0.290  1.088 -0.038 -0.178 -0.197 -0.204 -0.204
 0.292  1.091 -0.034 -0.175 -0.195 -0.202 -0.202
 0.294  1.094 -0.031 -0.174 -0.194 -0.200 -0.200
 0.296  1.097 -0.027 -0.171 -0.192 -0.199 -0.199
 0.298  1.102 -0.023 -0.168 -0.189 -0.197 -0.197
 0.300  1.105 -0.018 -0.166 -0.188 -0.196 -0.196
 0.302  1.108 -0.014 -0.163 -0.186 -0.195 -0.195
 0.304  1.112 -0.011 -0.161 -0.184 -0.193 -0.193
 0.306  1.115 -0.007 -0.158 -0.182 -0.191 -0.191
 0.308  1.118 -0.003 -0.155 -0.180 -0.190 -0.190
 0.310  1.122  0.001 -0.153 -0.178 -0.188 -0.188
 0.312  1.126  0.005 -0.150 -0.177 -0.187 -0.187
 0.314  1.129  0.008 -0.148 -0.174 -0.185 -0.185
 0.316  1.133  0.012 -0.145 -0.172 -0.183 -0.183
 0.318  1.136  0.016 -0.143 -0.171 -0.182 -0.182
 0.320  1.139  0.018 -0.141 -0.168 -0.181 -0.181
 0.322  1.143  0.022 -0.138 -0.167 -0.179 -0.179
 0.324  1.146  0.026 -0.136 -0.165 -0.177 -0.177
 0.326  1.149  0.030 -0.133 -0.162 -0.176 -0.176
 0.328  1.153  0.033 -0.130 -0.161 -0.174 -0.174
 0.330  1.157  0.037 -0.128 -0.159 -0.173 -0.173
 0.332  1.160  0.041 -0.125 -0.157 -0.171 -0.171
 0.334  1.164  0.043 -0.123 -0.155 -0.170 -0.170
 0.336  1.167  0.047 -0.120 -0.153 -0.168 -0.168
 0.338  1.170  0.051 -0.117 -0.151 -0.167 -0.167
 0.340  1.174  0.055 -0.116 -0.149 -0.165 -0.165
 0.342  1.177  0.057 -0.113 -0.148 -0.163 -0.163
 0.344  1.180  0.061 -0.111 -0.145 -0.162 -0.162
 0.346  1.185  0.065 -0.108 -0.143 -0.161 -0.161
 0.348  1.188  0.069 -0.105 -0.142 -0.159 -0.159
 0.350  1.191  0.071 -0.103 -0.139 -0.157 -0.157
 0.352  1.194  0.075 -0.100 -0.137 -0.156 -0.156
 0.354  1.198  0.079 -0.098 -0.136 -0.154 -0.154
 0.356  1.201  0.082 -0.095 -0.133 -0.153 -0.153
 0.358  1.204  0.085 -0.092 -0.131 -0.151 -0.151
 0.360  1.208  0.089 -0.090 -0.130 -0.150 -0.150
 0.362  1.211  0.092 -0.088 -0.127 -0.148 -0.148
 0.364  1.215  0.096 -0.086 -0.125 -0.147 -0.147
 0.366  1.219  0.099 -0.083 -0.123 -0.146 -0.146
 0.368  1.222  0.102 -0.080 -0.121 -0.144 -0.144
 0.370  1.225  0.106 -0.078 -0.119 -0.142 -0.142
 0.372  1.229  0.110 -0.075 -0.117 -0.141 -0.141
 0.374  1.232  0.112 -0.073 -0.115 -0.139 -0.139
 0.376  1.235  0.116 -0.070 -0.113 -0.138 -0.138
 0.378  1.239  0.120 -0.067 -0.111 -0.136 -0.136
 0.380  1.242  0.124 -0.065 -0.109 -0.134 -0.134
 0.382  1.245  0.128 -0.062 -0.107 -0.133 -0.133
 0.384  1.250  0.131 -0.060 -0.106 -0.131 -0.131
 0.386  1.253  0.134 -0.058 -0.103 -0.130 -0.130
 0.388  1.256  0.138 -0.056 -0.101 -0.128 -0.128
 0.390  1.259  0.141 -0.053 -0.100 -0.126 -0.126
 0.392  1.263  0.145 -0.050 -0.098 -0.124 -0.124
 0.394  1.265  0.149 -0.048 -0.096 -0.123 -0.123
 0.396  1.268  0.153 -0.045 -0.094 -0.121 -0.121
 0.398  1.272  0.156 -0.043 -0.092 -0.120 -0.120
 0.400  1.275  0.160 -0.040 -0.090 -0.118 -0.118
 0.402  1.278  0.163 -0.038 -0.088 -0.116 -0.116
 0.404  1.282  0.166 -0.035 -0.086 -0.114 -0.114
 0.406  1.285  0.170 -0.033 -0.084 -0.113 -0.113
 0.408  1.288  0.174 -0.031 -0.083 -0.111 -0.111
 0.410  1.291  0.178 -0.029 -0.080 -0.109 -0.109
 0.412  1.294  0.182 -0.026 -0.079 -0.108 -0.108
 0.414  1.297  0.185 -0.024 -0.077 -0.106 -0.106
 0.416  1.300  0.189 -0.021 -0.075 -0.104 -0.104
 0.418  1.304  0.193 -0.019 -0.073 -0.102 -0.102
 0.420  1.306  0.197 -0.016 -0.071 -0.100 -0.100
 0.422  1.309  0.199 -0.014 -0.070 -0.099 -0.099
 0.424  1.312  0.203 -0.011 -0.068 -0.097 -0.097
 0.426  1.316  0.207 -0.009 -0.066 -0.095 -0.095
 0.428  1.318  0.210 -0.006 -0.064 -0.094 -0.094
 0.430  1.321  0.213 -0.004 -0.062 -0.092 -0.092
 0.432  1.324  0.217 -0.002 -0.061 -0.090 -0.090
 0.434  1.327  0.219  0.000 -0.059 -0.089 -0.089
 0.436  1.330  0.223  0.003 -0.057 -0.087 -0.087
 0.438  1.332  0.225  0.005 -0.055 -0.085 -0.085
 0.440  1.336  0.228  0.008 -0.053 -0.083 -0.083
 0.442  1.339  0.232  0.010 -0.052 -0.081 -0.081
 0.444  1.341  0.234  0.012 -0.050 -0.079 -0.079
 0.446  1.344  0.237  0.015 -0.048 -0.078 -0.078
 0.448  1.347  0.239  0.017 -0.047 -0.076 -0.076
 0.450  1.349  0.242  0.020 -0.045 -0.075 -0.075
 0.452  1.352  0.244  0.022 -0.043 -0.073 -0.073
 0.454  1.354  0.247  0.024 -0.042 -0.071 -0.071
 0.456  1.356  0.249  0.026 -0.039 -0.069 -0.069
 0.458  1.360  0.252  0.028 -0.038 -0.068 -0.068
 0.460  1.362  0.254  0.030 -0.036 -0.066 -0.066
 0.462  1.364  0.256  0.032 -0.034 -0.065 -0.065
 0.464  1.366  0.258  0.034 -0.033 -0.063 -0.063
 0.466  1.369  0.261  0.036 -0.031 -0.061 -0.061
 0.468  1.371  0.262  0.039 -0.030 -0.060 -0.060
 0.470  1.373  0.264  0.041 -0.027 -0.059 -0.059
 0.472  1.375  0.266  0.043 -0.026 -0.057 -0.057
 0.474  1.377  0.267  0.045 -0.024 -0.055 -0.055
 0.476  1.380  0.269  0.047 -0.022 -0.054 -0.054
 0.478  1.382  0.271  0.049 -0.021 -0.053 -0.053
 0.480  1.384  0.272  0.051 -0.019 -0.051 -0.051
 0.482  1.385  0.273  0.053 -0.018 -0.049 -0.049
 0.484  1.387  0.274  0.055 -0.015 -0.048 -0.048
 0.486  1.390  0.276  0.056 -0.014 -0.047 -0.047
 0.488  1.391  0.277  0.058 -0.012 -0.045 -0.045
 0.490  1.393  0.278  0.060 -0.010 -0.044 -0.044
 0.492  1.394  0.279  0.062 -0.009 -0.043 -0.043
 0.494  1.395  0.281  0.064 -0.007 -0.042 -0.042
 0.496  1.397  0.282  0.066 -0.006 -0.040 -0.040
 0.498  1.398  0.283  0.068 -0.004 -0.039 -0.039
 0.500  1.399  0.284  0.069 -0.002 -0.038 -0.038
 0.502  1.402  0.286  0.071 -0.001 -0.036 -0.036
 0.504  1.403  0.287  0.073  0.002 -0.035 -0.035
 0.506  1.404  0.288  0.075  0.003 -0.034 -0.034
 0.508  1.405  0.288  0.076  0.005 -0.032 -0.032
 0.510  1.406  0.289  0.078  0.006 -0.032 -0.032
 0.512  1.407  0.291  0.080  0.008 -0.030 -0.030
 0.514  1.408  0.292  0.081  0.009 -0.029 -0.029
 0.516  1.409  0.293  0.083  0.011 -0.028 -0.028
 0.518  1.410  0.294  0.084  0.013 -0.026 -0.026
 0.520  1.412  0.296  0.085  0.014 -0.026 -0.026
 0.522  1.413  0.296  0.087  0.016 -0.024 -0.024
 0.524  1.414  0.297  0.088  0.017 -0.023 -0.023
 0.526  1.415  0.298  0.090  0.018 -0.022 -0.022
 0.528  1.415  0.300  0.091  0.020 -0.021 -0.021
 0.530  1.416  0.301  0.092  0.021 -0.020 -0.020
 0.532  1.417  0.301  0.094  0.023 -0.019 -0.019
 0.534  1.418  0.302  0.095  0.023 -0.018 -0.018
 0.536  1.419  0.303  0.096  0.025 -0.017 -0.017
 0.538  1.420  0.305  0.097  0.026 -0.016 -0.016
 0.540  1.421  0.306  0.099  0.026 -0.015 -0.015
 0.542  1.421  0.306  0.100  0.028 -0.014 -0.014
 0.544  1.423  0.307  0.101  0.029 -0.013 -0.013
 0.546  1.424  0.308  0.102  0.029 -0.012 -0.012
 0.548  1.425  0.310  0.103  0.031 -0.011 -0.011
 0.550  1.426  0.310  0.104  0.032 -0.010 -0.010
 0.552  1.426  0.311  0.105  0.032 -0.009 -0.009
 0.554  1.427  0.312  0.106  0.033 -0.008 -0.008
 0.556  1.428  0.312  0.107  0.034 -0.008 -0.008
 0.558  1.429  0.313  0.108  0.035 -0.007 -0.007
 0.560  1.429  0.315  0.109  0.035 -0.006 -0.006
 0.562  1.430  0.316  0.110  0.035 -0.005 -0.005
 0.564  1.431  0.316  0.110  0.036 -0.004 -0.004
 0.566  1.432  0.317  0.111  0.037 -0.004 -0.004
 0.568  1.432  0.317  0.112  0.038 -0.003 -0.003
 0.570  1.434  0.318  0.112  0.038 -0.002 -0.002
 0.572  1.435  0.320  0.112  0.038 -0.001 -0.001
 0.574  1.436  0.320  0.113  0.038 -0.000 -0.000
 0.576  1.436  0.321  0.114  0.038  0.000  0.000
 0.578  1.437  0.321  0.114  0.039  0.001  0.001
 0.580  1.438  0.321  0.115  0.039  0.002  0.002
 0.582  1.438  0.322  0.115  0.039  0.002  0.002
 0.584  1.439  0.322  0.116  0.040  0.003  0.003
 0.586  1.440  0.323  0.116  0.040  0.004  0.004
 0.588  1.440  0.323  0.117  0.040  0.004  0.004
 0.590  1.441  0.323  0.117  0.040  0.005  0.005
 0.592  1.442  0.325  0.118  0.041  0.006  0.006
 0.594  1.442  0.325  0.118  0.041  0.006  0.006
 0.596  1.444  0.325  0.118  0.041  0.006  0.006
 0.598  1.445  0.325  0.119  0.041  0.007  0.007
 0.600  1.445  0.325  0.119  0.041  0.008  0.008
 0.602  1.446  0.326  0.119  0.041  0.008  0.008
 0.604  1.446  0.326  0.120  0.042  0.009  0.009
 0.606  1.447  0.326  0.120  0.042  0.009  0.009
 0.608  1.447  0.326  0.120  0.042  0.009  0.009
 0.610  1.448  0.326  0.120  0.042  0.010  0.010
 0.612  1.448  0.326  0.121  0.043  0.011  0.011
 0.614  1.449  0.326  0.121  0.043  0.011  0.011
 0.616  1.449  0.326  0.121  0.044  0.011  0.011
 0.618  1.450  0.326  0.121  0.044  0.012  0.012
 0.620  1.450  0.326  0.121  0.044  0.013  0.013
 0.622  1.450  0.326  0.121  0.044  0.013  0.013
 0.624  1.451  0.325  0.121  0.044  0.013  0.013
 0.626  1.451  0.325  0.122  0.044  0.014  0.014
 0.628  1.451  0.325  0.122  0.045  0.014  0.014
 0.630  1.452  0.325  0.122  0.045  0.015  0.015
 0.632  1.452  0.325  0.122  0.046  0.015  0.015
 0.634  1.452  0.323  0.122  0.046  0.015  0.015
 0.636  1.452  0.323  0.121  0.046  0.016  0.016
 0.638  1.453  0.323  0.121  0.046  0.016  0.016
 0.640  1.453  0.323  0.121  0.046  0.017  0.017
 0.642  1.453  0.322  0.121  0.047  0.017  0.017
 0.644  1.453  0.322  0.121  0.047  0.017  0.017
 0.646  1.455  0.322  0.121  0.048  0.017  0.017
 0.648  1.455  0.321  0.121  0.048  0.018  0.018
 0.650  1.455  0.321  0.121  0.049  0.018  0.018
 0.652  1.455  0.320  0.120  0.049  0.019  0.019
 0.654  1.455  0.320  0.120  0.049  0.019  0.019
 0.656  1.455  0.320  0.120  0.049  0.019  0.019
 0.658  1.455  0.318  0.120  0.050  0.019  0.019
 0.660  1.455  0.318  0.120  0.050  0.019  0.019
 0.662  1.455  0.317  0.119  0.050  0.020  0.020
 0.664  1.456  0.317  0.119  0.051  0.020  0.020
 0.666  1.456  0.317  0.119  0.051  0.021  0.021
 0.668  1.456  0.316  0.119  0.051  0.021  0.021
 0.670  1.456  0.316  0.118  0.052  0.021  0.021
 0.672  1.456  0.315  0.118  0.052  0.021  0.021
 0.674  1.457  0.315  0.118  0.052  0.021  0.021
 0.676  1.457  0.313  0.117  0.052  0.022  0.022
 0.678  1.458  0.313  0.117  0.052  0.022  0.022
 0.680  1.458  0.312  0.117  0.052  0.023  0.023
 0.682  1.459  0.312  0.116  0.052  0.023  0.023
 0.684  1.459  0.311  0.116  0.052  0.023  0.023
 0.686  1.460  0.311  0.116  0.052  0.023  0.023
 0.688  1.460  0.310  0.115  0.052  0.023  0.023
 0.690  1.461  0.308  0.115  0.052  0.024  0.024
 0.692  1.462  0.308  0.115  0.052  0.024  0.024
 0.694  1.462  0.307  0.114  0.051  0.025  0.025
 0.696  1.463  0.306  0.114  0.051  0.025  0.025
 0.698  1.464  0.306  0.113  0.051  0.025  0.025
 0.700  1.466  0.305  0.113  0.051  0.025  0.025
 0.702  1.466  0.303  0.113  0.051  0.025  0.025
 0.704  1.467  0.303  0.112  0.050  0.026  0.026
 0.706  1.468  0.302  0.112  0.050  0.026  0.026
 0.708  1.469  0.302  0.112  0.049  0.027  0.027
 0.710  1.470  0.301  0.112  0.049  0.027  0.027
 0.712  1.471  0.301  0.111  0.049  0.027  0.027
 0.714  1.473  0.301  0.111  0.049  0.027  0.027
 0.716  1.474  0.301  0.110  0.048  0.027  0.027
 0.718  1.475  0.301  0.110  0.047  0.028  0.028
 0.720  1.477  0.301  0.110  0.046  0.028  0.028
 0.722  1.479  0.301  0.109  0.046  0.029  0.029
 0.724  1.480  0.302  0.109  0.046  0.029  0.029
 0.726  1.481  0.302  0.109  0.046  0.029  0.029
 0.728  1.483  0.303  0.109  0.045  0.030  0.030
 0.730  1.484  0.303  0.109  0.045  0.030  0.030
 0.732  1.485  0.305  0.109  0.045  0.031  0.031
 0.734  1.488  0.306  0.109  0.045  0.031  0.031
 0.736  1.489  0.307  0.109  0.045  0.032  0.032
 0.738  1.490  0.308  0.110  0.045  0.033  0.033
 0.740  1.491  0.310  0.110  0.045  0.033  0.033
 0.742  1.493  0.311  0.111  0.046  0.034  0.034
 0.744  1.494  0.312  0.112  0.046  0.035  0.035
 0.746  1.495  0.315  0.112  0.046  0.036  0.036
 0.748  1.496  0.316  0.112  0.047  0.037  0.037
 0.750  1.498  0.318  0.113  0.048  0.038  0.038
 0.752  1.499  0.321  0.114  0.049  0.039  0.039
 0.754  1.500  0.323  0.115  0.050  0.040  0.040
 0.756  1.501  0.325  0.116  0.052  0.041  0.041
 0.758  1.502  0.328  0.118  0.052  0.042  0.042
 0.760  1.503  0.331  0.119  0.054  0.043  0.043
 0.762  1.504  0.333  0.120  0.055  0.044  0.044
 0.764  1.504  0.336  0.122  0.058  0.045  0.045
 0.766  1.505  0.340  0.123  0.059  0.047  0.047
 0.768  1.506  0.342  0.125  0.061  0.048  0.048
 0.770  1.506  0.346  0.127  0.063  0.049  0.049
 0.772  1.507  0.348  0.129  0.065  0.051  0.051
 0.774  1.507  0.352  0.131  0.067  0.052  0.052
 0.776  1.507  0.356  0.133  0.070  0.053  0.053
 0.778  1.509  0.359  0.135  0.073  0.055  0.055
 0.780  1.509  0.362  0.137  0.075  0.057  0.057
 0.782  1.509  0.366  0.139  0.078  0.059  0.059
 0.784  1.510  0.369  0.141  0.081  0.060  0.060
 0.786  1.510  0.372  0.143  0.084  0.062  0.062
 0.788  1.510  0.376  0.146  0.087  0.063  0.063
 0.790  1.510  0.380  0.148  0.090  0.065  0.065
 0.792  1.511  0.382  0.151  0.093  0.066  0.066
 0.794  1.511  0.386  0.153  0.096  0.068  0.068
 0.796  1.511  0.390  0.156  0.099  0.070  0.070
 0.798  1.511  0.392  0.159  0.102  0.072  0.072
 0.800  1.511  0.396  0.162  0.106  0.074  0.074
 0.802  1.510  0.399  0.164  0.109  0.076  0.076
 0.804  1.510  0.402  0.167  0.112  0.078  0.078
 0.806  1.509  0.405  0.169  0.115  0.079  0.079
 0.808  1.506  0.409  0.172  0.118  0.081  0.081
