# IsPeriodic    : True
# Period        : 0.532962 days
# Normalization : <g_mag>=0
# 
# Phase u_mag  g_mag  r_mag  i_mag  z_mag  y_mag
 0.000  0.327 -0.648 -0.531 -0.491 -0.502 -0.502
 0.002  0.328 -0.648 -0.531 -0.491 -0.502 -0.502
 0.004  0.329 -0.647 -0.531 -0.491 -0.502 -0.502
 0.006  0.330 -0.646 -0.530 -0.490 -0.501 -0.501
 0.008  0.333 -0.644 -0.530 -0.490 -0.500 -0.500
 0.010  0.336 -0.642 -0.529 -0.490 -0.499 -0.499
 0.012  0.338 -0.639 -0.529 -0.489 -0.497 -0.497
 0.014  0.342 -0.635 -0.528 -0.489 -0.496 -0.496
 0.016  0.345 -0.632 -0.527 -0.488 -0.495 -0.495
 0.018  0.350 -0.629 -0.526 -0.487 -0.494 -0.494
 0.020  0.353 -0.625 -0.524 -0.486 -0.492 -0.492
 0.022  0.358 -0.621 -0.524 -0.485 -0.490 -0.490
 0.024  0.362 -0.617 -0.522 -0.484 -0.488 -0.488
 0.026  0.367 -0.613 -0.521 -0.483 -0.487 -0.487
 0.028  0.372 -0.609 -0.519 -0.482 -0.485 -0.485
 0.030  0.376 -0.604 -0.517 -0.480 -0.483 -0.483
 0.032  0.380 -0.600 -0.515 -0.479 -0.482 -0.482
 0.034  0.384 -0.596 -0.513 -0.477 -0.480 -0.480
 0.036  0.390 -0.591 -0.511 -0.475 -0.478 -0.478
 0.038  0.394 -0.587 -0.509 -0.473 -0.476 -0.476
 0.040  0.399 -0.582 -0.507 -0.472 -0.475 -0.475
 0.042  0.404 -0.578 -0.504 -0.470 -0.473 -0.473
 0.044  0.409 -0.572 -0.501 -0.468 -0.471 -0.471
 0.046  0.414 -0.568 -0.498 -0.466 -0.469 -0.469
 0.048  0.420 -0.563 -0.495 -0.464 -0.467 -0.467
 0.050  0.425 -0.558 -0.492 -0.462 -0.465 -0.465
 0.052  0.431 -0.553 -0.489 -0.459 -0.463 -0.463
 0.054  0.437 -0.549 -0.485 -0.457 -0.460 -0.460
 0.056  0.442 -0.544 -0.482 -0.455 -0.458 -0.458
 0.058  0.449 -0.539 -0.478 -0.453 -0.456 -0.456
 0.060  0.455 -0.534 -0.475 -0.451 -0.453 -0.453
 0.062  0.462 -0.529 -0.471 -0.449 -0.451 -0.451
 0.064  0.469 -0.523 -0.467 -0.446 -0.448 -0.448
 0.066  0.475 -0.518 -0.464 -0.444 -0.446 -0.446
 0.068  0.481 -0.513 -0.460 -0.442 -0.443 -0.443
 0.070  0.489 -0.507 -0.457 -0.440 -0.441 -0.441
 0.072  0.496 -0.501 -0.453 -0.438 -0.438 -0.438
 0.074  0.503 -0.496 -0.449 -0.436 -0.435 -0.435
 0.076  0.510 -0.490 -0.446 -0.434 -0.433 -0.433
 0.078  0.517 -0.485 -0.442 -0.433 -0.430 -0.430
 0.080  0.525 -0.479 -0.439 -0.430 -0.427 -0.427
 0.082  0.532 -0.474 -0.436 -0.428 -0.425 -0.425
 0.084  0.539 -0.468 -0.432 -0.427 -0.422 -0.422
 0.086  0.545 -0.462 -0.430 -0.425 -0.420 -0.420
 0.088  0.552 -0.456 -0.426 -0.423 -0.417 -0.417
 0.090  0.559 -0.451 -0.423 -0.421 -0.415 -0.415
 0.092  0.566 -0.444 -0.420 -0.420 -0.412 -0.412
 0.094  0.573 -0.438 -0.418 -0.418 -0.410 -0.410
 0.096  0.580 -0.433 -0.414 -0.416 -0.408 -0.408
 0.098  0.586 -0.427 -0.411 -0.414 -0.405 -0.405
 0.100  0.592 -0.421 -0.409 -0.412 -0.403 -0.403
 0.102  0.598 -0.416 -0.406 -0.411 -0.401 -0.401
 0.104  0.605 -0.410 -0.403 -0.409 -0.398 -0.398
 0.106  0.611 -0.405 -0.401 -0.407 -0.396 -0.396
 0.108  0.616 -0.399 -0.399 -0.406 -0.394 -0.394
 0.110  0.623 -0.394 -0.396 -0.404 -0.392 -0.392
 0.112  0.629 -0.389 -0.394 -0.402 -0.390 -0.390
 0.114  0.635 -0.384 -0.391 -0.401 -0.388 -0.388
 0.116  0.640 -0.378 -0.389 -0.399 -0.386 -0.386
 0.118  0.645 -0.373 -0.387 -0.398 -0.384 -0.384
 0.120  0.651 -0.368 -0.384 -0.396 -0.382 -0.382
 0.122  0.656 -0.363 -0.382 -0.395 -0.380 -0.380
 0.124  0.661 -0.358 -0.380 -0.394 -0.378 -0.378
 0.126  0.667 -0.353 -0.378 -0.392 -0.376 -0.376
 0.128  0.671 -0.348 -0.376 -0.390 -0.375 -0.375
 0.130  0.677 -0.344 -0.374 -0.389 -0.373 -0.373
 0.132  0.682 -0.339 -0.372 -0.387 -0.371 -0.371
 0.134  0.686 -0.334 -0.370 -0.385 -0.370 -0.370
 0.136  0.691 -0.330 -0.368 -0.383 -0.368 -0.368
 0.138  0.695 -0.325 -0.367 -0.382 -0.366 -0.366
 0.140  0.700 -0.321 -0.365 -0.381 -0.365 -0.365
 0.142  0.705 -0.316 -0.362 -0.379 -0.363 -0.363
 0.144  0.708 -0.311 -0.361 -0.377 -0.361 -0.361
 0.146  0.713 -0.307 -0.359 -0.375 -0.360 -0.360
 0.148  0.717 -0.303 -0.357 -0.374 -0.359 -0.359
 0.150  0.721 -0.299 -0.355 -0.372 -0.357 -0.357
 0.152  0.725 -0.295 -0.353 -0.370 -0.356 -0.356
 0.154  0.730 -0.291 -0.351 -0.369 -0.354 -0.354
 0.156  0.733 -0.287 -0.349 -0.367 -0.353 -0.353
 0.158  0.738 -0.283 -0.347 -0.365 -0.352 -0.352
 0.160  0.741 -0.279 -0.345 -0.363 -0.350 -0.350
 0.162  0.746 -0.276 -0.343 -0.362 -0.349 -0.349
 0.164  0.749 -0.272 -0.341 -0.360 -0.347 -0.347
 0.166  0.754 -0.268 -0.338 -0.358 -0.346 -0.346
 0.168  0.757 -0.264 -0.336 -0.356 -0.345 -0.345
 0.170  0.762 -0.260 -0.334 -0.355 -0.343 -0.343
 0.172  0.765 -0.256 -0.332 -0.353 -0.342 -0.342
 0.174  0.770 -0.251 -0.330 -0.351 -0.340 -0.340
 0.176  0.774 -0.247 -0.328 -0.349 -0.339 -0.339
 0.178  0.778 -0.243 -0.326 -0.347 -0.338 -0.338
 0.180  0.782 -0.239 -0.324 -0.345 -0.336 -0.336
 0.182  0.787 -0.235 -0.321 -0.343 -0.335 -0.335
 0.184  0.790 -0.231 -0.319 -0.342 -0.333 -0.333
 0.186  0.795 -0.227 -0.317 -0.339 -0.332 -0.332
 0.188  0.800 -0.223 -0.314 -0.337 -0.331 -0.331
 0.190  0.803 -0.219 -0.312 -0.336 -0.329 -0.329
 0.192  0.808 -0.215 -0.309 -0.334 -0.328 -0.328
 0.194  0.812 -0.211 -0.307 -0.331 -0.326 -0.326
 0.196  0.816 -0.206 -0.305 -0.330 -0.325 -0.325
 0.198  0.820 -0.202 -0.302 -0.328 -0.323 -0.323
 0.200  0.825 -0.198 -0.300 -0.326 -0.322 -0.322
 0.202  0.828 -0.193 -0.298 -0.324 -0.321 -0.321
 0.204  0.833 -0.188 -0.295 -0.322 -0.319 -0.319
 0.206  0.837 -0.184 -0.293 -0.320 -0.317 -0.317
 0.208  0.842 -0.179 -0.290 -0.318 -0.316 -0.316
 0.210  0.845 -0.175 -0.288 -0.317 -0.315 -0.315
 0.212  0.850 -0.170 -0.286 -0.315 -0.314 -0.314
 0.214  0.854 -0.166 -0.283 -0.313 -0.312 -0.312
 0.216  0.859 -0.161 -0.281 -0.311 -0.310 -0.310
 0.218  0.864 -0.157 -0.278 -0.310 -0.309 -0.309
 0.220  0.867 -0.152 -0.276 -0.308 -0.308 -0.308
 0.222  0.872 -0.147 -0.274 -0.307 -0.307 -0.307
 0.224  0.876 -0.143 -0.271 -0.305 -0.305 -0.305
 0.226  0.881 -0.138 -0.269 -0.303 -0.303 -0.303
 0.228  0.884 -0.133 -0.266 -0.302 -0.302 -0.302
 0.230  0.889 -0.129 -0.264 -0.300 -0.301 -0.301
 0.232  0.893 -0.123 -0.262 -0.298 -0.300 -0.300
 0.234  0.898 -0.118 -0.259 -0.297 -0.298 -0.298
 0.236  0.901 -0.113 -0.257 -0.295 -0.297 -0.297
 0.238  0.906 -0.109 -0.255 -0.294 -0.295 -0.295
 0.240  0.911 -0.104 -0.252 -0.292 -0.294 -0.294
 0.242  0.914 -0.099 -0.250 -0.291 -0.292 -0.292
 0.244  0.919 -0.095 -0.248 -0.289 -0.291 -0.291
 0.246  0.922 -0.090 -0.245 -0.288 -0.290 -0.290
 0.248  0.927 -0.086 -0.243 -0.287 -0.288 -0.288
 0.250  0.931 -0.081 -0.241 -0.285 -0.287 -0.287
 0.252  0.935 -0.077 -0.239 -0.284 -0.285 -0.285
 0.254  0.939 -0.073 -0.236 -0.282 -0.284 -0.284
 0.256  0.943 -0.068 -0.234 -0.281 -0.283 -0.283
 0.258  0.947 -0.064 -0.232 -0.279 -0.282 -0.282
 0.260  0.951 -0.059 -0.229 -0.278 -0.280 -0.280
 0.262  0.954 -0.055 -0.227 -0.276 -0.279 -0.279
 0.264  0.959 -0.051 -0.225 -0.275 -0.277 -0.277
 0.266  0.962 -0.047 -0.222 -0.274 -0.276 -0.276
 0.268  0.967 -0.043 -0.220 -0.272 -0.275 -0.275
 0.270  0.970 -0.039 -0.218 -0.271 -0.273 -0.273
 0.272  0.974 -0.035 -0.215 -0.269 -0.272 -0.272
 0.274  0.978 -0.031 -0.213 -0.268 -0.271 -0.271
 0.276  0.982 -0.027 -0.210 -0.266 -0.270 -0.270
 0.278  0.985 -0.024 -0.208 -0.265 -0.268 -0.268
 0.280  0.990 -0.020 -0.206 -0.263 -0.267 -0.267
 0.282  0.993 -0.016 -0.203 -0.262 -0.265 -0.265
 0.284  0.996 -0.012 -0.201 -0.260 -0.264 -0.264
 0.286  1.000 -0.009 -0.198 -0.258 -0.263 -0.263
 0.288  1.004 -0.005 -0.196 -0.256 -0.261 -0.261
 0.290  1.008 -0.002 -0.194 -0.255 -0.260 -0.260
 0.292  1.011  0.002 -0.191 -0.253 -0.259 -0.259
 0.294  1.015  0.006 -0.189 -0.250 -0.258 -0.258
 0.296  1.018  0.009 -0.186 -0.249 -0.256 -0.256
 0.298  1.022  0.012 -0.184 -0.247 -0.255 -0.255
 0.300  1.026  0.016 -0.181 -0.245 -0.253 -0.253
 0.302  1.030  0.019 -0.179 -0.243 -0.252 -0.252
 0.304  1.033  0.022 -0.176 -0.240 -0.251 -0.251
 0.306  1.036  0.025 -0.173 -0.239 -0.250 -0.250
 0.308  1.040  0.028 -0.170 -0.236 -0.248 -0.248
 0.310  1.043  0.032 -0.167 -0.234 -0.247 -0.247
 0.312  1.047  0.035 -0.165 -0.232 -0.246 -0.246
 0.314  1.050  0.038 -0.162 -0.230 -0.244 -0.244
 0.316  1.054  0.041 -0.160 -0.227 -0.243 -0.243
 0.318  1.056  0.044 -0.157 -0.225 -0.241 -0.241
 0.320  1.059  0.047 -0.154 -0.223 -0.240 -0.240
 0.322  1.063  0.051 -0.151 -0.220 -0.239 -0.239
 0.324  1.066  0.054 -0.148 -0.218 -0.238 -0.238
 0.326  1.070  0.057 -0.145 -0.215 -0.236 -0.236
 0.328  1.073  0.060 -0.142 -0.213 -0.235 -0.235
 0.330  1.075  0.063 -0.139 -0.210 -0.234 -0.234
 0.332  1.079  0.068 -0.136 -0.208 -0.233 -0.233
 0.334  1.082  0.071 -0.133 -0.205 -0.231 -0.231
 0.336  1.086  0.074 -0.130 -0.203 -0.230 -0.230
 0.338  1.088  0.077 -0.127 -0.200 -0.229 -0.229
 0.340  1.091  0.080 -0.124 -0.197 -0.227 -0.227
 0.342  1.095  0.084 -0.121 -0.195 -0.226 -0.226
 0.344  1.097  0.087 -0.117 -0.193 -0.225 -0.225
 0.346  1.101  0.090 -0.114 -0.190 -0.223 -0.223
 0.348  1.104  0.094 -0.111 -0.187 -0.222 -0.222
 0.350  1.106  0.097 -0.108 -0.185 -0.221 -0.221
 0.352  1.110  0.100 -0.105 -0.182 -0.220 -0.220
 0.354  1.112  0.103 -0.102 -0.181 -0.218 -0.218
 0.356  1.115  0.107 -0.099 -0.178 -0.217 -0.217
 0.358  1.118  0.110 -0.096 -0.176 -0.216 -0.216
 0.360  1.121  0.113 -0.093 -0.174 -0.214 -0.214
 0.362  1.123  0.117 -0.090 -0.172 -0.213 -0.213
 0.364  1.127  0.120 -0.087 -0.169 -0.212 -0.212
 0.366  1.129  0.123 -0.085 -0.168 -0.210 -0.210
 0.368  1.133  0.126 -0.082 -0.166 -0.209 -0.209
 0.370  1.135  0.131 -0.079 -0.164 -0.208 -0.208
 0.372  1.137  0.134 -0.076 -0.162 -0.207 -0.207
 0.374  1.141  0.137 -0.073 -0.160 -0.205 -0.205
 0.376  1.143  0.141 -0.071 -0.158 -0.204 -0.204
 0.378  1.146  0.144 -0.068 -0.156 -0.203 -0.203
 0.380  1.149  0.147 -0.066 -0.154 -0.201 -0.201
 0.382  1.152  0.151 -0.063 -0.152 -0.200 -0.200
 0.384  1.154  0.154 -0.061 -0.151 -0.199 -0.199
 0.386  1.158  0.157 -0.058 -0.149 -0.197 -0.197
 0.388  1.160  0.160 -0.056 -0.147 -0.196 -0.196
 0.390  1.164  0.163 -0.054 -0.146 -0.195 -0.195
 0.392  1.166  0.166 -0.052 -0.144 -0.194 -0.194
 0.394  1.169  0.169 -0.050 -0.142 -0.192 -0.192
 0.396  1.172  0.172 -0.048 -0.141 -0.191 -0.191
 0.398  1.175  0.175 -0.046 -0.139 -0.189 -0.189
 0.400  1.177  0.178 -0.044 -0.138 -0.188 -0.188
 0.402  1.181  0.180 -0.042 -0.137 -0.187 -0.187
 0.404  1.183  0.183 -0.039 -0.135 -0.185 -0.185
 0.406  1.186  0.186 -0.037 -0.134 -0.184 -0.184
 0.408  1.189  0.188 -0.036 -0.133 -0.183 -0.183
 0.410  1.192  0.191 -0.034 -0.131 -0.182 -0.182
 0.412  1.194  0.195 -0.032 -0.130 -0.180 -0.180
 0.414  1.198  0.197 -0.030 -0.129 -0.178 -0.178
 0.416  1.200  0.200 -0.029 -0.127 -0.177 -0.177
 0.418  1.204  0.202 -0.027 -0.126 -0.176 -0.176
 0.420  1.206  0.204 -0.025 -0.125 -0.174 -0.174
 0.422  1.209  0.207 -0.024 -0.123 -0.173 -0.173
 0.424  1.212  0.209 -0.022 -0.122 -0.172 -0.172
 0.426  1.215  0.211 -0.020 -0.120 -0.170 -0.170
 0.428  1.217  0.214 -0.019 -0.119 -0.169 -0.169
 0.430  1.221  0.216 -0.017 -0.117 -0.167 -0.167
 0.432  1.223  0.218 -0.015 -0.116 -0.166 -0.166
 0.434  1.226  0.220 -0.014 -0.115 -0.165 -0.165
 0.436  1.229  0.222 -0.013 -0.113 -0.163 -0.163
 0.438  1.232  0.224 -0.010 -0.112 -0.162 -0.162
 0.440  1.234  0.226 -0.009 -0.110 -0.160 -0.160
 0.442  1.238  0.228 -0.008 -0.109 -0.159 -0.159
 0.444  1.240  0.230 -0.005 -0.107 -0.158 -0.158
 0.446  1.242  0.232 -0.004 -0.106 -0.157 -0.157
 0.448  1.246  0.233 -0.003 -0.104 -0.155 -0.155
 0.450  1.248  0.235 -0.001 -0.103 -0.154 -0.154
 0.452  1.251  0.237  0.001 -0.102 -0.152 -0.152
 0.454  1.253  0.239  0.002 -0.100 -0.151 -0.151
 0.456  1.255  0.241  0.004 -0.099 -0.150 -0.150
 0.458  1.257  0.242  0.006 -0.097 -0.148 -0.148
 0.460  1.260  0.244  0.007 -0.096 -0.147 -0.147
 0.462  1.262  0.246  0.009 -0.094 -0.146 -0.146
 0.464  1.264  0.248  0.010 -0.093 -0.145 -0.145
 0.466  1.267  0.249  0.012 -0.091 -0.144 -0.144
 0.468  1.269  0.251  0.014 -0.090 -0.142 -0.142
 0.470  1.271  0.253  0.015 -0.088 -0.141 -0.141
 0.472  1.272  0.255  0.017 -0.087 -0.140 -0.140
 0.474  1.275  0.256  0.019 -0.085 -0.139 -0.139
 0.476  1.277  0.259  0.020 -0.084 -0.137 -0.137
 0.478  1.278  0.261  0.021 -0.082 -0.136 -0.136
 0.480  1.280  0.262  0.024 -0.081 -0.135 -0.135
 0.482  1.283  0.264  0.025 -0.079 -0.134 -0.134
 0.484  1.284  0.266  0.026 -0.078 -0.132 -0.132
 0.486  1.285  0.268  0.028 -0.076 -0.131 -0.131
 0.488  1.287  0.269  0.030 -0.075 -0.130 -0.130
 0.490  1.288  0.271  0.031 -0.074 -0.129 -0.129
 0.492  1.289  0.273  0.033 -0.072 -0.128 -0.128
 0.494  1.292  0.274  0.034 -0.071 -0.127 -0.127
 0.496  1.293  0.276  0.036 -0.070 -0.125 -0.125
 0.498  1.294  0.278  0.037 -0.068 -0.124 -0.124
 0.500  1.295  0.279  0.038 -0.067 -0.123 -0.123
 0.502  1.296  0.281  0.040 -0.065 -0.122 -0.122
 0.504  1.297  0.283  0.041 -0.064 -0.121 -0.121
 0.506  1.299  0.284  0.043 -0.063 -0.120 -0.120
 0.508  1.300  0.286  0.044 -0.062 -0.119 -0.119
 0.510  1.301  0.288  0.045 -0.061 -0.117 -0.117
 0.512  1.302  0.289  0.047 -0.060 -0.116 -0.116
 0.514  1.303  0.291  0.048 -0.059 -0.115 -0.115
 0.516  1.304  0.293  0.049 -0.058 -0.114 -0.114
 0.518  1.305  0.294  0.050 -0.057 -0.113 -0.113
 0.520  1.307  0.296  0.051 -0.055 -0.113 -0.113
 0.522  1.308  0.297  0.053 -0.054 -0.111 -0.111
 0.524  1.308  0.299  0.053 -0.054 -0.110 -0.110
 0.526  1.309  0.300  0.054 -0.052 -0.109 -0.109
 0.528  1.310  0.302  0.055 -0.051 -0.108 -0.108
 0.530  1.311  0.303  0.056 -0.051 -0.108 -0.108
 0.532  1.312  0.304  0.057 -0.049 -0.107 -0.107
 0.534  1.312  0.305  0.058 -0.049 -0.105 -0.105
 0.536  1.313  0.306  0.059 -0.048 -0.105 -0.105
 0.538  1.315  0.307  0.060 -0.047 -0.104 -0.104
 0.540  1.316  0.308  0.060 -0.047 -0.103 -0.103
 0.542  1.316  0.309  0.061 -0.045 -0.102 -0.102
 0.544  1.317  0.310  0.062 -0.045 -0.102 -0.102
 0.546  1.318  0.310  0.062 -0.044 -0.101 -0.101
 0.548  1.319  0.311  0.063 -0.044 -0.100 -0.100
 0.550  1.319  0.312  0.064 -0.042 -0.099 -0.099
 0.552  1.320  0.312  0.065 -0.042 -0.098 -0.098
 0.554  1.321  0.312  0.065 -0.041 -0.097 -0.097
 0.556  1.321  0.313  0.065 -0.040 -0.097 -0.097
 0.558  1.323  0.313  0.066 -0.039 -0.096 -0.096
 0.560  1.323  0.313  0.067 -0.038 -0.096 -0.096
 0.562  1.324  0.314  0.067 -0.038 -0.095 -0.095
 0.564  1.325  0.314  0.067 -0.037 -0.094 -0.094
 0.566  1.325  0.314  0.068 -0.036 -0.093 -0.093
 0.568  1.326  0.314  0.068 -0.035 -0.093 -0.093
 0.570  1.326  0.314  0.069 -0.034 -0.092 -0.092
 0.572  1.327  0.313  0.069 -0.033 -0.091 -0.091
 0.574  1.327  0.313  0.069 -0.032 -0.091 -0.091
 0.576  1.328  0.313  0.070 -0.031 -0.090 -0.090
 0.578  1.328  0.312  0.071 -0.030 -0.090 -0.090
 0.580  1.329  0.312  0.071 -0.029 -0.089 -0.089
 0.582  1.329  0.311  0.072 -0.028 -0.089 -0.089
 0.584  1.331  0.310  0.072 -0.027 -0.088 -0.088
 0.586  1.331  0.310  0.073 -0.026 -0.088 -0.088
 0.588  1.332  0.309  0.074 -0.025 -0.087 -0.087
 0.590  1.332  0.309  0.074 -0.023 -0.086 -0.086
 0.592  1.332  0.308  0.074 -0.022 -0.086 -0.086
 0.594  1.333  0.307  0.075 -0.021 -0.085 -0.085
 0.596  1.333  0.307  0.076 -0.020 -0.085 -0.085
 0.598  1.333  0.306  0.077 -0.019 -0.084 -0.084
 0.600  1.334  0.306  0.077 -0.018 -0.083 -0.083
 0.602  1.334  0.305  0.078 -0.016 -0.083 -0.083
 0.604  1.334  0.305  0.079 -0.015 -0.082 -0.082
 0.606  1.335  0.304  0.079 -0.013 -0.082 -0.082
 0.608  1.335  0.304  0.080 -0.012 -0.081 -0.081
 0.610  1.335  0.304  0.081 -0.010 -0.080 -0.080
 0.612  1.335  0.304  0.081 -0.009 -0.080 -0.080
 0.614  1.336  0.304  0.082 -0.008 -0.079 -0.079
 0.616  1.336  0.304  0.083 -0.006 -0.079 -0.079
 0.618  1.336  0.304  0.084 -0.005 -0.078 -0.078
 0.620  1.336  0.304  0.084 -0.003 -0.077 -0.077
 0.622  1.336  0.304  0.086 -0.002 -0.077 -0.077
 0.624  1.336  0.304  0.086 -0.001 -0.076 -0.076
 0.626  1.337  0.305  0.087  0.001 -0.076 -0.076
 0.628  1.337  0.305  0.088  0.002 -0.075 -0.075
 0.630  1.337  0.306  0.089  0.004 -0.074 -0.074
 0.632  1.337  0.306  0.090  0.005 -0.074 -0.074
 0.634  1.337  0.307  0.091  0.006 -0.073 -0.073
 0.636  1.337  0.308  0.091  0.008 -0.072 -0.072
 0.638  1.337  0.308  0.092  0.009 -0.072 -0.072
 0.640  1.337  0.309  0.094  0.010 -0.071 -0.071
 0.642  1.337  0.310  0.094  0.011 -0.071 -0.071
 0.644  1.337  0.311  0.096  0.013 -0.070 -0.070
 0.646  1.337  0.312  0.096  0.014 -0.070 -0.070
 0.648  1.337  0.313  0.098  0.016 -0.068 -0.068
 0.650  1.337  0.314  0.099  0.017 -0.068 -0.068
 0.652  1.337  0.315  0.100  0.018 -0.067 -0.067
 0.654  1.337  0.317  0.101  0.019 -0.067 -0.067
 0.656  1.336  0.318  0.103  0.020 -0.066 -0.066
 0.658  1.336  0.319  0.104  0.021 -0.066 -0.066
 0.660  1.336  0.322  0.105  0.023 -0.065 -0.065
 0.662  1.336  0.323  0.106  0.024 -0.065 -0.065
 0.664  1.336  0.325  0.108  0.025 -0.065 -0.065
 0.666  1.336  0.326  0.109  0.026 -0.064 -0.064
 0.668  1.335  0.328  0.111  0.027 -0.064 -0.064
 0.670  1.335  0.329  0.113  0.029 -0.063 -0.063
 0.672  1.335  0.331  0.114  0.029 -0.063 -0.063
 0.674  1.335  0.332  0.115  0.030 -0.063 -0.063
 0.676  1.334  0.333  0.117  0.032 -0.062 -0.062
 0.678  1.334  0.335  0.119  0.033 -0.062 -0.062
 0.680  1.334  0.336  0.120  0.033 -0.061 -0.061
 0.682  1.333  0.338  0.122  0.034 -0.061 -0.061
 0.684  1.333  0.339  0.124  0.036 -0.061 -0.061
 0.686  1.333  0.340  0.125  0.036 -0.061 -0.061
 0.688  1.332  0.341  0.127  0.037 -0.060 -0.060
 0.690  1.332  0.343  0.129  0.039 -0.060 -0.060
 0.692  1.332  0.344  0.131  0.039 -0.060 -0.060
 0.694  1.331  0.345  0.133  0.040 -0.060 -0.060
 0.696  1.331  0.346  0.135  0.042 -0.060 -0.060
 0.698  1.331  0.347  0.137  0.043 -0.060 -0.060
 0.700  1.329  0.349  0.139  0.043 -0.060 -0.060
 0.702  1.329  0.350  0.141  0.045 -0.060 -0.060
 0.704  1.328  0.351  0.143  0.046 -0.059 -0.059
 0.706  1.328  0.352  0.145  0.047 -0.059 -0.059
 0.708  1.327  0.353  0.147  0.048 -0.059 -0.059
 0.710  1.327  0.354  0.149  0.049 -0.059 -0.059
 0.712  1.326  0.355  0.151  0.050 -0.059 -0.059
 0.714  1.325  0.356  0.152  0.052 -0.060 -0.060
 0.716  1.325  0.357  0.154  0.053 -0.060 -0.060
 0.718  1.324  0.358  0.156  0.055 -0.060 -0.060
 0.720  1.324  0.360  0.157  0.056 -0.060 -0.060
 0.722  1.323  0.361  0.159  0.058 -0.060 -0.060
 0.724  1.323  0.361  0.161  0.059 -0.060 -0.060
 0.726  1.323  0.362  0.162  0.060 -0.059 -0.059
 0.728  1.323  0.363  0.164  0.062 -0.059 -0.059
 0.730  1.323  0.364  0.164  0.063 -0.059 -0.059
 0.732  1.323  0.365  0.166  0.065 -0.059 -0.059
 0.734  1.323  0.366  0.167  0.067 -0.058 -0.058
 0.736  1.324  0.366  0.168  0.069 -0.058 -0.058
 0.738  1.325  0.367  0.168  0.070 -0.057 -0.057
 0.740  1.326  0.367  0.170  0.072 -0.057 -0.057
 0.742  1.327  0.368  0.171  0.073 -0.055 -0.055
 0.744  1.329  0.368  0.171  0.075 -0.055 -0.055
 0.746  1.331  0.368  0.172  0.077 -0.054 -0.054
 0.748  1.333  0.368  0.173  0.079 -0.053 -0.053
 0.750  1.334  0.368  0.173  0.081 -0.052 -0.052
 0.752  1.336  0.368  0.174  0.083 -0.051 -0.051
 0.754  1.339  0.367  0.174  0.085 -0.049 -0.049
 0.756  1.342  0.367  0.175  0.087 -0.048 -0.048
 0.758  1.344  0.366  0.176  0.089 -0.047 -0.047
 0.760  1.347  0.365  0.176  0.091 -0.046 -0.046
 0.762  1.350  0.365  0.176  0.093 -0.044 -0.044
 0.764  1.354  0.364  0.176  0.095 -0.042 -0.042
 0.766  1.357  0.362  0.176  0.097 -0.041 -0.041
 0.768  1.360  0.361  0.176  0.098 -0.039 -0.039
 0.770  1.365  0.360  0.176  0.099 -0.038 -0.038
 0.772  1.370  0.358  0.176  0.099 -0.035 -0.035
 0.774  1.374  0.357  0.176  0.100 -0.033 -0.033
 0.776  1.379  0.355  0.175  0.100 -0.031 -0.031
 0.778  1.384  0.353  0.174  0.100 -0.029 -0.029
 0.780  1.389  0.351  0.173  0.099 -0.027 -0.027
 0.782  1.395  0.349  0.172  0.099 -0.024 -0.024
 0.784  1.399  0.347  0.171  0.098 -0.022 -0.022
 0.786  1.405  0.344  0.168  0.096 -0.020 -0.020
 0.788  1.411  0.342  0.166  0.095 -0.017 -0.017
 0.790  1.416  0.339  0.164  0.093 -0.015 -0.015
 0.792  1.422  0.337  0.161  0.091 -0.012 -0.012
 0.794  1.427  0.334  0.157  0.088 -0.010 -0.010
 0.796  1.432  0.331  0.154  0.085 -0.008 -0.008
 0.798  1.437  0.328  0.149  0.082 -0.005 -0.005
 0.800  1.442  0.325  0.144  0.079 -0.003 -0.003
 0.802  1.446  0.322  0.139  0.075 -0.001 -0.001
 0.804  1.451  0.317  0.134  0.072  0.002  0.002
 0.806  1.455  0.313  0.128  0.067  0.004  0.004
 0.808  1.459  0.309  0.122  0.063  0.006  0.006
