# IsPeriodic    : True
# Period        : 0.580769 days
# Normalization : <g_mag>=0
# 
# Phase u_mag  g_mag  r_mag  i_mag  z_mag  y_mag
0 0.562 -0.443 -0.431 -0.387 -0.390 -0.390
0.00116154 0.563 -0.443 -0.431 -0.387 -0.390 -0.390
0.00232308 0.563 -0.443 -0.431 -0.387 -0.389 -0.389
0.00348461 0.564 -0.443 -0.431 -0.387 -0.389 -0.389
0.00464615 0.565 -0.442 -0.431 -0.387 -0.388 -0.388
0.00580769 0.566 -0.441 -0.430 -0.386 -0.388 -0.388
0.00696923 0.567 -0.441 -0.430 -0.385 -0.387 -0.387
0.00813077 0.568 -0.439 -0.429 -0.385 -0.387 -0.387
0.0092923 0.570 -0.439 -0.429 -0.384 -0.387 -0.387
0.0104538 0.572 -0.438 -0.428 -0.383 -0.386 -0.386
0.0116154 0.574 -0.436 -0.428 -0.382 -0.385 -0.385
0.0127769 0.576 -0.436 -0.427 -0.381 -0.384 -0.384
0.0139385 0.578 -0.434 -0.426 -0.380 -0.384 -0.384
0.0151 0.580 -0.433 -0.425 -0.379 -0.383 -0.383
0.0162615 0.582 -0.431 -0.424 -0.378 -0.382 -0.382
0.0174231 0.584 -0.430 -0.423 -0.377 -0.381 -0.381
0.0185846 0.587 -0.428 -0.422 -0.376 -0.380 -0.380
0.0197461 0.590 -0.427 -0.421 -0.375 -0.379 -0.379
0.0209077 0.591 -0.424 -0.419 -0.374 -0.377 -0.377
0.0220692 0.594 -0.423 -0.418 -0.373 -0.376 -0.376
0.0232308 0.597 -0.420 -0.417 -0.372 -0.374 -0.374
0.0243923 0.599 -0.419 -0.415 -0.371 -0.372 -0.372
0.0255538 0.602 -0.417 -0.413 -0.370 -0.371 -0.371
0.0267154 0.605 -0.414 -0.412 -0.369 -0.369 -0.369
0.0278769 0.608 -0.412 -0.410 -0.368 -0.367 -0.367
0.0290385 0.611 -0.410 -0.409 -0.367 -0.365 -0.365
0.0302 0.614 -0.407 -0.407 -0.366 -0.363 -0.363
0.0313615 0.618 -0.404 -0.404 -0.365 -0.361 -0.361
0.0325231 0.621 -0.401 -0.403 -0.364 -0.359 -0.359
0.0336846 0.625 -0.399 -0.401 -0.363 -0.356 -0.356
0.0348461 0.628 -0.396 -0.399 -0.362 -0.354 -0.354
0.0360077 0.632 -0.393 -0.396 -0.361 -0.352 -0.352
0.0371692 0.636 -0.390 -0.394 -0.360 -0.350 -0.350
0.0383308 0.640 -0.387 -0.392 -0.358 -0.347 -0.347
0.0394923 0.643 -0.383 -0.389 -0.358 -0.345 -0.345
0.0406538 0.648 -0.380 -0.387 -0.356 -0.343 -0.343
0.0418154 0.652 -0.376 -0.384 -0.356 -0.340 -0.340
0.0429769 0.656 -0.373 -0.382 -0.354 -0.338 -0.338
0.0441384 0.660 -0.369 -0.379 -0.353 -0.336 -0.336
0.0453 0.665 -0.366 -0.377 -0.352 -0.333 -0.333
0.0464615 0.669 -0.362 -0.374 -0.351 -0.331 -0.331
0.0476231 0.674 -0.359 -0.372 -0.350 -0.329 -0.329
0.0487846 0.678 -0.356 -0.369 -0.349 -0.327 -0.327
0.0499461 0.682 -0.352 -0.367 -0.348 -0.325 -0.325
0.0511077 0.686 -0.348 -0.364 -0.347 -0.323 -0.323
0.0522692 0.690 -0.345 -0.362 -0.346 -0.321 -0.321
0.0534307 0.695 -0.341 -0.360 -0.345 -0.319 -0.319
0.0545923 0.699 -0.338 -0.357 -0.343 -0.317 -0.317
0.0557538 0.704 -0.334 -0.355 -0.342 -0.315 -0.315
0.0569154 0.708 -0.331 -0.353 -0.341 -0.313 -0.313
0.0580769 0.712 -0.327 -0.351 -0.340 -0.312 -0.312
0.0592384 0.716 -0.324 -0.349 -0.339 -0.310 -0.310
0.0604 0.720 -0.321 -0.347 -0.338 -0.308 -0.308
0.0615615 0.725 -0.317 -0.345 -0.336 -0.307 -0.307
0.0627231 0.729 -0.314 -0.343 -0.335 -0.305 -0.305
0.0638846 0.734 -0.311 -0.341 -0.334 -0.304 -0.304
0.0650461 0.737 -0.308 -0.339 -0.332 -0.302 -0.302
0.0662077 0.742 -0.304 -0.337 -0.331 -0.300 -0.300
0.0673692 0.746 -0.301 -0.335 -0.330 -0.299 -0.299
0.0685307 0.751 -0.298 -0.333 -0.329 -0.297 -0.297
0.0696923 0.754 -0.295 -0.332 -0.327 -0.296 -0.296
0.0708538 0.758 -0.292 -0.330 -0.326 -0.295 -0.295
0.0720154 0.763 -0.288 -0.328 -0.324 -0.294 -0.294
0.0731769 0.767 -0.285 -0.327 -0.323 -0.292 -0.292
0.0743384 0.771 -0.282 -0.325 -0.321 -0.291 -0.291
0.0755 0.775 -0.279 -0.324 -0.320 -0.290 -0.290
0.0766615 0.780 -0.275 -0.322 -0.318 -0.288 -0.288
0.077823 0.783 -0.272 -0.321 -0.317 -0.287 -0.287
0.0789846 0.788 -0.269 -0.319 -0.316 -0.286 -0.286
0.0801461 0.792 -0.266 -0.318 -0.314 -0.285 -0.285
0.0813077 0.797 -0.263 -0.317 -0.313 -0.284 -0.284
0.0824692 0.800 -0.260 -0.315 -0.311 -0.283 -0.283
0.0836307 0.804 -0.257 -0.314 -0.309 -0.282 -0.282
0.0847923 0.809 -0.254 -0.313 -0.308 -0.281 -0.281
0.0859538 0.812 -0.252 -0.312 -0.306 -0.280 -0.280
0.0871153 0.817 -0.249 -0.310 -0.304 -0.279 -0.279
0.0882769 0.820 -0.246 -0.309 -0.303 -0.278 -0.278
0.0894384 0.825 -0.243 -0.308 -0.301 -0.276 -0.276
0.0906 0.829 -0.240 -0.306 -0.300 -0.275 -0.275
0.0917615 0.833 -0.237 -0.305 -0.298 -0.274 -0.274
0.092923 0.837 -0.234 -0.304 -0.296 -0.273 -0.273
0.0940846 0.841 -0.230 -0.302 -0.294 -0.272 -0.272
0.0952461 0.845 -0.227 -0.301 -0.293 -0.271 -0.271
0.0964077 0.849 -0.224 -0.299 -0.291 -0.270 -0.270
0.0975692 0.853 -0.221 -0.298 -0.289 -0.268 -0.268
0.0987307 0.857 -0.218 -0.296 -0.288 -0.268 -0.268
0.0998923 0.861 -0.214 -0.295 -0.286 -0.266 -0.266
0.101054 0.865 -0.211 -0.293 -0.284 -0.265 -0.265
0.102215 0.869 -0.208 -0.291 -0.283 -0.264 -0.264
0.103377 0.873 -0.205 -0.290 -0.282 -0.263 -0.263
0.104538 0.876 -0.202 -0.288 -0.280 -0.262 -0.262
0.1057 0.881 -0.198 -0.287 -0.278 -0.260 -0.260
0.106861 0.884 -0.195 -0.285 -0.277 -0.260 -0.260
0.108023 0.889 -0.192 -0.283 -0.275 -0.258 -0.258
0.109185 0.892 -0.189 -0.282 -0.274 -0.257 -0.257
0.110346 0.896 -0.185 -0.280 -0.273 -0.256 -0.256
0.111508 0.899 -0.182 -0.278 -0.271 -0.255 -0.255
0.112669 0.904 -0.179 -0.276 -0.270 -0.254 -0.254
0.113831 0.907 -0.176 -0.274 -0.268 -0.252 -0.252
0.114992 0.911 -0.173 -0.273 -0.267 -0.251 -0.251
0.116154 0.914 -0.169 -0.271 -0.266 -0.250 -0.250
0.117315 0.919 -0.166 -0.269 -0.265 -0.249 -0.249
0.118477 0.922 -0.163 -0.267 -0.264 -0.248 -0.248
0.119638 0.926 -0.159 -0.265 -0.262 -0.247 -0.247
0.1208 0.929 -0.156 -0.263 -0.261 -0.245 -0.245
0.121961 0.933 -0.152 -0.261 -0.260 -0.244 -0.244
0.123123 0.937 -0.149 -0.259 -0.259 -0.243 -0.243
0.124285 0.941 -0.145 -0.257 -0.257 -0.242 -0.242
0.125446 0.944 -0.141 -0.255 -0.256 -0.241 -0.241
0.126608 0.948 -0.138 -0.253 -0.255 -0.239 -0.239
0.127769 0.951 -0.134 -0.250 -0.254 -0.238 -0.238
0.128931 0.955 -0.131 -0.248 -0.253 -0.237 -0.237
0.130092 0.958 -0.128 -0.247 -0.252 -0.236 -0.236
0.131254 0.962 -0.124 -0.245 -0.251 -0.234 -0.234
0.132415 0.965 -0.121 -0.242 -0.250 -0.233 -0.233
0.133577 0.969 -0.117 -0.240 -0.249 -0.232 -0.232
0.134738 0.973 -0.114 -0.238 -0.248 -0.231 -0.231
0.1359 0.976 -0.110 -0.236 -0.247 -0.230 -0.230
0.137061 0.980 -0.107 -0.234 -0.246 -0.229 -0.229
0.138223 0.982 -0.103 -0.232 -0.245 -0.227 -0.227
0.139385 0.986 -0.100 -0.230 -0.244 -0.226 -0.226
0.140546 0.989 -0.096 -0.228 -0.243 -0.225 -0.225
0.141708 0.993 -0.093 -0.225 -0.242 -0.224 -0.224
0.142869 0.996 -0.089 -0.223 -0.241 -0.223 -0.223
0.144031 0.999 -0.086 -0.221 -0.240 -0.221 -0.221
0.145192 1.003 -0.083 -0.219 -0.239 -0.220 -0.220
0.146354 1.006 -0.079 -0.217 -0.237 -0.219 -0.219
0.147515 1.009 -0.076 -0.215 -0.236 -0.218 -0.218
0.148677 1.012 -0.073 -0.213 -0.235 -0.217 -0.217
0.149838 1.016 -0.069 -0.211 -0.234 -0.216 -0.216
0.151 1.019 -0.066 -0.209 -0.232 -0.214 -0.214
0.152161 1.022 -0.062 -0.206 -0.231 -0.213 -0.213
0.153323 1.025 -0.059 -0.204 -0.230 -0.212 -0.212
0.154485 1.028 -0.055 -0.202 -0.229 -0.211 -0.211
0.155646 1.032 -0.052 -0.200 -0.228 -0.210 -0.210
0.156808 1.034 -0.048 -0.198 -0.226 -0.208 -0.208
0.157969 1.037 -0.045 -0.196 -0.225 -0.207 -0.207
0.159131 1.041 -0.042 -0.194 -0.223 -0.206 -0.206
0.160292 1.043 -0.038 -0.192 -0.222 -0.205 -0.205
0.161454 1.047 -0.035 -0.189 -0.221 -0.204 -0.204
0.162615 1.050 -0.031 -0.187 -0.219 -0.203 -0.203
0.163777 1.052 -0.028 -0.185 -0.218 -0.201 -0.201
0.164938 1.056 -0.025 -0.183 -0.217 -0.200 -0.200
0.1661 1.058 -0.021 -0.181 -0.215 -0.199 -0.199
0.167261 1.061 -0.018 -0.179 -0.214 -0.198 -0.198
0.168423 1.065 -0.015 -0.177 -0.212 -0.197 -0.197
0.169585 1.067 -0.012 -0.175 -0.211 -0.196 -0.196
0.170746 1.070 -0.009 -0.172 -0.209 -0.195 -0.195
0.171908 1.072 -0.005 -0.170 -0.208 -0.193 -0.193
0.173069 1.076 -0.002 -0.169 -0.206 -0.192 -0.192
0.174231 1.079 0.001 -0.167 -0.205 -0.191 -0.191
0.175392 1.081 0.004 -0.164 -0.203 -0.190 -0.190
0.176554 1.084 0.007 -0.162 -0.201 -0.189 -0.189
0.177715 1.087 0.011 -0.160 -0.200 -0.188 -0.188
0.178877 1.090 0.014 -0.159 -0.198 -0.187 -0.187
0.180038 1.093 0.017 -0.156 -0.197 -0.186 -0.186
0.1812 1.095 0.020 -0.154 -0.195 -0.185 -0.185
0.182361 1.098 0.022 -0.153 -0.193 -0.184 -0.184
0.183523 1.102 0.025 -0.151 -0.192 -0.183 -0.183
0.184685 1.104 0.028 -0.149 -0.190 -0.182 -0.182
0.185846 1.107 0.030 -0.147 -0.189 -0.181 -0.181
0.187008 1.110 0.033 -0.145 -0.187 -0.180 -0.180
0.188169 1.112 0.036 -0.143 -0.185 -0.179 -0.179
0.189331 1.116 0.039 -0.142 -0.184 -0.178 -0.178
0.190492 1.118 0.041 -0.139 -0.183 -0.177 -0.177
0.191654 1.121 0.044 -0.138 -0.181 -0.176 -0.176
0.192815 1.124 0.046 -0.136 -0.179 -0.175 -0.175
0.193977 1.126 0.049 -0.134 -0.178 -0.174 -0.174
0.195138 1.129 0.052 -0.133 -0.176 -0.173 -0.173
0.1963 1.133 0.054 -0.131 -0.175 -0.172 -0.172
0.197461 1.135 0.056 -0.129 -0.174 -0.171 -0.171
0.198623 1.138 0.059 -0.127 -0.172 -0.170 -0.170
0.199785 1.141 0.061 -0.126 -0.171 -0.169 -0.169
0.200946 1.143 0.063 -0.124 -0.169 -0.169 -0.169
0.202108 1.146 0.065 -0.122 -0.167 -0.167 -0.167
0.203269 1.149 0.068 -0.121 -0.166 -0.166 -0.166
0.204431 1.152 0.070 -0.119 -0.165 -0.166 -0.166
0.205592 1.155 0.072 -0.118 -0.163 -0.165 -0.165
0.206754 1.157 0.074 -0.116 -0.162 -0.164 -0.164
0.207915 1.160 0.076 -0.115 -0.161 -0.163 -0.163
0.209077 1.163 0.078 -0.113 -0.159 -0.162 -0.162
0.210238 1.165 0.080 -0.112 -0.158 -0.161 -0.161
0.2114 1.169 0.082 -0.110 -0.156 -0.160 -0.160
0.212561 1.172 0.084 -0.109 -0.155 -0.159 -0.159
0.213723 1.174 0.086 -0.107 -0.154 -0.158 -0.158
0.214885 1.177 0.088 -0.106 -0.152 -0.157 -0.157
0.216046 1.180 0.090 -0.104 -0.151 -0.156 -0.156
0.217208 1.182 0.092 -0.102 -0.149 -0.155 -0.155
0.218369 1.184 0.094 -0.101 -0.148 -0.154 -0.154
0.219531 1.187 0.097 -0.099 -0.147 -0.153 -0.153
0.220692 1.189 0.098 -0.098 -0.145 -0.152 -0.152
0.221854 1.192 0.101 -0.096 -0.144 -0.151 -0.151
0.223015 1.195 0.103 -0.094 -0.143 -0.150 -0.150
0.224177 1.196 0.105 -0.093 -0.141 -0.149 -0.149
0.225338 1.199 0.107 -0.091 -0.140 -0.148 -0.148
0.2265 1.202 0.109 -0.090 -0.138 -0.147 -0.147
0.227661 1.203 0.111 -0.088 -0.137 -0.146 -0.146
0.228823 1.206 0.114 -0.086 -0.136 -0.145 -0.145
0.229985 1.208 0.116 -0.085 -0.134 -0.143 -0.143
0.231146 1.210 0.118 -0.083 -0.133 -0.143 -0.143
0.232308 1.212 0.120 -0.081 -0.132 -0.141 -0.141
0.233469 1.215 0.123 -0.079 -0.131 -0.140 -0.140
0.234631 1.217 0.125 -0.078 -0.129 -0.139 -0.139
0.235792 1.219 0.127 -0.076 -0.128 -0.138 -0.138
0.236954 1.221 0.130 -0.075 -0.127 -0.137 -0.137
0.238115 1.223 0.132 -0.073 -0.126 -0.135 -0.135
0.239277 1.225 0.134 -0.071 -0.125 -0.134 -0.134
0.240438 1.227 0.136 -0.069 -0.123 -0.133 -0.133
0.2416 1.229 0.139 -0.068 -0.122 -0.132 -0.132
0.242761 1.231 0.142 -0.066 -0.120 -0.130 -0.130
0.243923 1.233 0.144 -0.064 -0.119 -0.130 -0.130
0.245085 1.234 0.146 -0.063 -0.118 -0.128 -0.128
0.246246 1.236 0.149 -0.061 -0.117 -0.127 -0.127
0.247408 1.238 0.152 -0.059 -0.116 -0.126 -0.126
0.248569 1.240 0.154 -0.057 -0.115 -0.125 -0.125
0.249731 1.241 0.156 -0.056 -0.113 -0.123 -0.123
0.250892 1.243 0.159 -0.054 -0.112 -0.122 -0.122
0.252054 1.245 0.162 -0.052 -0.111 -0.121 -0.121
0.253215 1.247 0.164 -0.051 -0.110 -0.120 -0.120
0.254377 1.249 0.166 -0.049 -0.109 -0.119 -0.119
0.255538 1.250 0.168 -0.047 -0.107 -0.118 -0.118
0.2567 1.252 0.171 -0.046 -0.107 -0.117 -0.117
0.257861 1.254 0.173 -0.044 -0.105 -0.116 -0.116
0.259023 1.256 0.175 -0.042 -0.104 -0.115 -0.115
0.260185 1.257 0.178 -0.041 -0.103 -0.114 -0.114
0.261346 1.259 0.180 -0.040 -0.102 -0.112 -0.112
0.262508 1.261 0.182 -0.038 -0.101 -0.112 -0.112
0.263669 1.263 0.184 -0.036 -0.100 -0.110 -0.110
0.264831 1.264 0.187 -0.035 -0.098 -0.109 -0.109
0.265992 1.266 0.188 -0.034 -0.097 -0.109 -0.109
0.267154 1.268 0.191 -0.033 -0.096 -0.108 -0.108
0.268315 1.270 0.193 -0.031 -0.095 -0.107 -0.107
0.269477 1.272 0.194 -0.030 -0.094 -0.106 -0.106
0.270638 1.273 0.197 -0.029 -0.093 -0.105 -0.105
0.2718 1.276 0.198 -0.028 -0.092 -0.104 -0.104
0.272961 1.278 0.200 -0.026 -0.091 -0.103 -0.103
0.274123 1.279 0.202 -0.025 -0.089 -0.102 -0.102
0.275285 1.281 0.204 -0.024 -0.089 -0.102 -0.102
0.276446 1.283 0.205 -0.023 -0.087 -0.101 -0.101
0.277608 1.285 0.207 -0.022 -0.086 -0.100 -0.100
0.278769 1.287 0.209 -0.021 -0.085 -0.099 -0.099
0.279931 1.289 0.210 -0.021 -0.084 -0.098 -0.098
0.281092 1.291 0.212 -0.020 -0.083 -0.097 -0.097
0.282254 1.293 0.213 -0.018 -0.082 -0.097 -0.097
0.283415 1.295 0.215 -0.018 -0.081 -0.096 -0.096
0.284577 1.297 0.217 -0.017 -0.080 -0.095 -0.095
0.285738 1.299 0.218 -0.016 -0.078 -0.094 -0.094
0.2869 1.302 0.219 -0.015 -0.077 -0.094 -0.094
0.288061 1.303 0.220 -0.015 -0.076 -0.093 -0.093
0.289223 1.306 0.222 -0.014 -0.075 -0.093 -0.093
0.290384 1.308 0.223 -0.013 -0.074 -0.092 -0.092
0.291546 1.310 0.224 -0.013 -0.073 -0.091 -0.091
0.292708 1.312 0.226 -0.012 -0.072 -0.091 -0.091
0.293869 1.314 0.226 -0.011 -0.071 -0.090 -0.090
0.295031 1.317 0.228 -0.010 -0.070 -0.089 -0.089
0.296192 1.318 0.229 -0.010 -0.069 -0.089 -0.089
0.297354 1.320 0.230 -0.009 -0.067 -0.088 -0.088
0.298515 1.322 0.231 -0.009 -0.066 -0.087 -0.087
0.299677 1.324 0.233 -0.008 -0.065 -0.087 -0.087
0.300838 1.325 0.233 -0.007 -0.064 -0.086 -0.086
0.302 1.327 0.235 -0.007 -0.063 -0.086 -0.086
0.303161 1.329 0.236 -0.006 -0.062 -0.085 -0.085
0.304323 1.330 0.236 -0.005 -0.061 -0.084 -0.084
0.305484 1.332 0.238 -0.005 -0.060 -0.083 -0.083
0.306646 1.333 0.239 -0.004 -0.059 -0.083 -0.083
0.307808 1.334 0.240 -0.003 -0.058 -0.082 -0.082
0.308969 1.335 0.241 -0.003 -0.057 -0.082 -0.082
0.310131 1.337 0.242 -0.001 -0.056 -0.081 -0.081
0.311292 1.338 0.243 -0.001 -0.055 -0.081 -0.081
0.312454 1.339 0.244 -0.000 -0.054 -0.080 -0.080
0.313615 1.340 0.245 0.001 -0.053 -0.080 -0.080
0.314777 1.341 0.246 0.001 -0.052 -0.079 -0.079
0.315938 1.341 0.247 0.002 -0.051 -0.078 -0.078
0.3171 1.342 0.248 0.003 -0.050 -0.078 -0.078
0.318261 1.342 0.249 0.003 -0.049 -0.077 -0.077
0.319423 1.343 0.250 0.004 -0.048 -0.077 -0.077
0.320584 1.343 0.251 0.005 -0.047 -0.076 -0.076
0.321746 1.344 0.252 0.006 -0.046 -0.076 -0.076
0.322908 1.344 0.252 0.007 -0.046 -0.075 -0.075
0.324069 1.345 0.253 0.008 -0.045 -0.075 -0.075
0.325231 1.345 0.255 0.008 -0.044 -0.074 -0.074
0.326392 1.345 0.255 0.009 -0.043 -0.074 -0.074
0.327554 1.345 0.256 0.010 -0.042 -0.073 -0.073
0.328715 1.345 0.257 0.011 -0.042 -0.073 -0.073
0.329877 1.345 0.258 0.012 -0.040 -0.072 -0.072
0.331038 1.345 0.258 0.012 -0.039 -0.072 -0.072
0.3322 1.344 0.259 0.013 -0.039 -0.071 -0.071
0.333361 1.344 0.260 0.014 -0.038 -0.071 -0.071
0.334523 1.344 0.261 0.015 -0.037 -0.070 -0.070
0.335684 1.343 0.262 0.016 -0.037 -0.070 -0.070
0.336846 1.343 0.262 0.017 -0.036 -0.069 -0.069
0.338008 1.343 0.263 0.018 -0.035 -0.069 -0.069
0.339169 1.342 0.264 0.018 -0.034 -0.068 -0.068
0.340331 1.342 0.265 0.019 -0.033 -0.068 -0.068
0.341492 1.342 0.265 0.020 -0.033 -0.068 -0.068
0.342654 1.341 0.266 0.021 -0.032 -0.067 -0.067
0.343815 1.341 0.267 0.022 -0.031 -0.067 -0.067
0.344977 1.341 0.268 0.022 -0.030 -0.066 -0.066
0.346138 1.341 0.268 0.024 -0.030 -0.066 -0.066
0.3473 1.341 0.268 0.025 -0.029 -0.065 -0.065
0.348461 1.341 0.269 0.025 -0.028 -0.065 -0.065
0.349623 1.341 0.270 0.026 -0.028 -0.065 -0.065
0.350784 1.341 0.270 0.027 -0.027 -0.064 -0.064
0.351946 1.341 0.271 0.028 -0.026 -0.064 -0.064
0.353108 1.340 0.271 0.028 -0.026 -0.063 -0.063
0.354269 1.340 0.271 0.029 -0.025 -0.063 -0.063
0.355431 1.340 0.271 0.030 -0.024 -0.063 -0.063
0.356592 1.340 0.272 0.031 -0.024 -0.062 -0.062
0.357754 1.340 0.272 0.032 -0.023 -0.062 -0.062
0.358915 1.340 0.273 0.033 -0.023 -0.061 -0.061
0.360077 1.340 0.273 0.034 -0.022 -0.061 -0.061
0.361238 1.340 0.274 0.034 -0.021 -0.060 -0.060
0.3624 1.340 0.274 0.035 -0.021 -0.060 -0.060
0.363561 1.340 0.274 0.036 -0.020 -0.060 -0.060
0.364723 1.340 0.274 0.037 -0.019 -0.059 -0.059
0.365884 1.340 0.274 0.038 -0.019 -0.059 -0.059
0.367046 1.340 0.274 0.038 -0.019 -0.058 -0.058
0.368208 1.340 0.274 0.039 -0.018 -0.058 -0.058
0.369369 1.341 0.274 0.040 -0.017 -0.058 -0.058
0.370531 1.341 0.274 0.040 -0.017 -0.057 -0.057
0.371692 1.341 0.275 0.042 -0.016 -0.057 -0.057
0.372854 1.341 0.275 0.042 -0.016 -0.057 -0.057
0.374015 1.341 0.275 0.043 -0.015 -0.056 -0.056
0.375177 1.341 0.275 0.044 -0.015 -0.056 -0.056
0.376338 1.341 0.275 0.045 -0.014 -0.056 -0.056
0.3775 1.341 0.275 0.046 -0.014 -0.055 -0.055
0.378661 1.342 0.275 0.047 -0.013 -0.055 -0.055
0.379823 1.342 0.275 0.047 -0.012 -0.055 -0.055
0.380984 1.342 0.276 0.048 -0.012 -0.055 -0.055
0.382146 1.343 0.276 0.050 -0.012 -0.054 -0.054
0.383308 1.343 0.276 0.051 -0.011 -0.054 -0.054
0.384469 1.343 0.277 0.052 -0.011 -0.054 -0.054
0.385631 1.344 0.277 0.053 -0.010 -0.053 -0.053
0.386792 1.344 0.278 0.054 -0.010 -0.053 -0.053
0.387954 1.344 0.278 0.055 -0.009 -0.053 -0.053
0.389115 1.345 0.278 0.056 -0.008 -0.053 -0.053
0.390277 1.345 0.279 0.057 -0.008 -0.052 -0.052
0.391438 1.346 0.280 0.058 -0.007 -0.052 -0.052
0.3926 1.346 0.281 0.060 -0.007 -0.052 -0.052
0.393761 1.346 0.281 0.061 -0.006 -0.052 -0.052
0.394923 1.347 0.282 0.062 -0.006 -0.052 -0.052
0.396084 1.347 0.283 0.063 -0.005 -0.051 -0.051
0.397246 1.348 0.284 0.064 -0.004 -0.051 -0.051
0.398408 1.348 0.285 0.066 -0.003 -0.051 -0.051
0.399569 1.348 0.286 0.067 -0.003 -0.051 -0.051
0.400731 1.348 0.287 0.069 -0.002 -0.050 -0.050
0.401892 1.349 0.288 0.070 -0.001 -0.050 -0.050
0.403054 1.349 0.290 0.071 -0.001 -0.050 -0.050
0.404215 1.350 0.291 0.073 0.000 -0.050 -0.050
0.405377 1.351 0.292 0.074 0.001 -0.050 -0.050
0.406538 1.351 0.294 0.076 0.002 -0.050 -0.050
0.4077 1.352 0.295 0.078 0.003 -0.050 -0.050
0.408861 1.352 0.297 0.079 0.003 -0.050 -0.050
0.410023 1.353 0.298 0.081 0.004 -0.049 -0.049
0.411184 1.354 0.300 0.082 0.005 -0.049 -0.049
0.412346 1.354 0.301 0.085 0.006 -0.049 -0.049
0.413508 1.355 0.303 0.086 0.007 -0.049 -0.049
0.414669 1.355 0.305 0.088 0.008 -0.048 -0.048
0.415831 1.356 0.307 0.089 0.009 -0.048 -0.048
0.416992 1.356 0.309 0.091 0.010 -0.047 -0.047
0.418154 1.356 0.310 0.093 0.011 -0.047 -0.047
0.419315 1.357 0.312 0.094 0.012 -0.047 -0.047
0.420477 1.358 0.313 0.095 0.014 -0.046 -0.046
0.421638 1.359 0.315 0.096 0.015 -0.046 -0.046
0.4228 1.360 0.316 0.097 0.016 -0.045 -0.045
0.423961 1.361 0.317 0.098 0.017 -0.045 -0.045
0.425123 1.363 0.318 0.099 0.017 -0.044 -0.044
0.426284 1.364 0.319 0.099 0.018 -0.043 -0.043
0.427446 1.365 0.319 0.099 0.019 -0.043 -0.043
0.428608 1.366 0.319 0.099 0.020 -0.042 -0.042
0.429769 1.368 0.319 0.099 0.020 -0.041 -0.041
0.430931 1.370 0.319 0.099 0.021 -0.040 -0.040
0.432092 1.371 0.319 0.098 0.021 -0.039 -0.039
0.433254 1.373 0.319 0.098 0.021 -0.039 -0.039
0.434415 1.375 0.318 0.097 0.021 -0.038 -0.038
0.435577 1.377 0.317 0.096 0.021 -0.037 -0.037
0.436738 1.379 0.316 0.095 0.021 -0.036 -0.036
0.4379 1.380 0.316 0.094 0.021 -0.034 -0.034
0.439061 1.382 0.314 0.093 0.020 -0.034 -0.034
0.440223 1.384 0.313 0.091 0.019 -0.032 -0.032
0.441384 1.387 0.311 0.089 0.019 -0.031 -0.031
0.442546 1.388 0.310 0.087 0.018 -0.030 -0.030
0.443708 1.391 0.308 0.086 0.017 -0.029 -0.029
0.444869 1.394 0.306 0.083 0.015 -0.027 -0.027
0.446031 1.396 0.303 0.081 0.014 -0.026 -0.026
0.447192 1.399 0.301 0.078 0.012 -0.025 -0.025
0.448354 1.402 0.299 0.076 0.011 -0.023 -0.023
0.449515 1.405 0.297 0.073 0.009 -0.022 -0.022
0.450677 1.408 0.294 0.070 0.007 -0.020 -0.020
0.451838 1.411 0.290 0.067 0.005 -0.019 -0.019
0.453 1.415 0.287 0.063 0.003 -0.017 -0.017
0.454161 1.418 0.284 0.060 0.001 -0.016 -0.016
0.455323 1.421 0.281 0.056 -0.001 -0.014 -0.014
0.456484 1.425 0.277 0.052 -0.004 -0.013 -0.013
0.457646 1.427 0.273 0.048 -0.007 -0.011 -0.011
0.458808 1.431 0.268 0.044 -0.010 -0.010 -0.010
0.459969 1.433 0.265 0.039 -0.012 -0.008 -0.008
0.461131 1.436 0.260 0.035 -0.016 -0.007 -0.007
0.462292 1.439 0.255 0.031 -0.019 -0.006 -0.006
0.463454 1.440 0.250 0.026 -0.022 -0.004 -0.004
0.464615 1.442 0.245 0.021 -0.026 -0.003 -0.003
0.465777 1.444 0.239 0.016 -0.030 -0.001 -0.001
0.466938 1.445 0.234 0.011 -0.033 0.000 0.000
0.4681 1.446 0.229 0.006 -0.037 0.002 0.002
0.469261 1.447 0.223 0.001 -0.041 0.003 0.003
