# IsPeriodic    : True
# Period        : 0.580769 days
# Normalization : <g_mag>=0
# 
# Phase u_mag  g_mag  r_mag  i_mag  z_mag  y_mag
 0.000  0.562 -0.443 -0.431 -0.387 -0.390 -0.390
 0.002  0.563 -0.443 -0.431 -0.387 -0.390 -0.390
 0.004  0.563 -0.443 -0.431 -0.387 -0.389 -0.389
 0.006  0.564 -0.443 -0.431 -0.387 -0.389 -0.389
 0.008  0.565 -0.442 -0.431 -0.387 -0.388 -0.388
 0.010  0.566 -0.441 -0.430 -0.386 -0.388 -0.388
 0.012  0.567 -0.441 -0.430 -0.385 -0.387 -0.387
 0.014  0.568 -0.439 -0.429 -0.385 -0.387 -0.387
 0.016  0.570 -0.439 -0.429 -0.384 -0.387 -0.387
 0.018  0.572 -0.438 -0.428 -0.383 -0.386 -0.386
 0.020  0.574 -0.436 -0.428 -0.382 -0.385 -0.385
 0.022  0.576 -0.436 -0.427 -0.381 -0.384 -0.384
 0.024  0.578 -0.434 -0.426 -0.380 -0.384 -0.384
 0.026  0.580 -0.433 -0.425 -0.379 -0.383 -0.383
 0.028  0.582 -0.431 -0.424 -0.378 -0.382 -0.382
 0.030  0.584 -0.430 -0.423 -0.377 -0.381 -0.381
 0.032  0.587 -0.428 -0.422 -0.376 -0.380 -0.380
 0.034  0.590 -0.427 -0.421 -0.375 -0.379 -0.379
 0.036  0.591 -0.424 -0.419 -0.374 -0.377 -0.377
 0.038  0.594 -0.423 -0.418 -0.373 -0.376 -0.376
 0.040  0.597 -0.420 -0.417 -0.372 -0.374 -0.374
 0.042  0.599 -0.419 -0.415 -0.371 -0.372 -0.372
 0.044  0.602 -0.417 -0.413 -0.370 -0.371 -0.371
 0.046  0.605 -0.414 -0.412 -0.369 -0.369 -0.369
 0.048  0.608 -0.412 -0.410 -0.368 -0.367 -0.367
 0.050  0.611 -0.410 -0.409 -0.367 -0.365 -0.365
 0.052  0.614 -0.407 -0.407 -0.366 -0.363 -0.363
 0.054  0.618 -0.404 -0.404 -0.365 -0.361 -0.361
 0.056  0.621 -0.401 -0.403 -0.364 -0.359 -0.359
 0.058  0.625 -0.399 -0.401 -0.363 -0.356 -0.356
 0.060  0.628 -0.396 -0.399 -0.362 -0.354 -0.354
 0.062  0.632 -0.393 -0.396 -0.361 -0.352 -0.352
 0.064  0.636 -0.390 -0.394 -0.360 -0.350 -0.350
 0.066  0.640 -0.387 -0.392 -0.358 -0.347 -0.347
 0.068  0.643 -0.383 -0.389 -0.358 -0.345 -0.345
 0.070  0.648 -0.380 -0.387 -0.356 -0.343 -0.343
 0.072  0.652 -0.376 -0.384 -0.356 -0.340 -0.340
 0.074  0.656 -0.373 -0.382 -0.354 -0.338 -0.338
 0.076  0.660 -0.369 -0.379 -0.353 -0.336 -0.336
 0.078  0.665 -0.366 -0.377 -0.352 -0.333 -0.333
 0.080  0.669 -0.362 -0.374 -0.351 -0.331 -0.331
 0.082  0.674 -0.359 -0.372 -0.350 -0.329 -0.329
 0.084  0.678 -0.356 -0.369 -0.349 -0.327 -0.327
 0.086  0.682 -0.352 -0.367 -0.348 -0.325 -0.325
 0.088  0.686 -0.348 -0.364 -0.347 -0.323 -0.323
 0.090  0.690 -0.345 -0.362 -0.346 -0.321 -0.321
 0.092  0.695 -0.341 -0.360 -0.345 -0.319 -0.319
 0.094  0.699 -0.338 -0.357 -0.343 -0.317 -0.317
 0.096  0.704 -0.334 -0.355 -0.342 -0.315 -0.315
 0.098  0.708 -0.331 -0.353 -0.341 -0.313 -0.313
 0.100  0.712 -0.327 -0.351 -0.340 -0.312 -0.312
 0.102  0.716 -0.324 -0.349 -0.339 -0.310 -0.310
 0.104  0.720 -0.321 -0.347 -0.338 -0.308 -0.308
 0.106  0.725 -0.317 -0.345 -0.336 -0.307 -0.307
 0.108  0.729 -0.314 -0.343 -0.335 -0.305 -0.305
 0.110  0.734 -0.311 -0.341 -0.334 -0.304 -0.304
 0.112  0.737 -0.308 -0.339 -0.332 -0.302 -0.302
 0.114  0.742 -0.304 -0.337 -0.331 -0.300 -0.300
 0.116  0.746 -0.301 -0.335 -0.330 -0.299 -0.299
 0.118  0.751 -0.298 -0.333 -0.329 -0.297 -0.297
 0.120  0.754 -0.295 -0.332 -0.327 -0.296 -0.296
 0.122  0.758 -0.292 -0.330 -0.326 -0.295 -0.295
 0.124  0.763 -0.288 -0.328 -0.324 -0.294 -0.294
 0.126  0.767 -0.285 -0.327 -0.323 -0.292 -0.292
 0.128  0.771 -0.282 -0.325 -0.321 -0.291 -0.291
 0.130  0.775 -0.279 -0.324 -0.320 -0.290 -0.290
 0.132  0.780 -0.275 -0.322 -0.318 -0.288 -0.288
 0.134  0.783 -0.272 -0.321 -0.317 -0.287 -0.287
 0.136  0.788 -0.269 -0.319 -0.316 -0.286 -0.286
 0.138  0.792 -0.266 -0.318 -0.314 -0.285 -0.285
 0.140  0.797 -0.263 -0.317 -0.313 -0.284 -0.284
 0.142  0.800 -0.260 -0.315 -0.311 -0.283 -0.283
 0.144  0.804 -0.257 -0.314 -0.309 -0.282 -0.282
 0.146  0.809 -0.254 -0.313 -0.308 -0.281 -0.281
 0.148  0.812 -0.252 -0.312 -0.306 -0.280 -0.280
 0.150  0.817 -0.249 -0.310 -0.304 -0.279 -0.279
 0.152  0.820 -0.246 -0.309 -0.303 -0.278 -0.278
 0.154  0.825 -0.243 -0.308 -0.301 -0.276 -0.276
 0.156  0.829 -0.240 -0.306 -0.300 -0.275 -0.275
 0.158  0.833 -0.237 -0.305 -0.298 -0.274 -0.274
 0.160  0.837 -0.234 -0.304 -0.296 -0.273 -0.273
 0.162  0.841 -0.230 -0.302 -0.294 -0.272 -0.272
 0.164  0.845 -0.227 -0.301 -0.293 -0.271 -0.271
 0.166  0.849 -0.224 -0.299 -0.291 -0.270 -0.270
 0.168  0.853 -0.221 -0.298 -0.289 -0.268 -0.268
 0.170  0.857 -0.218 -0.296 -0.288 -0.268 -0.268
 0.172  0.861 -0.214 -0.295 -0.286 -0.266 -0.266
 0.174  0.865 -0.211 -0.293 -0.284 -0.265 -0.265
 0.176  0.869 -0.208 -0.291 -0.283 -0.264 -0.264
 0.178  0.873 -0.205 -0.290 -0.282 -0.263 -0.263
 0.180  0.876 -0.202 -0.288 -0.280 -0.262 -0.262
 0.182  0.881 -0.198 -0.287 -0.278 -0.260 -0.260
 0.184  0.884 -0.195 -0.285 -0.277 -0.260 -0.260
 0.186  0.889 -0.192 -0.283 -0.275 -0.258 -0.258
 0.188  0.892 -0.189 -0.282 -0.274 -0.257 -0.257
 0.190  0.896 -0.185 -0.280 -0.273 -0.256 -0.256
 0.192  0.899 -0.182 -0.278 -0.271 -0.255 -0.255
 0.194  0.904 -0.179 -0.276 -0.270 -0.254 -0.254
 0.196  0.907 -0.176 -0.274 -0.268 -0.252 -0.252
 0.198  0.911 -0.173 -0.273 -0.267 -0.251 -0.251
 0.200  0.914 -0.169 -0.271 -0.266 -0.250 -0.250
 0.202  0.919 -0.166 -0.269 -0.265 -0.249 -0.249
 0.204  0.922 -0.163 -0.267 -0.264 -0.248 -0.248
 0.206  0.926 -0.159 -0.265 -0.262 -0.247 -0.247
 0.208  0.929 -0.156 -0.263 -0.261 -0.245 -0.245
 0.210  0.933 -0.152 -0.261 -0.260 -0.244 -0.244
 0.212  0.937 -0.149 -0.259 -0.259 -0.243 -0.243
 0.214  0.941 -0.145 -0.257 -0.257 -0.242 -0.242
 0.216  0.944 -0.141 -0.255 -0.256 -0.241 -0.241
 0.218  0.948 -0.138 -0.253 -0.255 -0.239 -0.239
 0.220  0.951 -0.134 -0.250 -0.254 -0.238 -0.238
 0.222  0.955 -0.131 -0.248 -0.253 -0.237 -0.237
 0.224  0.958 -0.128 -0.247 -0.252 -0.236 -0.236
 0.226  0.962 -0.124 -0.245 -0.251 -0.234 -0.234
 0.228  0.965 -0.121 -0.242 -0.250 -0.233 -0.233
 0.230  0.969 -0.117 -0.240 -0.249 -0.232 -0.232
 0.232  0.973 -0.114 -0.238 -0.248 -0.231 -0.231
 0.234  0.976 -0.110 -0.236 -0.247 -0.230 -0.230
 0.236  0.980 -0.107 -0.234 -0.246 -0.229 -0.229
 0.238  0.982 -0.103 -0.232 -0.245 -0.227 -0.227
 0.240  0.986 -0.100 -0.230 -0.244 -0.226 -0.226
 0.242  0.989 -0.096 -0.228 -0.243 -0.225 -0.225
 0.244  0.993 -0.093 -0.225 -0.242 -0.224 -0.224
 0.246  0.996 -0.089 -0.223 -0.241 -0.223 -0.223
 0.248  0.999 -0.086 -0.221 -0.240 -0.221 -0.221
 0.250  1.003 -0.083 -0.219 -0.239 -0.220 -0.220
 0.252  1.006 -0.079 -0.217 -0.237 -0.219 -0.219
 0.254  1.009 -0.076 -0.215 -0.236 -0.218 -0.218
 0.256  1.012 -0.073 -0.213 -0.235 -0.217 -0.217
 0.258  1.016 -0.069 -0.211 -0.234 -0.216 -0.216
 0.260  1.019 -0.066 -0.209 -0.232 -0.214 -0.214
 0.262  1.022 -0.062 -0.206 -0.231 -0.213 -0.213
 0.264  1.025 -0.059 -0.204 -0.230 -0.212 -0.212
 0.266  1.028 -0.055 -0.202 -0.229 -0.211 -0.211
 0.268  1.032 -0.052 -0.200 -0.228 -0.210 -0.210
 0.270  1.034 -0.048 -0.198 -0.226 -0.208 -0.208
 0.272  1.037 -0.045 -0.196 -0.225 -0.207 -0.207
 0.274  1.041 -0.042 -0.194 -0.223 -0.206 -0.206
 0.276  1.043 -0.038 -0.192 -0.222 -0.205 -0.205
 0.278  1.047 -0.035 -0.189 -0.221 -0.204 -0.204
 0.280  1.050 -0.031 -0.187 -0.219 -0.203 -0.203
 0.282  1.052 -0.028 -0.185 -0.218 -0.201 -0.201
 0.284  1.056 -0.025 -0.183 -0.217 -0.200 -0.200
 0.286  1.058 -0.021 -0.181 -0.215 -0.199 -0.199
 0.288  1.061 -0.018 -0.179 -0.214 -0.198 -0.198
 0.290  1.065 -0.015 -0.177 -0.212 -0.197 -0.197
 0.292  1.067 -0.012 -0.175 -0.211 -0.196 -0.196
 0.294  1.070 -0.009 -0.172 -0.209 -0.195 -0.195
 0.296  1.072 -0.005 -0.170 -0.208 -0.193 -0.193
 0.298  1.076 -0.002 -0.169 -0.206 -0.192 -0.192
 0.300  1.079  0.001 -0.167 -0.205 -0.191 -0.191
 0.302  1.081  0.004 -0.164 -0.203 -0.190 -0.190
 0.304  1.084  0.007 -0.162 -0.201 -0.189 -0.189
 0.306  1.087  0.011 -0.160 -0.200 -0.188 -0.188
 0.308  1.090  0.014 -0.159 -0.198 -0.187 -0.187
 0.310  1.093  0.017 -0.156 -0.197 -0.186 -0.186
 0.312  1.095  0.020 -0.154 -0.195 -0.185 -0.185
 0.314  1.098  0.022 -0.153 -0.193 -0.184 -0.184
 0.316  1.102  0.025 -0.151 -0.192 -0.183 -0.183
 0.318  1.104  0.028 -0.149 -0.190 -0.182 -0.182
 0.320  1.107  0.030 -0.147 -0.189 -0.181 -0.181
 0.322  1.110  0.033 -0.145 -0.187 -0.180 -0.180
 0.324  1.112  0.036 -0.143 -0.185 -0.179 -0.179
 0.326  1.116  0.039 -0.142 -0.184 -0.178 -0.178
 0.328  1.118  0.041 -0.139 -0.183 -0.177 -0.177
 0.330  1.121  0.044 -0.138 -0.181 -0.176 -0.176
 0.332  1.124  0.046 -0.136 -0.179 -0.175 -0.175
 0.334  1.126  0.049 -0.134 -0.178 -0.174 -0.174
 0.336  1.129  0.052 -0.133 -0.176 -0.173 -0.173
 0.338  1.133  0.054 -0.131 -0.175 -0.172 -0.172
 0.340  1.135  0.056 -0.129 -0.174 -0.171 -0.171
 0.342  1.138  0.059 -0.127 -0.172 -0.170 -0.170
 0.344  1.141  0.061 -0.126 -0.171 -0.169 -0.169
 0.346  1.143  0.063 -0.124 -0.169 -0.169 -0.169
 0.348  1.146  0.065 -0.122 -0.167 -0.167 -0.167
 0.350  1.149  0.068 -0.121 -0.166 -0.166 -0.166
 0.352  1.152  0.070 -0.119 -0.165 -0.166 -0.166
 0.354  1.155  0.072 -0.118 -0.163 -0.165 -0.165
 0.356  1.157  0.074 -0.116 -0.162 -0.164 -0.164
 0.358  1.160  0.076 -0.115 -0.161 -0.163 -0.163
 0.360  1.163  0.078 -0.113 -0.159 -0.162 -0.162
 0.362  1.165  0.080 -0.112 -0.158 -0.161 -0.161
 0.364  1.169  0.082 -0.110 -0.156 -0.160 -0.160
 0.366  1.172  0.084 -0.109 -0.155 -0.159 -0.159
 0.368  1.174  0.086 -0.107 -0.154 -0.158 -0.158
 0.370  1.177  0.088 -0.106 -0.152 -0.157 -0.157
 0.372  1.180  0.090 -0.104 -0.151 -0.156 -0.156
 0.374  1.182  0.092 -0.102 -0.149 -0.155 -0.155
 0.376  1.184  0.094 -0.101 -0.148 -0.154 -0.154
 0.378  1.187  0.097 -0.099 -0.147 -0.153 -0.153
 0.380  1.189  0.098 -0.098 -0.145 -0.152 -0.152
 0.382  1.192  0.101 -0.096 -0.144 -0.151 -0.151
 0.384  1.195  0.103 -0.094 -0.143 -0.150 -0.150
 0.386  1.196  0.105 -0.093 -0.141 -0.149 -0.149
 0.388  1.199  0.107 -0.091 -0.140 -0.148 -0.148
 0.390  1.202  0.109 -0.090 -0.138 -0.147 -0.147
 0.392  1.203  0.111 -0.088 -0.137 -0.146 -0.146
 0.394  1.206  0.114 -0.086 -0.136 -0.145 -0.145
 0.396  1.208  0.116 -0.085 -0.134 -0.143 -0.143
 0.398  1.210  0.118 -0.083 -0.133 -0.143 -0.143
 0.400  1.212  0.120 -0.081 -0.132 -0.141 -0.141
 0.402  1.215  0.123 -0.079 -0.131 -0.140 -0.140
 0.404  1.217  0.125 -0.078 -0.129 -0.139 -0.139
 0.406  1.219  0.127 -0.076 -0.128 -0.138 -0.138
 0.408  1.221  0.130 -0.075 -0.127 -0.137 -0.137
 0.410  1.223  0.132 -0.073 -0.126 -0.135 -0.135
 0.412  1.225  0.134 -0.071 -0.125 -0.134 -0.134
 0.414  1.227  0.136 -0.069 -0.123 -0.133 -0.133
 0.416  1.229  0.139 -0.068 -0.122 -0.132 -0.132
 0.418  1.231  0.142 -0.066 -0.120 -0.130 -0.130
 0.420  1.233  0.144 -0.064 -0.119 -0.130 -0.130
 0.422  1.234  0.146 -0.063 -0.118 -0.128 -0.128
 0.424  1.236  0.149 -0.061 -0.117 -0.127 -0.127
 0.426  1.238  0.152 -0.059 -0.116 -0.126 -0.126
 0.428  1.240  0.154 -0.057 -0.115 -0.125 -0.125
 0.430  1.241  0.156 -0.056 -0.113 -0.123 -0.123
 0.432  1.243  0.159 -0.054 -0.112 -0.122 -0.122
 0.434  1.245  0.162 -0.052 -0.111 -0.121 -0.121
 0.436  1.247  0.164 -0.051 -0.110 -0.120 -0.120
 0.438  1.249  0.166 -0.049 -0.109 -0.119 -0.119
 0.440  1.250  0.168 -0.047 -0.107 -0.118 -0.118
 0.442  1.252  0.171 -0.046 -0.107 -0.117 -0.117
 0.444  1.254  0.173 -0.044 -0.105 -0.116 -0.116
 0.446  1.256  0.175 -0.042 -0.104 -0.115 -0.115
 0.448  1.257  0.178 -0.041 -0.103 -0.114 -0.114
 0.450  1.259  0.180 -0.040 -0.102 -0.112 -0.112
 0.452  1.261  0.182 -0.038 -0.101 -0.112 -0.112
 0.454  1.263  0.184 -0.036 -0.100 -0.110 -0.110
 0.456  1.264  0.187 -0.035 -0.098 -0.109 -0.109
 0.458  1.266  0.188 -0.034 -0.097 -0.109 -0.109
 0.460  1.268  0.191 -0.033 -0.096 -0.108 -0.108
 0.462  1.270  0.193 -0.031 -0.095 -0.107 -0.107
 0.464  1.272  0.194 -0.030 -0.094 -0.106 -0.106
 0.466  1.273  0.197 -0.029 -0.093 -0.105 -0.105
 0.468  1.276  0.198 -0.028 -0.092 -0.104 -0.104
 0.470  1.278  0.200 -0.026 -0.091 -0.103 -0.103
 0.472  1.279  0.202 -0.025 -0.089 -0.102 -0.102
 0.474  1.281  0.204 -0.024 -0.089 -0.102 -0.102
 0.476  1.283  0.205 -0.023 -0.087 -0.101 -0.101
 0.478  1.285  0.207 -0.022 -0.086 -0.100 -0.100
 0.480  1.287  0.209 -0.021 -0.085 -0.099 -0.099
 0.482  1.289  0.210 -0.021 -0.084 -0.098 -0.098
 0.484  1.291  0.212 -0.020 -0.083 -0.097 -0.097
 0.486  1.293  0.213 -0.018 -0.082 -0.097 -0.097
 0.488  1.295  0.215 -0.018 -0.081 -0.096 -0.096
 0.490  1.297  0.217 -0.017 -0.080 -0.095 -0.095
 0.492  1.299  0.218 -0.016 -0.078 -0.094 -0.094
 0.494  1.302  0.219 -0.015 -0.077 -0.094 -0.094
 0.496  1.303  0.220 -0.015 -0.076 -0.093 -0.093
 0.498  1.306  0.222 -0.014 -0.075 -0.093 -0.093
 0.500  1.308  0.223 -0.013 -0.074 -0.092 -0.092
 0.502  1.310  0.224 -0.013 -0.073 -0.091 -0.091
 0.504  1.312  0.226 -0.012 -0.072 -0.091 -0.091
 0.506  1.314  0.226 -0.011 -0.071 -0.090 -0.090
 0.508  1.317  0.228 -0.010 -0.070 -0.089 -0.089
 0.510  1.318  0.229 -0.010 -0.069 -0.089 -0.089
 0.512  1.320  0.230 -0.009 -0.067 -0.088 -0.088
 0.514  1.322  0.231 -0.009 -0.066 -0.087 -0.087
 0.516  1.324  0.233 -0.008 -0.065 -0.087 -0.087
 0.518  1.325  0.233 -0.007 -0.064 -0.086 -0.086
 0.520  1.327  0.235 -0.007 -0.063 -0.086 -0.086
 0.522  1.329  0.236 -0.006 -0.062 -0.085 -0.085
 0.524  1.330  0.236 -0.005 -0.061 -0.084 -0.084
 0.526  1.332  0.238 -0.005 -0.060 -0.083 -0.083
 0.528  1.333  0.239 -0.004 -0.059 -0.083 -0.083
 0.530  1.334  0.240 -0.003 -0.058 -0.082 -0.082
 0.532  1.335  0.241 -0.003 -0.057 -0.082 -0.082
 0.534  1.337  0.242 -0.001 -0.056 -0.081 -0.081
 0.536  1.338  0.243 -0.001 -0.055 -0.081 -0.081
 0.538  1.339  0.244 -0.000 -0.054 -0.080 -0.080
 0.540  1.340  0.245  0.001 -0.053 -0.080 -0.080
 0.542  1.341  0.246  0.001 -0.052 -0.079 -0.079
 0.544  1.341  0.247  0.002 -0.051 -0.078 -0.078
 0.546  1.342  0.248  0.003 -0.050 -0.078 -0.078
 0.548  1.342  0.249  0.003 -0.049 -0.077 -0.077
 0.550  1.343  0.250  0.004 -0.048 -0.077 -0.077
 0.552  1.343  0.251  0.005 -0.047 -0.076 -0.076
 0.554  1.344  0.252  0.006 -0.046 -0.076 -0.076
 0.556  1.344  0.252  0.007 -0.046 -0.075 -0.075
 0.558  1.345  0.253  0.008 -0.045 -0.075 -0.075
 0.560  1.345  0.255  0.008 -0.044 -0.074 -0.074
 0.562  1.345  0.255  0.009 -0.043 -0.074 -0.074
 0.564  1.345  0.256  0.010 -0.042 -0.073 -0.073
 0.566  1.345  0.257  0.011 -0.042 -0.073 -0.073
 0.568  1.345  0.258  0.012 -0.040 -0.072 -0.072
 0.570  1.345  0.258  0.012 -0.039 -0.072 -0.072
 0.572  1.344  0.259  0.013 -0.039 -0.071 -0.071
 0.574  1.344  0.260  0.014 -0.038 -0.071 -0.071
 0.576  1.344  0.261  0.015 -0.037 -0.070 -0.070
 0.578  1.343  0.262  0.016 -0.037 -0.070 -0.070
 0.580  1.343  0.262  0.017 -0.036 -0.069 -0.069
 0.582  1.343  0.263  0.018 -0.035 -0.069 -0.069
 0.584  1.342  0.264  0.018 -0.034 -0.068 -0.068
 0.586  1.342  0.265  0.019 -0.033 -0.068 -0.068
 0.588  1.342  0.265  0.020 -0.033 -0.068 -0.068
 0.590  1.341  0.266  0.021 -0.032 -0.067 -0.067
 0.592  1.341  0.267  0.022 -0.031 -0.067 -0.067
 0.594  1.341  0.268  0.022 -0.030 -0.066 -0.066
 0.596  1.341  0.268  0.024 -0.030 -0.066 -0.066
 0.598  1.341  0.268  0.025 -0.029 -0.065 -0.065
 0.600  1.341  0.269  0.025 -0.028 -0.065 -0.065
 0.602  1.341  0.270  0.026 -0.028 -0.065 -0.065
 0.604  1.341  0.270  0.027 -0.027 -0.064 -0.064
 0.606  1.341  0.271  0.028 -0.026 -0.064 -0.064
 0.608  1.340  0.271  0.028 -0.026 -0.063 -0.063
 0.610  1.340  0.271  0.029 -0.025 -0.063 -0.063
 0.612  1.340  0.271  0.030 -0.024 -0.063 -0.063
 0.614  1.340  0.272  0.031 -0.024 -0.062 -0.062
 0.616  1.340  0.272  0.032 -0.023 -0.062 -0.062
 0.618  1.340  0.273  0.033 -0.023 -0.061 -0.061
 0.620  1.340  0.273  0.034 -0.022 -0.061 -0.061
 0.622  1.340  0.274  0.034 -0.021 -0.060 -0.060
 0.624  1.340  0.274  0.035 -0.021 -0.060 -0.060
 0.626  1.340  0.274  0.036 -0.020 -0.060 -0.060
 0.628  1.340  0.274  0.037 -0.019 -0.059 -0.059
 0.630  1.340  0.274  0.038 -0.019 -0.059 -0.059
 0.632  1.340  0.274  0.038 -0.019 -0.058 -0.058
 0.634  1.340  0.274  0.039 -0.018 -0.058 -0.058
 0.636  1.341  0.274  0.040 -0.017 -0.058 -0.058
 0.638  1.341  0.274  0.040 -0.017 -0.057 -0.057
 0.640  1.341  0.275  0.042 -0.016 -0.057 -0.057
 0.642  1.341  0.275  0.042 -0.016 -0.057 -0.057
 0.644  1.341  0.275  0.043 -0.015 -0.056 -0.056
 0.646  1.341  0.275  0.044 -0.015 -0.056 -0.056
 0.648  1.341  0.275  0.045 -0.014 -0.056 -0.056
 0.650  1.341  0.275  0.046 -0.014 -0.055 -0.055
 0.652  1.342  0.275  0.047 -0.013 -0.055 -0.055
 0.654  1.342  0.275  0.047 -0.012 -0.055 -0.055
 0.656  1.342  0.276  0.048 -0.012 -0.055 -0.055
 0.658  1.343  0.276  0.050 -0.012 -0.054 -0.054
 0.660  1.343  0.276  0.051 -0.011 -0.054 -0.054
 0.662  1.343  0.277  0.052 -0.011 -0.054 -0.054
 0.664  1.344  0.277  0.053 -0.010 -0.053 -0.053
 0.666  1.344  0.278  0.054 -0.010 -0.053 -0.053
 0.668  1.344  0.278  0.055 -0.009 -0.053 -0.053
 0.670  1.345  0.278  0.056 -0.008 -0.053 -0.053
 0.672  1.345  0.279  0.057 -0.008 -0.052 -0.052
 0.674  1.346  0.280  0.058 -0.007 -0.052 -0.052
 0.676  1.346  0.281  0.060 -0.007 -0.052 -0.052
 0.678  1.346  0.281  0.061 -0.006 -0.052 -0.052
 0.680  1.347  0.282  0.062 -0.006 -0.052 -0.052
 0.682  1.347  0.283  0.063 -0.005 -0.051 -0.051
 0.684  1.348  0.284  0.064 -0.004 -0.051 -0.051
 0.686  1.348  0.285  0.066 -0.003 -0.051 -0.051
 0.688  1.348  0.286  0.067 -0.003 -0.051 -0.051
 0.690  1.348  0.287  0.069 -0.002 -0.050 -0.050
 0.692  1.349  0.288  0.070 -0.001 -0.050 -0.050
 0.694  1.349  0.290  0.071 -0.001 -0.050 -0.050
 0.696  1.350  0.291  0.073  0.000 -0.050 -0.050
 0.698  1.351  0.292  0.074  0.001 -0.050 -0.050
 0.700  1.351  0.294  0.076  0.002 -0.050 -0.050
 0.702  1.352  0.295  0.078  0.003 -0.050 -0.050
 0.704  1.352  0.297  0.079  0.003 -0.050 -0.050
 0.706  1.353  0.298  0.081  0.004 -0.049 -0.049
 0.708  1.354  0.300  0.082  0.005 -0.049 -0.049
 0.710  1.354  0.301  0.085  0.006 -0.049 -0.049
 0.712  1.355  0.303  0.086  0.007 -0.049 -0.049
 0.714  1.355  0.305  0.088  0.008 -0.048 -0.048
 0.716  1.356  0.307  0.089  0.009 -0.048 -0.048
 0.718  1.356  0.309  0.091  0.010 -0.047 -0.047
 0.720  1.356  0.310  0.093  0.011 -0.047 -0.047
 0.722  1.357  0.312  0.094  0.012 -0.047 -0.047
 0.724  1.358  0.313  0.095  0.014 -0.046 -0.046
 0.726  1.359  0.315  0.096  0.015 -0.046 -0.046
 0.728  1.360  0.316  0.097  0.016 -0.045 -0.045
 0.730  1.361  0.317  0.098  0.017 -0.045 -0.045
 0.732  1.363  0.318  0.099  0.017 -0.044 -0.044
 0.734  1.364  0.319  0.099  0.018 -0.043 -0.043
 0.736  1.365  0.319  0.099  0.019 -0.043 -0.043
 0.738  1.366  0.319  0.099  0.020 -0.042 -0.042
 0.740  1.368  0.319  0.099  0.020 -0.041 -0.041
 0.742  1.370  0.319  0.099  0.021 -0.040 -0.040
 0.744  1.371  0.319  0.098  0.021 -0.039 -0.039
 0.746  1.373  0.319  0.098  0.021 -0.039 -0.039
 0.748  1.375  0.318  0.097  0.021 -0.038 -0.038
 0.750  1.377  0.317  0.096  0.021 -0.037 -0.037
 0.752  1.379  0.316  0.095  0.021 -0.036 -0.036
 0.754  1.380  0.316  0.094  0.021 -0.034 -0.034
 0.756  1.382  0.314  0.093  0.020 -0.034 -0.034
 0.758  1.384  0.313  0.091  0.019 -0.032 -0.032
 0.760  1.387  0.311  0.089  0.019 -0.031 -0.031
 0.762  1.388  0.310  0.087  0.018 -0.030 -0.030
 0.764  1.391  0.308  0.086  0.017 -0.029 -0.029
 0.766  1.394  0.306  0.083  0.015 -0.027 -0.027
 0.768  1.396  0.303  0.081  0.014 -0.026 -0.026
 0.770  1.399  0.301  0.078  0.012 -0.025 -0.025
 0.772  1.402  0.299  0.076  0.011 -0.023 -0.023
 0.774  1.405  0.297  0.073  0.009 -0.022 -0.022
 0.776  1.408  0.294  0.070  0.007 -0.020 -0.020
 0.778  1.411  0.290  0.067  0.005 -0.019 -0.019
 0.780  1.415  0.287  0.063  0.003 -0.017 -0.017
 0.782  1.418  0.284  0.060  0.001 -0.016 -0.016
 0.784  1.421  0.281  0.056 -0.001 -0.014 -0.014
 0.786  1.425  0.277  0.052 -0.004 -0.013 -0.013
 0.788  1.427  0.273  0.048 -0.007 -0.011 -0.011
 0.790  1.431  0.268  0.044 -0.010 -0.010 -0.010
 0.792  1.433  0.265  0.039 -0.012 -0.008 -0.008
 0.794  1.436  0.260  0.035 -0.016 -0.007 -0.007
 0.796  1.439  0.255  0.031 -0.019 -0.006 -0.006
 0.798  1.440  0.250  0.026 -0.022 -0.004 -0.004
 0.800  1.442  0.245  0.021 -0.026 -0.003 -0.003
 0.802  1.444  0.239  0.016 -0.030 -0.001 -0.001
 0.804  1.445  0.234  0.011 -0.033  0.000  0.000
 0.806  1.446  0.229  0.006 -0.037  0.002  0.002
 0.808  1.447  0.223  0.001 -0.041  0.003  0.003
