# IsPeriodic    : True
# Period        : 0.459303 days
# Normalization : <g_mag>=0
# 
# Phase u_mag  g_mag  r_mag  i_mag  z_mag  y_mag
 0.000  0.661 -0.419 -0.362 -0.301 -0.303 -0.303
 0.002  0.661 -0.419 -0.362 -0.301 -0.303 -0.303
 0.004  0.661 -0.418 -0.362 -0.301 -0.303 -0.303
 0.006  0.662 -0.418 -0.361 -0.300 -0.302 -0.302
 0.008  0.663 -0.418 -0.361 -0.300 -0.302 -0.302
 0.010  0.664 -0.417 -0.361 -0.300 -0.301 -0.301
 0.012  0.665 -0.417 -0.360 -0.299 -0.300 -0.300
 0.014  0.666 -0.416 -0.359 -0.298 -0.299 -0.299
 0.016  0.667 -0.415 -0.359 -0.297 -0.298 -0.298
 0.018  0.669 -0.414 -0.358 -0.296 -0.297 -0.297
 0.020  0.670 -0.413 -0.358 -0.295 -0.295 -0.295
 0.022  0.673 -0.412 -0.357 -0.294 -0.294 -0.294
 0.024  0.674 -0.411 -0.356 -0.293 -0.292 -0.292
 0.026  0.676 -0.409 -0.355 -0.292 -0.291 -0.291
 0.028  0.678 -0.408 -0.354 -0.291 -0.290 -0.290
 0.030  0.679 -0.406 -0.353 -0.290 -0.288 -0.288
 0.032  0.681 -0.405 -0.352 -0.289 -0.287 -0.287
 0.034  0.684 -0.403 -0.351 -0.288 -0.286 -0.286
 0.036  0.685 -0.401 -0.349 -0.287 -0.285 -0.285
 0.038  0.687 -0.400 -0.348 -0.286 -0.284 -0.284
 0.040  0.690 -0.398 -0.346 -0.285 -0.283 -0.283
 0.042  0.692 -0.396 -0.345 -0.284 -0.282 -0.282
 0.044  0.694 -0.394 -0.343 -0.282 -0.280 -0.280
 0.046  0.697 -0.392 -0.341 -0.282 -0.280 -0.280
 0.048  0.699 -0.390 -0.340 -0.280 -0.278 -0.278
 0.050  0.701 -0.387 -0.338 -0.279 -0.277 -0.277
 0.052  0.704 -0.385 -0.336 -0.278 -0.276 -0.276
 0.054  0.707 -0.382 -0.334 -0.277 -0.275 -0.275
 0.056  0.710 -0.380 -0.332 -0.276 -0.274 -0.274
 0.058  0.713 -0.377 -0.330 -0.275 -0.273 -0.273
 0.060  0.716 -0.374 -0.328 -0.274 -0.272 -0.272
 0.062  0.719 -0.372 -0.325 -0.273 -0.271 -0.271
 0.064  0.722 -0.369 -0.323 -0.272 -0.269 -0.269
 0.066  0.726 -0.366 -0.320 -0.270 -0.268 -0.268
 0.068  0.729 -0.362 -0.318 -0.270 -0.267 -0.267
 0.070  0.733 -0.359 -0.316 -0.268 -0.267 -0.267
 0.072  0.736 -0.356 -0.313 -0.267 -0.265 -0.265
 0.074  0.739 -0.353 -0.310 -0.266 -0.264 -0.264
 0.076  0.743 -0.349 -0.308 -0.265 -0.264 -0.264
 0.078  0.747 -0.346 -0.305 -0.264 -0.262 -0.262
 0.080  0.750 -0.343 -0.302 -0.263 -0.261 -0.261
 0.082  0.754 -0.339 -0.300 -0.261 -0.261 -0.261
 0.084  0.758 -0.336 -0.297 -0.261 -0.259 -0.259
 0.086  0.761 -0.333 -0.295 -0.259 -0.258 -0.258
 0.088  0.765 -0.329 -0.292 -0.258 -0.257 -0.257
 0.090  0.768 -0.326 -0.290 -0.257 -0.256 -0.256
 0.092  0.772 -0.323 -0.288 -0.256 -0.255 -0.255
 0.094  0.776 -0.320 -0.285 -0.255 -0.254 -0.254
 0.096  0.779 -0.316 -0.283 -0.253 -0.253 -0.253
 0.098  0.783 -0.313 -0.280 -0.252 -0.252 -0.252
 0.100  0.787 -0.310 -0.278 -0.251 -0.251 -0.251
 0.102  0.790 -0.307 -0.276 -0.250 -0.250 -0.250
 0.104  0.793 -0.303 -0.274 -0.249 -0.248 -0.248
 0.106  0.797 -0.300 -0.272 -0.247 -0.247 -0.247
 0.108  0.801 -0.297 -0.270 -0.246 -0.246 -0.246
 0.110  0.805 -0.294 -0.268 -0.245 -0.245 -0.245
 0.112  0.808 -0.291 -0.266 -0.243 -0.243 -0.243
 0.114  0.811 -0.288 -0.264 -0.242 -0.242 -0.242
 0.116  0.815 -0.284 -0.262 -0.240 -0.241 -0.241
 0.118  0.819 -0.281 -0.260 -0.239 -0.239 -0.239
 0.120  0.822 -0.279 -0.258 -0.237 -0.238 -0.238
 0.122  0.825 -0.276 -0.257 -0.236 -0.237 -0.237
 0.124  0.829 -0.273 -0.255 -0.234 -0.235 -0.235
 0.126  0.833 -0.269 -0.253 -0.233 -0.234 -0.234
 0.128  0.836 -0.266 -0.252 -0.231 -0.232 -0.232
 0.130  0.839 -0.263 -0.250 -0.230 -0.230 -0.230
 0.132  0.843 -0.261 -0.249 -0.228 -0.229 -0.229
 0.134  0.846 -0.258 -0.247 -0.227 -0.227 -0.227
 0.136  0.850 -0.255 -0.246 -0.225 -0.226 -0.226
 0.138  0.854 -0.252 -0.244 -0.224 -0.224 -0.224
 0.140  0.857 -0.249 -0.243 -0.222 -0.222 -0.222
 0.142  0.860 -0.246 -0.241 -0.221 -0.220 -0.220
 0.144  0.864 -0.243 -0.240 -0.219 -0.219 -0.219
 0.146  0.868 -0.240 -0.239 -0.217 -0.217 -0.217
 0.148  0.871 -0.238 -0.238 -0.216 -0.215 -0.215
 0.150  0.874 -0.235 -0.236 -0.214 -0.214 -0.214
 0.152  0.877 -0.232 -0.235 -0.212 -0.212 -0.212
 0.154  0.881 -0.229 -0.234 -0.210 -0.210 -0.210
 0.156  0.885 -0.227 -0.232 -0.209 -0.208 -0.208
 0.158  0.888 -0.224 -0.231 -0.207 -0.206 -0.206
 0.160  0.891 -0.221 -0.229 -0.205 -0.204 -0.204
 0.162  0.894 -0.218 -0.228 -0.203 -0.203 -0.203
 0.164  0.898 -0.215 -0.227 -0.201 -0.201 -0.201
 0.166  0.901 -0.212 -0.225 -0.200 -0.199 -0.199
 0.168  0.905 -0.209 -0.223 -0.198 -0.197 -0.197
 0.170  0.908 -0.206 -0.222 -0.196 -0.196 -0.196
 0.172  0.911 -0.203 -0.220 -0.194 -0.194 -0.194
 0.174  0.914 -0.200 -0.218 -0.193 -0.192 -0.192
 0.176  0.918 -0.197 -0.217 -0.191 -0.191 -0.191
 0.178  0.921 -0.194 -0.215 -0.190 -0.189 -0.189
 0.180  0.924 -0.191 -0.213 -0.188 -0.187 -0.187
 0.182  0.928 -0.188 -0.212 -0.186 -0.186 -0.186
 0.184  0.931 -0.185 -0.210 -0.185 -0.185 -0.185
 0.186  0.934 -0.182 -0.208 -0.183 -0.183 -0.183
 0.188  0.937 -0.179 -0.207 -0.182 -0.182 -0.182
 0.190  0.940 -0.175 -0.205 -0.180 -0.180 -0.180
 0.192  0.943 -0.173 -0.203 -0.179 -0.179 -0.179
 0.194  0.947 -0.170 -0.201 -0.177 -0.178 -0.178
 0.196  0.950 -0.166 -0.199 -0.176 -0.176 -0.176
 0.198  0.953 -0.163 -0.197 -0.175 -0.175 -0.175
 0.200  0.956 -0.160 -0.195 -0.173 -0.174 -0.174
 0.202  0.960 -0.157 -0.193 -0.172 -0.173 -0.173
 0.204  0.963 -0.154 -0.191 -0.171 -0.171 -0.171
 0.206  0.966 -0.150 -0.189 -0.170 -0.170 -0.170
 0.208  0.969 -0.147 -0.188 -0.168 -0.169 -0.169
 0.210  0.972 -0.144 -0.185 -0.167 -0.168 -0.168
 0.212  0.975 -0.141 -0.183 -0.166 -0.167 -0.167
 0.214  0.978 -0.137 -0.181 -0.164 -0.166 -0.166
 0.216  0.981 -0.134 -0.179 -0.163 -0.165 -0.165
 0.218  0.984 -0.131 -0.177 -0.162 -0.164 -0.164
 0.220  0.987 -0.127 -0.174 -0.161 -0.163 -0.163
 0.222  0.990 -0.124 -0.172 -0.160 -0.162 -0.162
 0.224  0.993 -0.121 -0.171 -0.159 -0.161 -0.161
 0.226  0.996 -0.118 -0.168 -0.158 -0.160 -0.160
 0.228  0.999 -0.114 -0.166 -0.157 -0.159 -0.159
 0.230  1.002 -0.110 -0.164 -0.155 -0.158 -0.158
 0.232  1.005 -0.108 -0.162 -0.155 -0.157 -0.157
 0.234  1.008 -0.104 -0.160 -0.153 -0.157 -0.157
 0.236  1.011 -0.101 -0.157 -0.152 -0.155 -0.155
 0.238  1.013 -0.098 -0.155 -0.151 -0.155 -0.155
 0.240  1.016 -0.095 -0.153 -0.150 -0.154 -0.154
 0.242  1.019 -0.091 -0.151 -0.149 -0.153 -0.153
 0.244  1.022 -0.088 -0.149 -0.148 -0.152 -0.152
 0.246  1.025 -0.085 -0.146 -0.147 -0.151 -0.151
 0.248  1.027 -0.082 -0.144 -0.146 -0.150 -0.150
 0.250  1.030 -0.078 -0.142 -0.145 -0.149 -0.149
 0.252  1.033 -0.075 -0.140 -0.143 -0.148 -0.148
 0.254  1.035 -0.072 -0.138 -0.142 -0.146 -0.146
 0.256  1.038 -0.069 -0.135 -0.141 -0.145 -0.145
 0.258  1.041 -0.065 -0.133 -0.140 -0.144 -0.144
 0.260  1.043 -0.062 -0.131 -0.138 -0.143 -0.143
 0.262  1.046 -0.059 -0.129 -0.137 -0.142 -0.142
 0.264  1.049 -0.056 -0.127 -0.136 -0.141 -0.141
 0.266  1.052 -0.052 -0.124 -0.134 -0.140 -0.140
 0.268  1.055 -0.049 -0.122 -0.133 -0.138 -0.138
 0.270  1.057 -0.046 -0.120 -0.132 -0.137 -0.137
 0.272  1.059 -0.043 -0.118 -0.131 -0.136 -0.136
 0.274  1.062 -0.040 -0.116 -0.129 -0.135 -0.135
 0.276  1.064 -0.036 -0.113 -0.128 -0.133 -0.133
 0.278  1.067 -0.033 -0.111 -0.126 -0.132 -0.132
 0.280  1.069 -0.030 -0.109 -0.125 -0.131 -0.131
 0.282  1.072 -0.027 -0.107 -0.123 -0.130 -0.130
 0.284  1.075 -0.023 -0.105 -0.122 -0.128 -0.128
 0.286  1.077 -0.020 -0.102 -0.120 -0.127 -0.127
 0.288  1.079 -0.017 -0.100 -0.119 -0.125 -0.125
 0.290  1.082 -0.014 -0.098 -0.117 -0.124 -0.124
 0.292  1.084 -0.011 -0.096 -0.115 -0.122 -0.122
 0.294  1.086 -0.008 -0.094 -0.114 -0.121 -0.121
 0.296  1.089 -0.005 -0.092 -0.112 -0.119 -0.119
 0.298  1.092 -0.002 -0.090 -0.110 -0.118 -0.118
 0.300  1.094  0.001 -0.088 -0.109 -0.117 -0.117
 0.302  1.096  0.004 -0.085 -0.107 -0.115 -0.115
 0.304  1.098  0.007 -0.083 -0.106 -0.114 -0.114
 0.306  1.101  0.010 -0.081 -0.104 -0.112 -0.112
 0.308  1.104  0.013 -0.079 -0.102 -0.111 -0.111
 0.310  1.106  0.016 -0.077 -0.100 -0.110 -0.110
 0.312  1.108  0.019 -0.075 -0.099 -0.108 -0.108
 0.314  1.110  0.021 -0.073 -0.097 -0.107 -0.107
 0.316  1.113  0.024 -0.071 -0.096 -0.105 -0.105
 0.318  1.115  0.027 -0.070 -0.094 -0.104 -0.104
 0.320  1.118  0.029 -0.067 -0.092 -0.103 -0.103
 0.322  1.120  0.032 -0.066 -0.091 -0.102 -0.102
 0.324  1.122  0.034 -0.064 -0.089 -0.100 -0.100
 0.326  1.125  0.037 -0.062 -0.088 -0.099 -0.099
 0.328  1.127  0.039 -0.060 -0.086 -0.098 -0.098
 0.330  1.130  0.042 -0.058 -0.084 -0.097 -0.097
 0.332  1.132  0.044 -0.056 -0.082 -0.095 -0.095
 0.334  1.134  0.046 -0.054 -0.081 -0.094 -0.094
 0.336  1.136  0.049 -0.053 -0.079 -0.093 -0.093
 0.338  1.139  0.051 -0.051 -0.078 -0.092 -0.092
 0.340  1.141  0.053 -0.049 -0.076 -0.091 -0.091
 0.342  1.144  0.055 -0.047 -0.075 -0.089 -0.089
 0.344  1.146  0.058 -0.045 -0.073 -0.088 -0.088
 0.346  1.148  0.060 -0.044 -0.072 -0.087 -0.087
 0.348  1.150  0.062 -0.042 -0.070 -0.086 -0.086
 0.350  1.153  0.064 -0.040 -0.069 -0.085 -0.085
 0.352  1.155  0.066 -0.039 -0.067 -0.084 -0.084
 0.354  1.158  0.068 -0.037 -0.066 -0.083 -0.083
 0.356  1.160  0.070 -0.036 -0.064 -0.082 -0.082
 0.358  1.162  0.072 -0.034 -0.063 -0.081 -0.081
 0.360  1.164  0.073 -0.032 -0.061 -0.080 -0.080
 0.362  1.167  0.076 -0.031 -0.060 -0.079 -0.079
 0.364  1.170  0.078 -0.029 -0.058 -0.078 -0.078
 0.366  1.172  0.079 -0.028 -0.057 -0.077 -0.077
 0.368  1.174  0.081 -0.026 -0.055 -0.076 -0.076
 0.370  1.176  0.084 -0.025 -0.054 -0.075 -0.075
 0.372  1.178  0.085 -0.023 -0.052 -0.074 -0.074
 0.374  1.181  0.087 -0.021 -0.051 -0.073 -0.073
 0.376  1.182  0.089 -0.020 -0.049 -0.073 -0.073
 0.378  1.184  0.091 -0.018 -0.048 -0.071 -0.071
 0.380  1.187  0.093 -0.016 -0.046 -0.070 -0.070
 0.382  1.189  0.095 -0.015 -0.045 -0.070 -0.070
 0.384  1.191  0.097 -0.013 -0.044 -0.069 -0.069
 0.386  1.193  0.099 -0.011 -0.043 -0.067 -0.067
 0.388  1.195  0.102 -0.010 -0.041 -0.067 -0.067
 0.390  1.197  0.103 -0.008 -0.040 -0.066 -0.066
 0.392  1.199  0.105 -0.006 -0.038 -0.064 -0.064
 0.394  1.201  0.107 -0.005 -0.037 -0.064 -0.064
 0.396  1.202  0.110 -0.003 -0.035 -0.062 -0.062
 0.398  1.204  0.112 -0.001 -0.034 -0.062 -0.062
 0.400  1.206  0.114  0.001 -0.033 -0.060 -0.060
 0.402  1.208  0.116  0.002 -0.031 -0.059 -0.059
 0.404  1.210  0.118  0.004 -0.030 -0.058 -0.058
 0.406  1.212  0.120  0.006 -0.029 -0.057 -0.057
 0.408  1.213  0.122  0.007 -0.028 -0.056 -0.056
 0.410  1.215  0.125  0.009 -0.026 -0.055 -0.055
 0.412  1.216  0.127  0.011 -0.025 -0.053 -0.053
 0.414  1.219  0.129  0.013 -0.024 -0.052 -0.052
 0.416  1.220  0.132  0.014 -0.022 -0.051 -0.051
 0.418  1.222  0.134  0.016 -0.021 -0.050 -0.050
 0.420  1.223  0.136  0.018 -0.019 -0.049 -0.049
 0.422  1.224  0.138  0.020 -0.018 -0.048 -0.048
 0.424  1.226  0.141  0.022 -0.017 -0.046 -0.046
 0.426  1.227  0.143  0.023 -0.016 -0.045 -0.045
 0.428  1.229  0.146  0.025 -0.015 -0.044 -0.044
 0.430  1.230  0.148  0.027 -0.013 -0.043 -0.043
 0.432  1.232  0.150  0.029 -0.012 -0.041 -0.041
 0.434  1.233  0.153  0.030 -0.011 -0.040 -0.040
 0.436  1.235  0.155  0.032 -0.009 -0.039 -0.039
 0.438  1.236  0.157  0.034 -0.008 -0.037 -0.037
 0.440  1.238  0.159  0.036 -0.007 -0.036 -0.036
 0.442  1.239  0.161  0.038 -0.006 -0.035 -0.035
 0.444  1.241  0.164  0.039 -0.005 -0.034 -0.034
 0.446  1.242  0.166  0.041 -0.003 -0.032 -0.032
 0.448  1.244  0.168  0.042 -0.002 -0.031 -0.031
 0.450  1.245  0.170  0.044 -0.001 -0.030 -0.030
 0.452  1.247  0.172  0.045 -0.000 -0.029 -0.029
 0.454  1.248  0.174  0.047  0.001 -0.027 -0.027
 0.456  1.250  0.177  0.048  0.003 -0.026 -0.026
 0.458  1.251  0.178  0.050  0.004 -0.025 -0.025
 0.460  1.253  0.180  0.051  0.005 -0.024 -0.024
 0.462  1.254  0.182  0.052  0.006 -0.023 -0.023
 0.464  1.256  0.184  0.053  0.007 -0.021 -0.021
 0.466  1.257  0.186  0.055  0.009 -0.021 -0.021
 0.468  1.259  0.187  0.056  0.009 -0.019 -0.019
 0.470  1.261  0.189  0.057  0.011 -0.018 -0.018
 0.472  1.262  0.191  0.058  0.012 -0.017 -0.017
 0.474  1.264  0.192  0.059  0.013 -0.016 -0.016
 0.476  1.265  0.194  0.061  0.014 -0.015 -0.015
 0.478  1.267  0.196  0.062  0.015 -0.014 -0.014
 0.480  1.269  0.198  0.063  0.017 -0.013 -0.013
 0.482  1.270  0.199  0.063  0.018 -0.012 -0.012
 0.484  1.272  0.200  0.064  0.019 -0.011 -0.011
 0.486  1.273  0.202  0.066  0.020 -0.010 -0.010
 0.488  1.276  0.203  0.066  0.021 -0.009 -0.009
 0.490  1.277  0.205  0.067  0.022 -0.008 -0.008
 0.492  1.279  0.206  0.068  0.024 -0.007 -0.007
 0.494  1.281  0.207  0.069  0.025 -0.006 -0.006
 0.496  1.282  0.208  0.069  0.026 -0.005 -0.005
 0.498  1.285  0.210  0.070  0.027 -0.004 -0.004
 0.500  1.286  0.211  0.071  0.028 -0.004 -0.004
 0.502  1.288  0.212  0.072  0.029 -0.003 -0.003
 0.504  1.290  0.213  0.072  0.030 -0.002 -0.002
 0.506  1.291  0.214  0.073  0.032 -0.002 -0.002
 0.508  1.293  0.216  0.074  0.033 -0.001 -0.001
 0.510  1.295  0.216  0.074  0.034  0.000  0.000
 0.512  1.296  0.218  0.075  0.035  0.001  0.001
 0.514  1.298  0.218  0.075  0.036  0.002  0.002
 0.516  1.299  0.220  0.077  0.037  0.002  0.002
 0.518  1.301  0.221  0.077  0.038  0.003  0.003
 0.520  1.302  0.222  0.078  0.039  0.004  0.004
 0.522  1.304  0.223  0.079  0.041  0.004  0.004
 0.524  1.305  0.223  0.079  0.042  0.005  0.005
 0.526  1.306  0.225  0.080  0.043  0.006  0.006
 0.528  1.307  0.226  0.080  0.044  0.007  0.007
 0.530  1.308  0.227  0.081  0.045  0.007  0.007
 0.532  1.309  0.228  0.082  0.046  0.008  0.008
 0.534  1.311  0.229  0.083  0.047  0.009  0.009
 0.536  1.311  0.230  0.084  0.048  0.009  0.009
 0.538  1.312  0.231  0.084  0.049  0.010  0.010
 0.540  1.313  0.231  0.085  0.050  0.011  0.011
 0.542  1.314  0.233  0.086  0.051  0.012  0.012
 0.544  1.314  0.234  0.087  0.052  0.012  0.012
 0.546  1.315  0.234  0.087  0.053  0.013  0.013
 0.548  1.315  0.235  0.088  0.054  0.013  0.013
 0.550  1.316  0.236  0.089  0.055  0.014  0.014
 0.552  1.316  0.237  0.090  0.056  0.015  0.015
 0.554  1.316  0.238  0.091  0.057  0.015  0.015
 0.556  1.316  0.239  0.091  0.058  0.016  0.016
 0.558  1.317  0.239  0.092  0.059  0.017  0.017
 0.560  1.317  0.241  0.093  0.060  0.018  0.018
 0.562  1.317  0.242  0.094  0.060  0.018  0.018
 0.564  1.317  0.242  0.095  0.061  0.018  0.018
 0.566  1.317  0.243  0.096  0.062  0.019  0.019
 0.568  1.317  0.244  0.097  0.063  0.020  0.020
 0.570  1.317  0.244  0.097  0.064  0.020  0.020
 0.572  1.316  0.245  0.098  0.065  0.021  0.021
 0.574  1.316  0.246  0.099  0.066  0.022  0.022
 0.576  1.316  0.247  0.100  0.066  0.022  0.022
 0.578  1.316  0.247  0.101  0.067  0.023  0.023
 0.580  1.316  0.248  0.102  0.068  0.023  0.023
 0.582  1.316  0.249  0.103  0.069  0.024  0.024
 0.584  1.315  0.249  0.103  0.070  0.025  0.025
 0.586  1.315  0.250  0.105  0.071  0.025  0.025
 0.588  1.315  0.251  0.106  0.072  0.026  0.026
 0.590  1.314  0.252  0.106  0.072  0.026  0.026
 0.592  1.314  0.252  0.107  0.073  0.027  0.027
 0.594  1.314  0.253  0.108  0.074  0.027  0.027
 0.596  1.314  0.253  0.109  0.075  0.028  0.028
 0.598  1.314  0.254  0.110  0.075  0.029  0.029
 0.600  1.314  0.254  0.111  0.076  0.029  0.029
 0.602  1.314  0.255  0.112  0.077  0.030  0.030
 0.604  1.314  0.255  0.112  0.077  0.030  0.030
 0.606  1.314  0.256  0.113  0.078  0.031  0.031
 0.608  1.313  0.256  0.114  0.079  0.031  0.031
 0.610  1.313  0.257  0.115  0.079  0.032  0.032
 0.612  1.313  0.257  0.116  0.080  0.033  0.033
 0.614  1.313  0.257  0.117  0.081  0.033  0.033
 0.616  1.313  0.257  0.118  0.082  0.034  0.034
 0.618  1.313  0.258  0.118  0.082  0.034  0.034
 0.620  1.313  0.258  0.119  0.083  0.035  0.035
 0.622  1.313  0.259  0.120  0.083  0.036  0.036
 0.624  1.313  0.259  0.121  0.084  0.036  0.036
 0.626  1.313  0.259  0.122  0.085  0.037  0.037
 0.628  1.313  0.260  0.123  0.085  0.037  0.037
 0.630  1.313  0.260  0.124  0.086  0.038  0.038
 0.632  1.313  0.260  0.124  0.086  0.039  0.039
 0.634  1.313  0.260  0.125  0.087  0.039  0.039
 0.636  1.314  0.260  0.126  0.088  0.040  0.040
 0.638  1.314  0.260  0.126  0.088  0.040  0.040
 0.640  1.314  0.260  0.128  0.089  0.041  0.041
 0.642  1.314  0.260  0.128  0.089  0.042  0.042
 0.644  1.314  0.260  0.129  0.090  0.042  0.042
 0.646  1.314  0.260  0.130  0.091  0.043  0.043
 0.648  1.314  0.260  0.131  0.091  0.044  0.044
 0.650  1.314  0.260  0.132  0.091  0.044  0.044
 0.652  1.315  0.260  0.133  0.092  0.045  0.045
 0.654  1.315  0.260  0.134  0.093  0.045  0.045
 0.656  1.315  0.261  0.135  0.093  0.046  0.046
 0.658  1.316  0.261  0.136  0.094  0.047  0.047
 0.660  1.316  0.261  0.137  0.094  0.048  0.048
 0.662  1.316  0.262  0.138  0.094  0.048  0.048
 0.664  1.316  0.262  0.139  0.095  0.049  0.049
 0.666  1.316  0.262  0.140  0.096  0.049  0.049
 0.668  1.316  0.263  0.141  0.096  0.050  0.050
 0.670  1.317  0.263  0.142  0.097  0.050  0.050
 0.672  1.317  0.264  0.144  0.097  0.051  0.051
 0.674  1.318  0.265  0.145  0.098  0.052  0.052
 0.676  1.318  0.265  0.146  0.099  0.053  0.053
 0.678  1.318  0.266  0.147  0.100  0.053  0.053
 0.680  1.319  0.267  0.148  0.100  0.054  0.054
 0.682  1.319  0.267  0.150  0.101  0.055  0.055
 0.684  1.319  0.269  0.151  0.102  0.056  0.056
 0.686  1.319  0.270  0.153  0.102  0.056  0.056
 0.688  1.320  0.270  0.154  0.103  0.057  0.057
 0.690  1.320  0.272  0.156  0.104  0.058  0.058
 0.692  1.321  0.273  0.157  0.105  0.058  0.058
 0.694  1.321  0.274  0.158  0.105  0.059  0.059
 0.696  1.322  0.275  0.160  0.106  0.060  0.060
 0.698  1.322  0.276  0.162  0.107  0.060  0.060
 0.700  1.322  0.278  0.163  0.108  0.061  0.061
 0.702  1.323  0.279  0.165  0.109  0.062  0.062
 0.704  1.323  0.280  0.167  0.109  0.063  0.063
 0.706  1.324  0.282  0.168  0.110  0.063  0.063
 0.708  1.325  0.283  0.170  0.111  0.064  0.064
 0.710  1.325  0.285  0.172  0.112  0.065  0.065
 0.712  1.325  0.287  0.174  0.113  0.066  0.066
 0.714  1.325  0.288  0.175  0.115  0.066  0.066
 0.716  1.326  0.290  0.177  0.115  0.067  0.067
 0.718  1.327  0.292  0.179  0.117  0.068  0.068
 0.720  1.327  0.293  0.180  0.118  0.069  0.069
 0.722  1.328  0.295  0.181  0.119  0.070  0.070
 0.724  1.328  0.296  0.183  0.120  0.070  0.070
 0.726  1.329  0.298  0.184  0.121  0.071  0.071
 0.728  1.330  0.298  0.185  0.122  0.072  0.072
 0.730  1.331  0.300  0.186  0.123  0.072  0.072
 0.732  1.332  0.301  0.187  0.124  0.073  0.073
 0.734  1.333  0.301  0.187  0.125  0.074  0.074
 0.736  1.334  0.301  0.187  0.126  0.075  0.075
 0.738  1.335  0.302  0.187  0.127  0.076  0.076
 0.740  1.337  0.302  0.187  0.127  0.077  0.077
 0.742  1.338  0.302  0.187  0.127  0.078  0.078
 0.744  1.339  0.302  0.186  0.128  0.079  0.079
 0.746  1.341  0.301  0.186  0.128  0.080  0.080
 0.748  1.342  0.301  0.185  0.128  0.081  0.081
 0.750  1.344  0.300  0.184  0.128  0.082  0.082
 0.752  1.345  0.299  0.183  0.128  0.083  0.083
 0.754  1.347  0.298  0.182  0.127  0.084  0.084
 0.756  1.348  0.297  0.180  0.127  0.085  0.085
 0.758  1.350  0.296  0.179  0.126  0.086  0.086
 0.760  1.352  0.294  0.177  0.125  0.088  0.088
 0.762  1.354  0.293  0.175  0.124  0.089  0.089
 0.764  1.356  0.291  0.173  0.123  0.090  0.090
 0.766  1.358  0.289  0.170  0.122  0.091  0.091
 0.768  1.360  0.287  0.168  0.121  0.092  0.092
 0.770  1.362  0.285  0.165  0.119  0.094  0.094
 0.772  1.365  0.283  0.163  0.117  0.095  0.095
 0.774  1.368  0.280  0.160  0.115  0.096  0.096
 0.776  1.370  0.278  0.157  0.113  0.098  0.098
 0.778  1.373  0.275  0.153  0.111  0.099  0.099
 0.780  1.376  0.272  0.150  0.109  0.100  0.100
 0.782  1.379  0.268  0.146  0.107  0.102  0.102
 0.784  1.381  0.265  0.142  0.104  0.103  0.103
 0.786  1.384  0.262  0.139  0.101  0.105  0.105
 0.788  1.386  0.258  0.134  0.099  0.106  0.106
 0.790  1.389  0.254  0.130  0.096  0.108  0.108
 0.792  1.391  0.250  0.125  0.093  0.109  0.109
 0.794  1.394  0.246  0.121  0.089  0.111  0.111
 0.796  1.396  0.242  0.117  0.086  0.112  0.112
 0.798  1.397  0.236  0.112  0.082  0.113  0.113
 0.800  1.399  0.231  0.107  0.079  0.115  0.115
 0.802  1.400  0.226  0.101  0.075  0.116  0.116
 0.804  1.401  0.221  0.096  0.071  0.117  0.117
 0.806  1.402  0.216  0.091  0.067  0.118  0.118
 0.808  1.403  0.210  0.085  0.063  0.119  0.119
