# IsPeriodic    : True
# Period        : 0.585401 days
# Normalization : <g_mag>=0
# 
# Phase u_mag  g_mag  r_mag  i_mag  z_mag  y_mag
 0.000  0.601 -0.470 -0.442 -0.413 -0.381 -0.381
 0.002  0.601 -0.470 -0.442 -0.413 -0.381 -0.381
 0.004  0.603 -0.469 -0.442 -0.412 -0.381 -0.381
 0.006  0.604 -0.469 -0.442 -0.412 -0.381 -0.381
 0.008  0.606 -0.467 -0.441 -0.411 -0.381 -0.381
 0.010  0.609 -0.465 -0.441 -0.411 -0.380 -0.380
 0.012  0.612 -0.463 -0.440 -0.410 -0.380 -0.380
 0.014  0.617 -0.460 -0.439 -0.409 -0.379 -0.379
 0.016  0.621 -0.457 -0.439 -0.408 -0.378 -0.378
 0.018  0.626 -0.454 -0.438 -0.408 -0.377 -0.377
 0.020  0.631 -0.450 -0.437 -0.407 -0.376 -0.376
 0.022  0.636 -0.447 -0.437 -0.406 -0.374 -0.374
 0.024  0.641 -0.443 -0.436 -0.405 -0.373 -0.373
 0.026  0.646 -0.439 -0.435 -0.404 -0.372 -0.372
 0.028  0.651 -0.435 -0.434 -0.403 -0.370 -0.370
 0.030  0.656 -0.431 -0.432 -0.402 -0.369 -0.369
 0.032  0.661 -0.428 -0.431 -0.401 -0.367 -0.367
 0.034  0.666 -0.424 -0.430 -0.400 -0.365 -0.365
 0.036  0.670 -0.420 -0.428 -0.399 -0.363 -0.363
 0.038  0.675 -0.417 -0.427 -0.398 -0.361 -0.361
 0.040  0.679 -0.412 -0.425 -0.397 -0.359 -0.359
 0.042  0.685 -0.408 -0.423 -0.396 -0.357 -0.357
 0.044  0.689 -0.405 -0.421 -0.394 -0.355 -0.355
 0.046  0.694 -0.401 -0.420 -0.393 -0.353 -0.353
 0.048  0.698 -0.397 -0.417 -0.392 -0.351 -0.351
 0.050  0.703 -0.393 -0.415 -0.391 -0.350 -0.350
 0.052  0.708 -0.389 -0.413 -0.390 -0.348 -0.348
 0.054  0.712 -0.385 -0.411 -0.389 -0.346 -0.346
 0.056  0.718 -0.382 -0.408 -0.387 -0.345 -0.345
 0.058  0.722 -0.377 -0.406 -0.387 -0.343 -0.343
 0.060  0.727 -0.373 -0.403 -0.385 -0.341 -0.341
 0.062  0.731 -0.370 -0.401 -0.384 -0.340 -0.340
 0.064  0.736 -0.366 -0.398 -0.383 -0.338 -0.338
 0.066  0.740 -0.361 -0.396 -0.381 -0.337 -0.337
 0.068  0.745 -0.358 -0.393 -0.380 -0.336 -0.336
 0.070  0.750 -0.354 -0.390 -0.379 -0.334 -0.334
 0.072  0.754 -0.350 -0.388 -0.378 -0.333 -0.333
 0.074  0.759 -0.346 -0.386 -0.376 -0.332 -0.332
 0.076  0.763 -0.341 -0.383 -0.375 -0.331 -0.331
 0.078  0.768 -0.338 -0.380 -0.373 -0.330 -0.330
 0.080  0.772 -0.334 -0.377 -0.372 -0.328 -0.328
 0.082  0.776 -0.329 -0.375 -0.371 -0.327 -0.327
 0.084  0.781 -0.326 -0.372 -0.370 -0.326 -0.326
 0.086  0.785 -0.321 -0.370 -0.368 -0.325 -0.325
 0.088  0.790 -0.318 -0.367 -0.367 -0.324 -0.324
 0.090  0.794 -0.313 -0.365 -0.366 -0.323 -0.323
 0.092  0.798 -0.309 -0.362 -0.364 -0.323 -0.323
 0.094  0.803 -0.306 -0.360 -0.363 -0.322 -0.322
 0.096  0.807 -0.301 -0.358 -0.361 -0.321 -0.321
 0.098  0.811 -0.297 -0.356 -0.360 -0.320 -0.320
 0.100  0.815 -0.294 -0.353 -0.359 -0.320 -0.320
 0.102  0.820 -0.289 -0.351 -0.357 -0.319 -0.319
 0.104  0.823 -0.285 -0.349 -0.356 -0.319 -0.319
 0.106  0.827 -0.282 -0.347 -0.354 -0.318 -0.318
 0.108  0.832 -0.278 -0.345 -0.353 -0.318 -0.318
 0.110  0.836 -0.274 -0.342 -0.352 -0.317 -0.317
 0.112  0.839 -0.271 -0.341 -0.350 -0.316 -0.316
 0.114  0.843 -0.267 -0.339 -0.349 -0.316 -0.316
 0.116  0.847 -0.263 -0.336 -0.347 -0.315 -0.315
 0.118  0.851 -0.259 -0.334 -0.346 -0.315 -0.315
 0.120  0.855 -0.256 -0.333 -0.345 -0.314 -0.314
 0.122  0.858 -0.253 -0.330 -0.344 -0.314 -0.314
 0.124  0.862 -0.249 -0.328 -0.342 -0.313 -0.313
 0.126  0.865 -0.246 -0.327 -0.341 -0.312 -0.312
 0.128  0.869 -0.242 -0.325 -0.340 -0.312 -0.312
 0.130  0.872 -0.239 -0.323 -0.338 -0.311 -0.311
 0.132  0.876 -0.236 -0.321 -0.337 -0.310 -0.310
 0.134  0.879 -0.232 -0.320 -0.335 -0.310 -0.310
 0.136  0.883 -0.229 -0.318 -0.334 -0.309 -0.309
 0.138  0.886 -0.225 -0.316 -0.333 -0.308 -0.308
 0.140  0.890 -0.222 -0.314 -0.332 -0.307 -0.307
 0.142  0.893 -0.219 -0.313 -0.330 -0.306 -0.306
 0.144  0.896 -0.216 -0.311 -0.329 -0.306 -0.306
 0.146  0.899 -0.213 -0.309 -0.328 -0.304 -0.304
 0.148  0.902 -0.210 -0.308 -0.326 -0.304 -0.304
 0.150  0.905 -0.207 -0.306 -0.325 -0.303 -0.303
 0.152  0.908 -0.204 -0.304 -0.324 -0.302 -0.302
 0.154  0.911 -0.201 -0.302 -0.322 -0.301 -0.301
 0.156  0.914 -0.198 -0.301 -0.321 -0.300 -0.300
 0.158  0.917 -0.195 -0.299 -0.320 -0.299 -0.299
 0.160  0.920 -0.192 -0.298 -0.318 -0.298 -0.298
 0.162  0.922 -0.189 -0.295 -0.317 -0.297 -0.297
 0.164  0.926 -0.186 -0.294 -0.316 -0.296 -0.296
 0.166  0.929 -0.183 -0.292 -0.315 -0.295 -0.295
 0.168  0.932 -0.180 -0.291 -0.314 -0.293 -0.293
 0.170  0.934 -0.178 -0.289 -0.312 -0.292 -0.292
 0.172  0.937 -0.175 -0.287 -0.311 -0.291 -0.291
 0.174  0.940 -0.172 -0.285 -0.310 -0.290 -0.290
 0.176  0.943 -0.169 -0.284 -0.309 -0.289 -0.289
 0.178  0.945 -0.166 -0.282 -0.307 -0.288 -0.288
 0.180  0.948 -0.163 -0.280 -0.306 -0.286 -0.286
 0.182  0.951 -0.160 -0.279 -0.305 -0.285 -0.285
 0.184  0.954 -0.157 -0.277 -0.304 -0.284 -0.284
 0.186  0.957 -0.155 -0.275 -0.302 -0.283 -0.283
 0.188  0.960 -0.152 -0.273 -0.301 -0.281 -0.281
 0.190  0.962 -0.149 -0.272 -0.300 -0.280 -0.280
 0.192  0.965 -0.146 -0.270 -0.299 -0.279 -0.279
 0.194  0.967 -0.143 -0.268 -0.297 -0.278 -0.278
 0.196  0.970 -0.140 -0.266 -0.296 -0.277 -0.277
 0.198  0.973 -0.137 -0.265 -0.295 -0.276 -0.276
 0.200  0.976 -0.134 -0.263 -0.294 -0.275 -0.275
 0.202  0.979 -0.131 -0.261 -0.292 -0.274 -0.274
 0.204  0.981 -0.128 -0.259 -0.291 -0.273 -0.273
 0.206  0.984 -0.125 -0.258 -0.290 -0.272 -0.272
 0.208  0.987 -0.122 -0.256 -0.289 -0.271 -0.271
 0.210  0.989 -0.119 -0.254 -0.288 -0.269 -0.269
 0.212  0.993 -0.116 -0.252 -0.287 -0.268 -0.268
 0.214  0.995 -0.113 -0.251 -0.285 -0.267 -0.267
 0.216  0.998 -0.110 -0.249 -0.284 -0.266 -0.266
 0.218  1.000 -0.108 -0.247 -0.283 -0.265 -0.265
 0.220  1.003 -0.105 -0.245 -0.282 -0.264 -0.264
 0.222  1.005 -0.102 -0.244 -0.281 -0.264 -0.264
 0.224  1.009 -0.099 -0.242 -0.280 -0.262 -0.262
 0.226  1.011 -0.096 -0.240 -0.278 -0.262 -0.262
 0.228  1.014 -0.092 -0.238 -0.277 -0.261 -0.261
 0.230  1.016 -0.089 -0.237 -0.276 -0.260 -0.260
 0.232  1.019 -0.086 -0.235 -0.275 -0.259 -0.259
 0.234  1.021 -0.083 -0.233 -0.274 -0.258 -0.258
 0.236  1.024 -0.080 -0.231 -0.273 -0.257 -0.257
 0.238  1.027 -0.077 -0.230 -0.271 -0.256 -0.256
 0.240  1.029 -0.074 -0.228 -0.271 -0.256 -0.256
 0.242  1.031 -0.071 -0.226 -0.269 -0.255 -0.255
 0.244  1.034 -0.068 -0.224 -0.268 -0.254 -0.254
 0.246  1.037 -0.065 -0.223 -0.267 -0.253 -0.253
 0.248  1.039 -0.062 -0.221 -0.266 -0.252 -0.252
 0.250  1.041 -0.060 -0.219 -0.265 -0.252 -0.252
 0.252  1.044 -0.057 -0.217 -0.264 -0.251 -0.251
 0.254  1.046 -0.054 -0.216 -0.263 -0.250 -0.250
 0.256  1.048 -0.052 -0.214 -0.262 -0.249 -0.249
 0.258  1.050 -0.049 -0.212 -0.260 -0.249 -0.249
 0.260  1.053 -0.046 -0.210 -0.259 -0.248 -0.248
 0.262  1.055 -0.043 -0.209 -0.258 -0.247 -0.247
 0.264  1.057 -0.040 -0.207 -0.257 -0.246 -0.246
 0.266  1.060 -0.038 -0.205 -0.256 -0.245 -0.245
 0.268  1.062 -0.035 -0.203 -0.255 -0.245 -0.245
 0.270  1.063 -0.033 -0.202 -0.254 -0.244 -0.244
 0.272  1.066 -0.031 -0.200 -0.252 -0.243 -0.243
 0.274  1.068 -0.028 -0.198 -0.252 -0.242 -0.242
 0.276  1.070 -0.026 -0.196 -0.250 -0.241 -0.241
 0.278  1.072 -0.023 -0.195 -0.249 -0.241 -0.241
 0.280  1.074 -0.021 -0.193 -0.248 -0.240 -0.240
 0.282  1.076 -0.019 -0.191 -0.247 -0.239 -0.239
 0.284  1.078 -0.016 -0.189 -0.246 -0.238 -0.238
 0.286  1.080 -0.014 -0.187 -0.245 -0.237 -0.237
 0.288  1.082 -0.011 -0.186 -0.244 -0.237 -0.237
 0.290  1.083 -0.009 -0.184 -0.243 -0.235 -0.235
 0.292  1.085 -0.008 -0.182 -0.242 -0.235 -0.235
 0.294  1.087 -0.005 -0.180 -0.240 -0.234 -0.234
 0.296  1.089 -0.003 -0.179 -0.240 -0.233 -0.233
 0.298  1.091 -0.001 -0.177 -0.238 -0.232 -0.232
 0.300  1.092  0.001 -0.175 -0.237 -0.231 -0.231
 0.302  1.094  0.003 -0.173 -0.236 -0.230 -0.230
 0.304  1.096  0.005 -0.172 -0.235 -0.229 -0.229
 0.306  1.098  0.007 -0.170 -0.234 -0.229 -0.229
 0.308  1.099  0.009 -0.169 -0.233 -0.228 -0.228
 0.310  1.101  0.011 -0.166 -0.232 -0.227 -0.227
 0.312  1.103  0.013 -0.165 -0.231 -0.226 -0.226
 0.314  1.105  0.015 -0.163 -0.230 -0.225 -0.225
 0.316  1.106  0.017 -0.162 -0.228 -0.224 -0.224
 0.318  1.108  0.019 -0.160 -0.227 -0.223 -0.223
 0.320  1.110  0.021 -0.158 -0.226 -0.222 -0.222
 0.322  1.111  0.024 -0.157 -0.225 -0.221 -0.221
 0.324  1.114  0.025 -0.155 -0.224 -0.220 -0.220
 0.326  1.115  0.027 -0.153 -0.223 -0.219 -0.219
 0.328  1.117  0.030 -0.152 -0.221 -0.218 -0.218
 0.330  1.119  0.032 -0.150 -0.220 -0.218 -0.218
 0.332  1.121  0.034 -0.149 -0.219 -0.217 -0.217
 0.334  1.123  0.035 -0.147 -0.218 -0.215 -0.215
 0.336  1.124  0.038 -0.145 -0.217 -0.215 -0.215
 0.338  1.127  0.040 -0.144 -0.215 -0.214 -0.214
 0.340  1.129  0.042 -0.142 -0.214 -0.213 -0.213
 0.342  1.130  0.044 -0.141 -0.213 -0.212 -0.212
 0.344  1.133  0.047 -0.139 -0.212 -0.211 -0.211
 0.346  1.134  0.049 -0.137 -0.210 -0.210 -0.210
 0.348  1.137  0.051 -0.136 -0.209 -0.209 -0.209
 0.350  1.138  0.053 -0.134 -0.208 -0.208 -0.208
 0.352  1.140  0.056 -0.132 -0.207 -0.207 -0.207
 0.354  1.143  0.058 -0.131 -0.205 -0.206 -0.206
 0.356  1.144  0.060 -0.129 -0.204 -0.206 -0.206
 0.358  1.146  0.062 -0.128 -0.203 -0.204 -0.204
 0.360  1.149  0.065 -0.126 -0.202 -0.204 -0.204
 0.362  1.151  0.067 -0.125 -0.200 -0.203 -0.203
 0.364  1.153  0.069 -0.123 -0.199 -0.202 -0.202
 0.366  1.155  0.071 -0.122 -0.198 -0.201 -0.201
 0.368  1.157  0.073 -0.120 -0.196 -0.200 -0.200
 0.370  1.159  0.076 -0.119 -0.195 -0.199 -0.199
 0.372  1.161  0.078 -0.117 -0.193 -0.198 -0.198
 0.374  1.163  0.080 -0.116 -0.192 -0.198 -0.198
 0.376  1.165  0.082 -0.115 -0.191 -0.196 -0.196
 0.378  1.168  0.085 -0.113 -0.190 -0.196 -0.196
 0.380  1.170  0.087 -0.112 -0.188 -0.195 -0.195
 0.382  1.172  0.089 -0.110 -0.187 -0.194 -0.194
 0.384  1.174  0.091 -0.109 -0.186 -0.193 -0.193
 0.386  1.176  0.094 -0.108 -0.184 -0.192 -0.192
 0.388  1.178  0.096 -0.107 -0.183 -0.191 -0.191
 0.390  1.180  0.098 -0.105 -0.182 -0.191 -0.191
 0.392  1.182  0.100 -0.104 -0.181 -0.190 -0.190
 0.394  1.184  0.103 -0.102 -0.179 -0.189 -0.189
 0.396  1.186  0.105 -0.101 -0.178 -0.188 -0.188
 0.398  1.188  0.106 -0.100 -0.177 -0.187 -0.187
 0.400  1.190  0.108 -0.098 -0.176 -0.186 -0.186
 0.402  1.191  0.111 -0.097 -0.174 -0.186 -0.186
 0.404  1.194  0.112 -0.096 -0.174 -0.184 -0.184
 0.406  1.195  0.114 -0.095 -0.172 -0.184 -0.184
 0.408  1.197  0.116 -0.094 -0.171 -0.183 -0.183
 0.410  1.199  0.118 -0.093 -0.170 -0.182 -0.182
 0.412  1.201  0.120 -0.091 -0.169 -0.181 -0.181
 0.414  1.203  0.122 -0.090 -0.168 -0.180 -0.180
 0.416  1.204  0.123 -0.089 -0.167 -0.179 -0.179
 0.418  1.207  0.126 -0.088 -0.165 -0.179 -0.179
 0.420  1.208  0.127 -0.087 -0.165 -0.178 -0.178
 0.422  1.210  0.129 -0.086 -0.163 -0.177 -0.177
 0.424  1.211  0.130 -0.085 -0.162 -0.176 -0.176
 0.426  1.213  0.132 -0.084 -0.161 -0.175 -0.175
 0.428  1.215  0.134 -0.083 -0.160 -0.175 -0.175
 0.430  1.217  0.135 -0.082 -0.159 -0.174 -0.174
 0.432  1.218  0.137 -0.081 -0.158 -0.173 -0.173
 0.434  1.220  0.138 -0.080 -0.157 -0.172 -0.172
 0.436  1.221  0.140 -0.078 -0.156 -0.171 -0.171
 0.438  1.223  0.141 -0.077 -0.155 -0.171 -0.171
 0.440  1.224  0.143 -0.076 -0.154 -0.170 -0.170
 0.442  1.226  0.144 -0.075 -0.153 -0.169 -0.169
 0.444  1.227  0.146 -0.074 -0.152 -0.168 -0.168
 0.446  1.229  0.147 -0.073 -0.151 -0.168 -0.168
 0.448  1.230  0.149 -0.072 -0.150 -0.167 -0.167
 0.450  1.232  0.149 -0.071 -0.149 -0.166 -0.166
 0.452  1.233  0.151 -0.070 -0.148 -0.165 -0.165
 0.454  1.235  0.152 -0.069 -0.148 -0.164 -0.164
 0.456  1.236  0.153 -0.068 -0.146 -0.164 -0.164
 0.458  1.238  0.155 -0.067 -0.146 -0.163 -0.163
 0.460  1.239  0.156 -0.066 -0.145 -0.162 -0.162
 0.462  1.241  0.157 -0.065 -0.144 -0.161 -0.161
 0.464  1.242  0.158 -0.064 -0.143 -0.161 -0.161
 0.466  1.243  0.159 -0.063 -0.142 -0.160 -0.160
 0.468  1.245  0.161 -0.062 -0.141 -0.159 -0.159
 0.470  1.246  0.161 -0.061 -0.140 -0.159 -0.159
 0.472  1.247  0.163 -0.060 -0.139 -0.158 -0.158
 0.474  1.249  0.164 -0.059 -0.138 -0.157 -0.157
 0.476  1.250  0.165 -0.057 -0.137 -0.156 -0.156
 0.478  1.252  0.166 -0.056 -0.136 -0.156 -0.156
 0.480  1.252  0.167 -0.055 -0.136 -0.155 -0.155
 0.482  1.254  0.168 -0.054 -0.134 -0.154 -0.154
 0.484  1.255  0.169 -0.053 -0.134 -0.153 -0.153
 0.486  1.256  0.170 -0.052 -0.133 -0.153 -0.153
 0.488  1.258  0.171 -0.051 -0.132 -0.152 -0.152
 0.490  1.258  0.172 -0.050 -0.131 -0.152 -0.152
 0.492  1.260  0.173 -0.049 -0.130 -0.151 -0.151
 0.494  1.261  0.173 -0.048 -0.129 -0.150 -0.150
 0.496  1.262  0.174 -0.047 -0.128 -0.149 -0.149
 0.498  1.264  0.175 -0.046 -0.127 -0.149 -0.149
 0.500  1.264  0.175 -0.045 -0.127 -0.148 -0.148
 0.502  1.266  0.177 -0.044 -0.126 -0.148 -0.148
 0.504  1.267  0.178 -0.043 -0.124 -0.147 -0.147
 0.506  1.268  0.178 -0.042 -0.124 -0.146 -0.146
 0.508  1.269  0.179 -0.041 -0.123 -0.146 -0.146
 0.510  1.270  0.179 -0.040 -0.122 -0.145 -0.145
 0.512  1.271  0.180 -0.039 -0.121 -0.144 -0.144
 0.514  1.272  0.181 -0.039 -0.120 -0.144 -0.144
 0.516  1.273  0.181 -0.037 -0.120 -0.143 -0.143
 0.518  1.274  0.182 -0.036 -0.119 -0.142 -0.142
 0.520  1.275  0.183 -0.036 -0.118 -0.142 -0.142
 0.522  1.276  0.183 -0.035 -0.117 -0.141 -0.141
 0.524  1.277  0.184 -0.034 -0.116 -0.141 -0.141
 0.526  1.278  0.184 -0.033 -0.115 -0.140 -0.140
 0.528  1.279  0.185 -0.032 -0.115 -0.140 -0.140
 0.530  1.280  0.185 -0.032 -0.114 -0.139 -0.139
 0.532  1.280  0.186 -0.030 -0.113 -0.139 -0.139
 0.534  1.281  0.187 -0.030 -0.113 -0.138 -0.138
 0.536  1.281  0.187 -0.029 -0.112 -0.138 -0.138
 0.538  1.282  0.187 -0.028 -0.111 -0.137 -0.137
 0.540  1.283  0.187 -0.028 -0.110 -0.137 -0.137
 0.542  1.284  0.188 -0.027 -0.110 -0.136 -0.136
 0.544  1.284  0.188 -0.026 -0.109 -0.136 -0.136
 0.546  1.284  0.189 -0.025 -0.108 -0.135 -0.135
 0.548  1.285  0.189 -0.025 -0.108 -0.134 -0.134
 0.550  1.285  0.190 -0.024 -0.107 -0.134 -0.134
 0.552  1.286  0.190 -0.023 -0.107 -0.133 -0.133
 0.554  1.286  0.190 -0.022 -0.106 -0.133 -0.133
 0.556  1.286  0.190 -0.022 -0.105 -0.132 -0.132
 0.558  1.287  0.190 -0.021 -0.105 -0.132 -0.132
 0.560  1.287  0.191 -0.020 -0.104 -0.132 -0.132
 0.562  1.287  0.191 -0.020 -0.104 -0.131 -0.131
 0.564  1.287  0.191 -0.019 -0.103 -0.130 -0.130
 0.566  1.287  0.191 -0.019 -0.103 -0.130 -0.130
 0.568  1.287  0.192 -0.018 -0.103 -0.129 -0.129
 0.570  1.287  0.192 -0.018 -0.102 -0.129 -0.129
 0.572  1.287  0.192 -0.017 -0.101 -0.129 -0.129
 0.574  1.287  0.192 -0.016 -0.101 -0.128 -0.128
 0.576  1.287  0.192 -0.016 -0.101 -0.128 -0.128
 0.578  1.287  0.192 -0.015 -0.100 -0.127 -0.127
 0.580  1.287  0.192 -0.015 -0.100 -0.126 -0.126
 0.582  1.287  0.192 -0.014 -0.100 -0.126 -0.126
 0.584  1.287  0.192 -0.014 -0.099 -0.126 -0.126
 0.586  1.286  0.192 -0.014 -0.099 -0.125 -0.125
 0.588  1.286  0.192 -0.013 -0.098 -0.125 -0.125
 0.590  1.286  0.192 -0.013 -0.098 -0.124 -0.124
 0.592  1.285  0.192 -0.012 -0.098 -0.124 -0.124
 0.594  1.285  0.192 -0.012 -0.098 -0.124 -0.124
 0.596  1.285  0.192 -0.012 -0.097 -0.123 -0.123
 0.598  1.284  0.192 -0.011 -0.097 -0.123 -0.123
 0.600  1.284  0.192 -0.011 -0.096 -0.122 -0.122
 0.602  1.284  0.192 -0.010 -0.096 -0.122 -0.122
 0.604  1.284  0.192 -0.010 -0.096 -0.121 -0.121
 0.606  1.284  0.192 -0.010 -0.096 -0.121 -0.121
 0.608  1.284  0.192 -0.010 -0.095 -0.121 -0.121
 0.610  1.283  0.191 -0.010 -0.095 -0.120 -0.120
 0.612  1.283  0.191 -0.009 -0.095 -0.120 -0.120
 0.614  1.283  0.191 -0.009 -0.094 -0.120 -0.120
 0.616  1.283  0.191 -0.009 -0.094 -0.119 -0.119
 0.618  1.282  0.191 -0.009 -0.094 -0.118 -0.118
 0.620  1.282  0.191 -0.009 -0.094 -0.118 -0.118
 0.622  1.282  0.191 -0.009 -0.093 -0.118 -0.118
 0.624  1.282  0.191 -0.009 -0.093 -0.117 -0.117
 0.626  1.282  0.191 -0.009 -0.092 -0.117 -0.117
 0.628  1.281  0.191 -0.009 -0.092 -0.117 -0.117
 0.630  1.281  0.190 -0.009 -0.092 -0.116 -0.116
 0.632  1.281  0.190 -0.009 -0.091 -0.116 -0.116
 0.634  1.281  0.190 -0.009 -0.091 -0.115 -0.115
 0.636  1.281  0.190 -0.009 -0.091 -0.115 -0.115
 0.638  1.281  0.190 -0.009 -0.091 -0.114 -0.114
 0.640  1.281  0.190 -0.009 -0.090 -0.114 -0.114
 0.642  1.281  0.190 -0.009 -0.090 -0.113 -0.113
 0.644  1.281  0.190 -0.009 -0.090 -0.113 -0.113
 0.646  1.280  0.190 -0.008 -0.089 -0.113 -0.113
 0.648  1.280  0.190 -0.008 -0.089 -0.112 -0.112
 0.650  1.280  0.190 -0.008 -0.089 -0.112 -0.112
 0.652  1.280  0.190 -0.008 -0.089 -0.111 -0.111
 0.654  1.280  0.190 -0.008 -0.088 -0.111 -0.111
 0.656  1.280  0.190 -0.008 -0.088 -0.110 -0.110
 0.658  1.280  0.189 -0.007 -0.087 -0.110 -0.110
 0.660  1.280  0.189 -0.007 -0.087 -0.110 -0.110
 0.662  1.280  0.189 -0.007 -0.086 -0.109 -0.109
 0.664  1.281  0.189 -0.006 -0.086 -0.109 -0.109
 0.666  1.281  0.189 -0.006 -0.086 -0.108 -0.108
 0.668  1.281  0.189 -0.005 -0.085 -0.108 -0.108
 0.670  1.280  0.189 -0.005 -0.084 -0.107 -0.107
 0.672  1.280  0.189 -0.004 -0.084 -0.107 -0.107
 0.674  1.280  0.189 -0.003 -0.083 -0.106 -0.106
 0.676  1.280  0.189 -0.002 -0.082 -0.106 -0.106
 0.678  1.280  0.189 -0.002 -0.082 -0.105 -0.105
 0.680  1.280  0.190 -0.001 -0.081 -0.105 -0.105
 0.682  1.280  0.190 -0.000 -0.079 -0.105 -0.105
 0.684  1.280  0.190  0.000 -0.079 -0.104 -0.104
 0.686  1.280  0.190  0.001 -0.077 -0.103 -0.103
 0.688  1.280  0.190  0.002 -0.076 -0.103 -0.103
 0.690  1.280  0.191  0.003 -0.075 -0.103 -0.103
 0.692  1.280  0.191  0.004 -0.074 -0.102 -0.102
 0.694  1.280  0.192  0.005 -0.073 -0.102 -0.102
 0.696  1.280  0.193  0.006 -0.072 -0.101 -0.101
 0.698  1.280  0.193  0.007 -0.070 -0.101 -0.101
 0.700  1.279  0.193  0.008 -0.069 -0.100 -0.100
 0.702  1.279  0.194  0.009 -0.067 -0.099 -0.099
 0.704  1.279  0.195  0.011 -0.066 -0.099 -0.099
 0.706  1.279  0.196  0.012 -0.064 -0.099 -0.099
 0.708  1.278  0.196  0.013 -0.063 -0.098 -0.098
 0.710  1.278  0.197  0.014 -0.061 -0.098 -0.098
 0.712  1.278  0.198  0.015 -0.059 -0.097 -0.097
 0.714  1.277  0.199  0.016 -0.057 -0.097 -0.097
 0.716  1.277  0.199  0.018 -0.055 -0.096 -0.096
 0.718  1.277  0.200  0.020 -0.053 -0.095 -0.095
 0.720  1.277  0.202  0.021 -0.051 -0.095 -0.095
 0.722  1.277  0.202  0.022 -0.049 -0.094 -0.094
 0.724  1.276  0.203  0.024 -0.047 -0.094 -0.094
 0.726  1.276  0.205  0.026 -0.045 -0.093 -0.093
 0.728  1.276  0.205  0.027 -0.043 -0.093 -0.093
 0.730  1.275  0.207  0.029 -0.041 -0.092 -0.092
 0.732  1.275  0.208  0.031 -0.039 -0.091 -0.091
 0.734  1.275  0.209  0.033 -0.037 -0.091 -0.091
 0.736  1.275  0.210  0.034 -0.034 -0.090 -0.090
 0.738  1.275  0.211  0.036 -0.032 -0.090 -0.090
 0.740  1.275  0.213  0.038 -0.031 -0.089 -0.089
 0.742  1.275  0.214  0.040 -0.029 -0.088 -0.088
 0.744  1.276  0.215  0.042 -0.027 -0.088 -0.088
 0.746  1.277  0.216  0.044 -0.025 -0.087 -0.087
 0.748  1.277  0.218  0.046 -0.023 -0.086 -0.086
 0.750  1.277  0.219  0.048 -0.022 -0.086 -0.086
 0.752  1.278  0.221  0.050 -0.020 -0.085 -0.085
 0.754  1.280  0.222  0.053 -0.018 -0.084 -0.084
 0.756  1.280  0.224  0.055 -0.017 -0.083 -0.083
 0.758  1.282  0.225  0.057 -0.015 -0.083 -0.083
 0.760  1.284  0.228  0.059 -0.014 -0.082 -0.082
 0.762  1.285  0.229  0.062 -0.013 -0.081 -0.081
 0.764  1.287  0.231  0.064 -0.012 -0.080 -0.080
 0.766  1.288  0.232  0.067 -0.011 -0.079 -0.079
 0.768  1.290  0.234  0.069 -0.010 -0.078 -0.078
 0.770  1.293  0.236  0.072 -0.008 -0.076 -0.076
 0.772  1.294  0.237  0.074 -0.008 -0.075 -0.075
 0.774  1.296  0.239  0.077 -0.007 -0.074 -0.074
 0.776  1.299  0.240  0.080 -0.006 -0.072 -0.072
 0.778  1.301  0.243  0.082 -0.005 -0.071 -0.071
 0.780  1.303  0.244  0.084 -0.004 -0.070 -0.070
 0.782  1.306  0.245  0.087 -0.004 -0.068 -0.068
 0.784  1.309  0.248  0.089 -0.003 -0.067 -0.067
 0.786  1.312  0.249  0.091 -0.002 -0.065 -0.065
 0.788  1.315  0.251  0.093 -0.002 -0.063 -0.063
 0.790  1.319  0.254  0.095 -0.001 -0.062 -0.062
 0.792  1.322  0.256  0.096 -0.001 -0.060 -0.060
 0.794  1.325  0.258  0.097 -0.001 -0.058 -0.058
 0.796  1.329  0.260  0.097 -0.000 -0.056 -0.056
 0.798  1.333  0.263  0.097  0.000 -0.054 -0.054
 0.800  1.336  0.265  0.097  0.000 -0.052 -0.052
 0.802  1.340  0.267  0.097  0.000 -0.050 -0.050
 0.804  1.344  0.269  0.096 -0.000 -0.048 -0.048
 0.806  1.347  0.271  0.095 -0.001 -0.046 -0.046
 0.808  1.350  0.272  0.094 -0.001 -0.044 -0.044
