# IsPeriodic    : True
# Period        : 0.561335 days
# Normalization : <g_mag>=0
# 
# Phase u_mag  g_mag  r_mag  i_mag  z_mag  y_mag
 0.000  0.423 -0.814 -0.712 -0.642 -0.593 -0.593
 0.002  0.423 -0.814 -0.712 -0.642 -0.593 -0.593
 0.004  0.424 -0.813 -0.712 -0.642 -0.592 -0.592
 0.006  0.427 -0.812 -0.711 -0.641 -0.591 -0.591
 0.008  0.429 -0.810 -0.710 -0.640 -0.591 -0.591
 0.010  0.432 -0.807 -0.709 -0.639 -0.589 -0.589
 0.012  0.437 -0.804 -0.708 -0.639 -0.589 -0.589
 0.014  0.442 -0.800 -0.707 -0.637 -0.587 -0.587
 0.016  0.446 -0.797 -0.705 -0.636 -0.586 -0.586
 0.018  0.452 -0.792 -0.703 -0.635 -0.585 -0.585
 0.020  0.458 -0.787 -0.701 -0.633 -0.583 -0.583
 0.022  0.463 -0.782 -0.699 -0.632 -0.582 -0.582
 0.024  0.469 -0.777 -0.697 -0.630 -0.580 -0.580
 0.026  0.475 -0.773 -0.694 -0.628 -0.579 -0.579
 0.028  0.481 -0.768 -0.692 -0.626 -0.577 -0.577
 0.030  0.486 -0.762 -0.689 -0.624 -0.575 -0.575
 0.032  0.492 -0.757 -0.687 -0.622 -0.573 -0.573
 0.034  0.497 -0.752 -0.684 -0.620 -0.572 -0.572
 0.036  0.503 -0.746 -0.681 -0.618 -0.570 -0.570
 0.038  0.507 -0.742 -0.678 -0.615 -0.568 -0.568
 0.040  0.513 -0.736 -0.675 -0.613 -0.566 -0.566
 0.042  0.519 -0.730 -0.672 -0.610 -0.564 -0.564
 0.044  0.523 -0.724 -0.668 -0.607 -0.562 -0.562
 0.046  0.529 -0.718 -0.664 -0.604 -0.560 -0.560
 0.048  0.535 -0.712 -0.660 -0.602 -0.558 -0.558
 0.050  0.540 -0.706 -0.656 -0.599 -0.556 -0.556
 0.052  0.546 -0.699 -0.652 -0.595 -0.553 -0.553
 0.054  0.552 -0.691 -0.648 -0.592 -0.551 -0.551
 0.056  0.558 -0.684 -0.643 -0.588 -0.548 -0.548
 0.058  0.563 -0.677 -0.638 -0.585 -0.545 -0.545
 0.060  0.569 -0.670 -0.634 -0.581 -0.542 -0.542
 0.062  0.575 -0.661 -0.629 -0.577 -0.540 -0.540
 0.064  0.582 -0.654 -0.623 -0.574 -0.537 -0.537
 0.066  0.588 -0.646 -0.618 -0.569 -0.534 -0.534
 0.068  0.593 -0.638 -0.613 -0.565 -0.531 -0.531
 0.070  0.599 -0.629 -0.607 -0.561 -0.528 -0.528
 0.072  0.605 -0.621 -0.602 -0.557 -0.525 -0.525
 0.074  0.612 -0.613 -0.596 -0.553 -0.522 -0.522
 0.076  0.618 -0.604 -0.591 -0.548 -0.519 -0.519
 0.078  0.623 -0.596 -0.585 -0.544 -0.516 -0.516
 0.080  0.629 -0.587 -0.579 -0.540 -0.513 -0.513
 0.082  0.636 -0.579 -0.574 -0.536 -0.510 -0.510
 0.084  0.642 -0.571 -0.568 -0.532 -0.507 -0.507
 0.086  0.647 -0.562 -0.563 -0.527 -0.504 -0.504
 0.088  0.653 -0.554 -0.557 -0.523 -0.501 -0.501
 0.090  0.660 -0.546 -0.552 -0.519 -0.498 -0.498
 0.092  0.666 -0.537 -0.547 -0.515 -0.495 -0.495
 0.094  0.672 -0.529 -0.542 -0.511 -0.493 -0.493
 0.096  0.677 -0.522 -0.537 -0.508 -0.490 -0.490
 0.098  0.683 -0.513 -0.532 -0.504 -0.488 -0.488
 0.100  0.689 -0.506 -0.527 -0.500 -0.485 -0.485
 0.102  0.696 -0.498 -0.522 -0.497 -0.483 -0.483
 0.104  0.702 -0.491 -0.518 -0.493 -0.480 -0.480
 0.106  0.707 -0.483 -0.513 -0.490 -0.477 -0.477
 0.108  0.713 -0.476 -0.509 -0.487 -0.475 -0.475
 0.110  0.719 -0.469 -0.505 -0.483 -0.473 -0.473
 0.112  0.723 -0.462 -0.500 -0.480 -0.470 -0.470
 0.114  0.729 -0.456 -0.496 -0.477 -0.468 -0.468
 0.116  0.735 -0.449 -0.491 -0.473 -0.466 -0.466
 0.118  0.741 -0.443 -0.487 -0.471 -0.463 -0.463
 0.120  0.746 -0.436 -0.484 -0.467 -0.462 -0.462
 0.122  0.751 -0.430 -0.479 -0.464 -0.460 -0.460
 0.124  0.757 -0.424 -0.476 -0.462 -0.458 -0.458
 0.126  0.761 -0.418 -0.472 -0.459 -0.455 -0.455
 0.128  0.767 -0.412 -0.468 -0.456 -0.453 -0.453
 0.130  0.773 -0.406 -0.464 -0.453 -0.451 -0.451
 0.132  0.777 -0.400 -0.461 -0.451 -0.450 -0.450
 0.134  0.783 -0.394 -0.457 -0.448 -0.448 -0.448
 0.136  0.788 -0.389 -0.455 -0.445 -0.446 -0.446
 0.138  0.794 -0.383 -0.451 -0.443 -0.444 -0.444
 0.140  0.798 -0.378 -0.448 -0.441 -0.443 -0.443
 0.142  0.803 -0.374 -0.445 -0.438 -0.441 -0.441
 0.144  0.808 -0.368 -0.441 -0.436 -0.440 -0.440
 0.146  0.813 -0.363 -0.439 -0.434 -0.438 -0.438
 0.148  0.818 -0.358 -0.435 -0.432 -0.436 -0.436
 0.150  0.823 -0.353 -0.433 -0.429 -0.435 -0.435
 0.152  0.828 -0.348 -0.429 -0.427 -0.433 -0.433
 0.154  0.833 -0.344 -0.426 -0.425 -0.432 -0.432
 0.156  0.837 -0.339 -0.423 -0.423 -0.430 -0.430
 0.158  0.842 -0.334 -0.420 -0.421 -0.428 -0.428
 0.160  0.846 -0.331 -0.418 -0.419 -0.427 -0.427
 0.162  0.851 -0.326 -0.414 -0.417 -0.425 -0.425
 0.164  0.856 -0.321 -0.411 -0.415 -0.423 -0.423
 0.166  0.860 -0.316 -0.409 -0.413 -0.422 -0.422
 0.168  0.865 -0.311 -0.405 -0.410 -0.420 -0.420
 0.170  0.869 -0.307 -0.403 -0.408 -0.418 -0.418
 0.172  0.874 -0.302 -0.400 -0.406 -0.417 -0.417
 0.174  0.879 -0.297 -0.397 -0.404 -0.415 -0.415
 0.176  0.883 -0.292 -0.394 -0.402 -0.413 -0.413
 0.178  0.888 -0.288 -0.391 -0.400 -0.412 -0.412
 0.180  0.892 -0.283 -0.388 -0.398 -0.410 -0.410
 0.182  0.897 -0.278 -0.385 -0.396 -0.408 -0.408
 0.184  0.902 -0.273 -0.383 -0.394 -0.406 -0.406
 0.186  0.906 -0.268 -0.379 -0.392 -0.405 -0.405
 0.188  0.911 -0.262 -0.376 -0.390 -0.403 -0.403
 0.190  0.915 -0.258 -0.374 -0.388 -0.401 -0.401
 0.192  0.920 -0.253 -0.370 -0.386 -0.399 -0.399
 0.194  0.925 -0.248 -0.368 -0.384 -0.397 -0.397
 0.196  0.928 -0.243 -0.365 -0.382 -0.395 -0.395
 0.198  0.933 -0.239 -0.361 -0.380 -0.394 -0.394
 0.200  0.937 -0.234 -0.359 -0.378 -0.392 -0.392
 0.202  0.942 -0.229 -0.356 -0.376 -0.390 -0.390
 0.204  0.947 -0.224 -0.354 -0.374 -0.388 -0.388
 0.206  0.950 -0.218 -0.350 -0.372 -0.387 -0.387
 0.208  0.955 -0.213 -0.347 -0.370 -0.385 -0.385
 0.210  0.959 -0.209 -0.345 -0.368 -0.383 -0.383
 0.212  0.964 -0.204 -0.342 -0.366 -0.381 -0.381
 0.214  0.967 -0.198 -0.339 -0.364 -0.379 -0.379
 0.216  0.972 -0.193 -0.336 -0.362 -0.377 -0.377
 0.218  0.976 -0.188 -0.333 -0.360 -0.375 -0.375
 0.220  0.980 -0.184 -0.331 -0.358 -0.373 -0.373
 0.222  0.984 -0.178 -0.327 -0.357 -0.371 -0.371
 0.224  0.989 -0.173 -0.325 -0.354 -0.369 -0.369
 0.226  0.993 -0.168 -0.322 -0.352 -0.367 -0.367
 0.228  0.997 -0.163 -0.319 -0.351 -0.366 -0.366
 0.230  1.001 -0.158 -0.317 -0.349 -0.364 -0.364
 0.232  1.005 -0.154 -0.314 -0.347 -0.362 -0.362
 0.234  1.009 -0.149 -0.311 -0.345 -0.360 -0.360
 0.236  1.013 -0.144 -0.308 -0.343 -0.358 -0.358
 0.238  1.017 -0.139 -0.305 -0.341 -0.356 -0.356
 0.240  1.021 -0.135 -0.303 -0.340 -0.355 -0.355
 0.242  1.025 -0.130 -0.300 -0.338 -0.353 -0.353
 0.244  1.028 -0.125 -0.297 -0.336 -0.351 -0.351
 0.246  1.033 -0.120 -0.295 -0.334 -0.349 -0.349
 0.248  1.036 -0.117 -0.292 -0.332 -0.347 -0.347
 0.250  1.040 -0.112 -0.289 -0.331 -0.346 -0.346
 0.252  1.044 -0.107 -0.287 -0.329 -0.344 -0.344
 0.254  1.048 -0.103 -0.284 -0.327 -0.342 -0.342
 0.256  1.051 -0.099 -0.282 -0.325 -0.340 -0.340
 0.258  1.055 -0.094 -0.280 -0.323 -0.339 -0.339
 0.260  1.059 -0.090 -0.277 -0.322 -0.337 -0.337
 0.262  1.063 -0.086 -0.274 -0.319 -0.335 -0.335
 0.264  1.066 -0.082 -0.272 -0.318 -0.334 -0.334
 0.266  1.070 -0.078 -0.269 -0.316 -0.332 -0.332
 0.268  1.073 -0.074 -0.267 -0.315 -0.330 -0.330
 0.270  1.076 -0.070 -0.265 -0.312 -0.329 -0.329
 0.272  1.080 -0.066 -0.262 -0.311 -0.327 -0.327
 0.274  1.083 -0.062 -0.259 -0.310 -0.325 -0.325
 0.276  1.087 -0.058 -0.257 -0.308 -0.324 -0.324
 0.278  1.090 -0.055 -0.255 -0.306 -0.322 -0.322
 0.280  1.094 -0.051 -0.252 -0.304 -0.320 -0.320
 0.282  1.097 -0.047 -0.250 -0.303 -0.318 -0.318
 0.284  1.101 -0.044 -0.248 -0.301 -0.317 -0.317
 0.286  1.103 -0.040 -0.245 -0.299 -0.315 -0.315
 0.288  1.106 -0.037 -0.243 -0.298 -0.314 -0.314
 0.290  1.110 -0.033 -0.241 -0.296 -0.312 -0.312
 0.292  1.113 -0.029 -0.238 -0.294 -0.311 -0.311
 0.294  1.116 -0.026 -0.236 -0.292 -0.309 -0.309
 0.296  1.119 -0.022 -0.234 -0.291 -0.308 -0.308
 0.298  1.122 -0.019 -0.231 -0.289 -0.306 -0.306
 0.300  1.125 -0.015 -0.229 -0.287 -0.304 -0.304
 0.302  1.128 -0.011 -0.227 -0.286 -0.303 -0.303
 0.304  1.132 -0.009 -0.224 -0.284 -0.301 -0.301
 0.306  1.134 -0.006 -0.222 -0.282 -0.300 -0.300
 0.308  1.137 -0.002 -0.220 -0.281 -0.299 -0.299
 0.310  1.141  0.002 -0.217 -0.279 -0.297 -0.297
 0.312  1.144  0.005 -0.215 -0.277 -0.296 -0.296
 0.314  1.147  0.008 -0.212 -0.275 -0.294 -0.294
 0.316  1.150  0.011 -0.210 -0.274 -0.292 -0.292
 0.318  1.154  0.015 -0.208 -0.272 -0.291 -0.291
 0.320  1.156  0.018 -0.205 -0.270 -0.289 -0.289
 0.322  1.159  0.022 -0.202 -0.268 -0.288 -0.288
 0.324  1.163  0.026 -0.200 -0.267 -0.287 -0.287
 0.326  1.166  0.028 -0.198 -0.265 -0.285 -0.285
 0.328  1.170  0.032 -0.195 -0.263 -0.283 -0.283
 0.330  1.172  0.035 -0.193 -0.261 -0.282 -0.282
 0.332  1.175  0.039 -0.190 -0.260 -0.280 -0.280
 0.334  1.179  0.041 -0.187 -0.258 -0.279 -0.279
 0.336  1.182  0.045 -0.186 -0.256 -0.278 -0.278
 0.338  1.185  0.048 -0.183 -0.254 -0.277 -0.277
 0.340  1.188  0.052 -0.180 -0.253 -0.275 -0.275
 0.342  1.192  0.055 -0.178 -0.251 -0.273 -0.273
 0.344  1.195  0.058 -0.175 -0.249 -0.272 -0.272
 0.346  1.198  0.061 -0.173 -0.247 -0.271 -0.271
 0.348  1.202  0.065 -0.170 -0.245 -0.269 -0.269
 0.350  1.205  0.067 -0.167 -0.244 -0.268 -0.268
 0.352  1.208  0.071 -0.165 -0.242 -0.266 -0.266
 0.354  1.211  0.075 -0.162 -0.240 -0.265 -0.265
 0.356  1.215  0.078 -0.159 -0.238 -0.263 -0.263
 0.358  1.218  0.081 -0.158 -0.236 -0.262 -0.262
 0.360  1.221  0.084 -0.155 -0.235 -0.261 -0.261
 0.362  1.225  0.088 -0.152 -0.233 -0.259 -0.259
 0.364  1.228  0.090 -0.150 -0.231 -0.258 -0.258
 0.366  1.232  0.094 -0.147 -0.229 -0.256 -0.256
 0.368  1.235  0.097 -0.144 -0.227 -0.255 -0.255
 0.370  1.239  0.101 -0.142 -0.226 -0.254 -0.254
 0.372  1.242  0.103 -0.139 -0.224 -0.252 -0.252
 0.374  1.244  0.107 -0.136 -0.222 -0.250 -0.250
 0.376  1.248  0.110 -0.135 -0.220 -0.249 -0.249
 0.378  1.251  0.113 -0.132 -0.219 -0.248 -0.248
 0.380  1.255  0.116 -0.129 -0.217 -0.246 -0.246
 0.382  1.258  0.120 -0.127 -0.215 -0.245 -0.245
 0.384  1.262  0.124 -0.124 -0.213 -0.243 -0.243
 0.386  1.264  0.126 -0.122 -0.212 -0.242 -0.242
 0.388  1.267  0.130 -0.120 -0.210 -0.240 -0.240
 0.390  1.271  0.133 -0.117 -0.208 -0.238 -0.238
 0.392  1.274  0.137 -0.115 -0.206 -0.237 -0.237
 0.394  1.277  0.139 -0.113 -0.205 -0.236 -0.236
 0.396  1.280  0.143 -0.110 -0.203 -0.234 -0.234
 0.398  1.282  0.146 -0.108 -0.201 -0.233 -0.233
 0.400  1.286  0.149 -0.106 -0.200 -0.231 -0.231
 0.402  1.289  0.152 -0.103 -0.198 -0.229 -0.229
 0.404  1.292  0.156 -0.101 -0.196 -0.228 -0.228
 0.406  1.295  0.159 -0.099 -0.195 -0.226 -0.226
 0.408  1.297  0.162 -0.097 -0.193 -0.224 -0.224
 0.410  1.301  0.165 -0.094 -0.191 -0.223 -0.223
 0.412  1.303  0.169 -0.093 -0.190 -0.221 -0.221
 0.414  1.307  0.173 -0.090 -0.188 -0.220 -0.220
 0.416  1.309  0.175 -0.088 -0.186 -0.218 -0.218
 0.418  1.311  0.178 -0.086 -0.185 -0.216 -0.216
 0.420  1.315  0.182 -0.084 -0.183 -0.215 -0.215
 0.422  1.317  0.186 -0.081 -0.182 -0.213 -0.213
 0.424  1.319  0.189 -0.079 -0.180 -0.212 -0.212
 0.426  1.323  0.192 -0.078 -0.179 -0.210 -0.210
 0.428  1.325  0.195 -0.075 -0.177 -0.208 -0.208
 0.430  1.327  0.199 -0.073 -0.175 -0.207 -0.207
 0.432  1.330  0.202 -0.071 -0.174 -0.205 -0.205
 0.434  1.333  0.205 -0.069 -0.172 -0.203 -0.203
 0.436  1.335  0.208 -0.067 -0.171 -0.201 -0.201
 0.438  1.338  0.212 -0.065 -0.169 -0.200 -0.200
 0.440  1.340  0.216 -0.063 -0.168 -0.198 -0.198
 0.442  1.342  0.218 -0.061 -0.166 -0.196 -0.196
 0.444  1.344  0.222 -0.059 -0.165 -0.194 -0.194
 0.446  1.347  0.224 -0.057 -0.163 -0.193 -0.193
 0.448  1.349  0.227 -0.055 -0.161 -0.191 -0.191
 0.450  1.351  0.230 -0.053 -0.160 -0.190 -0.190
 0.452  1.354  0.233 -0.051 -0.158 -0.189 -0.189
 0.454  1.356  0.236 -0.049 -0.157 -0.187 -0.187
 0.456  1.358  0.238 -0.047 -0.155 -0.186 -0.186
 0.458  1.361  0.242 -0.045 -0.154 -0.184 -0.184
 0.460  1.363  0.244 -0.043 -0.152 -0.182 -0.182
 0.462  1.364  0.247 -0.042 -0.151 -0.181 -0.181
 0.464  1.366  0.249 -0.040 -0.149 -0.180 -0.180
 0.466  1.369  0.251 -0.038 -0.147 -0.178 -0.178
 0.468  1.371  0.254 -0.035 -0.146 -0.177 -0.177
 0.470  1.372  0.256 -0.034 -0.144 -0.175 -0.175
 0.472  1.374  0.259 -0.032 -0.143 -0.174 -0.174
 0.474  1.377  0.261 -0.030 -0.141 -0.173 -0.173
 0.476  1.378  0.263 -0.028 -0.140 -0.172 -0.172
 0.478  1.380  0.266 -0.027 -0.138 -0.170 -0.170
 0.480  1.381  0.267 -0.025 -0.137 -0.168 -0.168
 0.482  1.384  0.269 -0.023 -0.135 -0.167 -0.167
 0.484  1.385  0.272 -0.021 -0.133 -0.166 -0.166
 0.486  1.387  0.273 -0.020 -0.132 -0.165 -0.165
 0.488  1.388  0.275 -0.018 -0.130 -0.163 -0.163
 0.490  1.391  0.276 -0.016 -0.129 -0.162 -0.162
 0.492  1.392  0.279 -0.014 -0.127 -0.161 -0.161
 0.494  1.393  0.280 -0.013 -0.126 -0.160 -0.160
 0.496  1.395  0.281 -0.011 -0.124 -0.159 -0.159
 0.498  1.396  0.284 -0.009 -0.123 -0.158 -0.158
 0.500  1.397  0.285 -0.007 -0.121 -0.156 -0.156
 0.502  1.400  0.286 -0.006 -0.119 -0.155 -0.155
 0.504  1.401  0.287 -0.004 -0.118 -0.154 -0.154
 0.506  1.402  0.288 -0.002 -0.116 -0.153 -0.153
 0.508  1.403  0.290 -0.001 -0.115 -0.152 -0.152
 0.510  1.404  0.291  0.001 -0.114 -0.151 -0.151
 0.512  1.405  0.292  0.002 -0.112 -0.150 -0.150
 0.514  1.407  0.293  0.004 -0.111 -0.149 -0.149
 0.516  1.408  0.294  0.005 -0.109 -0.147 -0.147
 0.518  1.409  0.296  0.007 -0.108 -0.147 -0.147
 0.520  1.410  0.297  0.008 -0.107 -0.146 -0.146
 0.522  1.411  0.298  0.009 -0.105 -0.144 -0.144
 0.524  1.412  0.299  0.010 -0.105 -0.144 -0.144
 0.526  1.414  0.300  0.012 -0.103 -0.142 -0.142
 0.528  1.415  0.302  0.013 -0.102 -0.142 -0.142
 0.530  1.416  0.302  0.014 -0.101 -0.140 -0.140
 0.532  1.417  0.303  0.015 -0.100 -0.139 -0.139
 0.534  1.418  0.304  0.016 -0.099 -0.139 -0.139
 0.536  1.419  0.305  0.017 -0.098 -0.137 -0.137
 0.538  1.419  0.305  0.018 -0.097 -0.137 -0.137
 0.540  1.420  0.306  0.019 -0.095 -0.135 -0.135
 0.542  1.422  0.308  0.020 -0.095 -0.135 -0.135
 0.544  1.423  0.308  0.021 -0.094 -0.133 -0.133
 0.546  1.423  0.309  0.022 -0.093 -0.133 -0.133
 0.548  1.424  0.309  0.023 -0.092 -0.132 -0.132
 0.550  1.425  0.310  0.023 -0.091 -0.131 -0.131
 0.552  1.425  0.310  0.023 -0.091 -0.130 -0.130
 0.554  1.426  0.311  0.024 -0.090 -0.129 -0.129
 0.556  1.427  0.311  0.025 -0.089 -0.128 -0.128
 0.558  1.427  0.312  0.025 -0.088 -0.128 -0.128
 0.560  1.428  0.312  0.026 -0.088 -0.126 -0.126
 0.562  1.428  0.312  0.026 -0.087 -0.126 -0.126
 0.564  1.430  0.314  0.027 -0.086 -0.125 -0.125
 0.566  1.430  0.314  0.027 -0.086 -0.124 -0.124
 0.568  1.431  0.314  0.028 -0.085 -0.123 -0.123
 0.570  1.431  0.315  0.028 -0.085 -0.123 -0.123
 0.572  1.432  0.315  0.029 -0.084 -0.121 -0.121
 0.574  1.432  0.315  0.029 -0.084 -0.121 -0.121
 0.576  1.432  0.315  0.029 -0.084 -0.120 -0.120
 0.578  1.433  0.315  0.029 -0.083 -0.119 -0.119
 0.580  1.433  0.316  0.030 -0.082 -0.119 -0.119
 0.582  1.433  0.316  0.030 -0.082 -0.118 -0.118
 0.584  1.434  0.316  0.030 -0.081 -0.117 -0.117
 0.586  1.434  0.316  0.030 -0.081 -0.116 -0.116
 0.588  1.434  0.316  0.030 -0.081 -0.116 -0.116
 0.590  1.434  0.316  0.030 -0.081 -0.114 -0.114
 0.592  1.435  0.316  0.030 -0.080 -0.114 -0.114
 0.594  1.435  0.316  0.031 -0.080 -0.113 -0.113
 0.596  1.435  0.316  0.031 -0.079 -0.112 -0.112
 0.598  1.435  0.316  0.031 -0.079 -0.112 -0.112
 0.600  1.435  0.316  0.032 -0.079 -0.111 -0.111
 0.602  1.437  0.316  0.032 -0.079 -0.110 -0.110
 0.604  1.437  0.316  0.033 -0.078 -0.109 -0.109
 0.606  1.437  0.316  0.033 -0.078 -0.109 -0.109
 0.608  1.437  0.316  0.033 -0.077 -0.108 -0.108
 0.610  1.437  0.316  0.034 -0.077 -0.107 -0.107
 0.612  1.437  0.316  0.034 -0.077 -0.107 -0.107
 0.614  1.437  0.316  0.035 -0.077 -0.105 -0.105
 0.616  1.437  0.316  0.035 -0.077 -0.105 -0.105
 0.618  1.437  0.316  0.035 -0.077 -0.104 -0.104
 0.620  1.438  0.316  0.036 -0.076 -0.104 -0.104
 0.622  1.438  0.316  0.036 -0.076 -0.103 -0.103
 0.624  1.438  0.316  0.037 -0.076 -0.102 -0.102
 0.626  1.438  0.316  0.037 -0.075 -0.102 -0.102
 0.628  1.438  0.316  0.037 -0.075 -0.100 -0.100
 0.630  1.438  0.316  0.037 -0.075 -0.100 -0.100
 0.632  1.437  0.316  0.038 -0.075 -0.099 -0.099
 0.634  1.437  0.315  0.038 -0.074 -0.098 -0.098
 0.636  1.437  0.315  0.039 -0.074 -0.098 -0.098
 0.638  1.437  0.315  0.039 -0.074 -0.097 -0.097
 0.640  1.437  0.315  0.040 -0.074 -0.097 -0.097
 0.642  1.437  0.315  0.040 -0.074 -0.096 -0.096
 0.644  1.437  0.315  0.041 -0.074 -0.095 -0.095
 0.646  1.437  0.314  0.041 -0.074 -0.095 -0.095
 0.648  1.437  0.314  0.042 -0.074 -0.094 -0.094
 0.650  1.435  0.314  0.042 -0.074 -0.093 -0.093
 0.652  1.435  0.314  0.042 -0.074 -0.092 -0.092
 0.654  1.435  0.312  0.043 -0.074 -0.091 -0.091
 0.656  1.435  0.312  0.043 -0.073 -0.091 -0.091
 0.658  1.435  0.312  0.043 -0.073 -0.091 -0.091
 0.660  1.434  0.312  0.043 -0.073 -0.090 -0.090
 0.662  1.434  0.311  0.043 -0.073 -0.090 -0.090
 0.664  1.434  0.311  0.043 -0.073 -0.089 -0.089
 0.666  1.434  0.311  0.043 -0.072 -0.088 -0.088
 0.668  1.433  0.310  0.043 -0.072 -0.088 -0.088
 0.670  1.433  0.310  0.043 -0.072 -0.087 -0.087
 0.672  1.432  0.310  0.043 -0.072 -0.086 -0.086
 0.674  1.432  0.309  0.043 -0.072 -0.086 -0.086
 0.676  1.431  0.309  0.042 -0.072 -0.086 -0.086
 0.678  1.431  0.309  0.042 -0.072 -0.085 -0.085
 0.680  1.430  0.308  0.042 -0.072 -0.084 -0.084
 0.682  1.430  0.308  0.041 -0.072 -0.084 -0.084
 0.684  1.428  0.306  0.041 -0.071 -0.084 -0.084
 0.686  1.427  0.306  0.040 -0.071 -0.083 -0.083
 0.688  1.427  0.306  0.039 -0.071 -0.083 -0.083
 0.690  1.426  0.305  0.039 -0.071 -0.083 -0.083
 0.692  1.425  0.305  0.038 -0.070 -0.083 -0.083
 0.694  1.425  0.304  0.037 -0.070 -0.082 -0.082
 0.696  1.424  0.304  0.037 -0.070 -0.082 -0.082
 0.698  1.423  0.303  0.036 -0.070 -0.081 -0.081
 0.700  1.423  0.303  0.035 -0.070 -0.081 -0.081
 0.702  1.422  0.302  0.034 -0.070 -0.081 -0.081
 0.704  1.420  0.302  0.033 -0.070 -0.081 -0.081
 0.706  1.419  0.300  0.032 -0.069 -0.080 -0.080
 0.708  1.418  0.300  0.030 -0.069 -0.080 -0.080
 0.710  1.417  0.299  0.030 -0.069 -0.079 -0.079
 0.712  1.416  0.299  0.029 -0.068 -0.079 -0.079
 0.714  1.415  0.298  0.027 -0.068 -0.079 -0.079
 0.716  1.414  0.298  0.026 -0.068 -0.079 -0.079
 0.718  1.411  0.297  0.025 -0.067 -0.079 -0.079
 0.720  1.410  0.296  0.024 -0.067 -0.078 -0.078
 0.722  1.409  0.296  0.023 -0.067 -0.077 -0.077
 0.724  1.408  0.294  0.022 -0.067 -0.077 -0.077
 0.726  1.407  0.294  0.021 -0.067 -0.077 -0.077
 0.728  1.405  0.293  0.021 -0.067 -0.076 -0.076
 0.730  1.404  0.293  0.020 -0.066 -0.076 -0.076
 0.732  1.404  0.293  0.020 -0.066 -0.075 -0.075
 0.734  1.403  0.293  0.019 -0.066 -0.074 -0.074
 0.736  1.403  0.292  0.019 -0.065 -0.073 -0.073
 0.738  1.403  0.292  0.020 -0.065 -0.072 -0.072
 0.740  1.403  0.292  0.020 -0.065 -0.071 -0.071
 0.742  1.404  0.292  0.020 -0.065 -0.070 -0.070
 0.744  1.404  0.292  0.021 -0.065 -0.069 -0.069
 0.746  1.405  0.292  0.022 -0.065 -0.067 -0.067
 0.748  1.407  0.292  0.023 -0.065 -0.065 -0.065
 0.750  1.408  0.293  0.023 -0.064 -0.064 -0.064
 0.752  1.410  0.293  0.024 -0.064 -0.062 -0.062
 0.754  1.411  0.293  0.025 -0.064 -0.061 -0.061
 0.756  1.414  0.293  0.027 -0.063 -0.059 -0.059
 0.758  1.416  0.294  0.028 -0.063 -0.057 -0.057
 0.760  1.419  0.294  0.030 -0.063 -0.055 -0.055
 0.762  1.422  0.296  0.031 -0.063 -0.053 -0.053
 0.764  1.425  0.296  0.033 -0.063 -0.051 -0.051
 0.766  1.428  0.297  0.035 -0.063 -0.049 -0.049
 0.768  1.432  0.298  0.037 -0.062 -0.047 -0.047
 0.770  1.437  0.298  0.039 -0.062 -0.045 -0.045
 0.772  1.441  0.299  0.042 -0.062 -0.042 -0.042
 0.774  1.445  0.300  0.045 -0.062 -0.040 -0.040
 0.776  1.450  0.302  0.047 -0.061 -0.037 -0.037
 0.778  1.455  0.303  0.051 -0.061 -0.035 -0.035
 0.780  1.461  0.304  0.053 -0.061 -0.032 -0.032
 0.782  1.465  0.305  0.057 -0.061 -0.029 -0.029
 0.784  1.471  0.306  0.060 -0.061 -0.026 -0.026
 0.786  1.478  0.309  0.063 -0.060 -0.023 -0.023
 0.788  1.484  0.310  0.066 -0.060 -0.020 -0.020
 0.790  1.491  0.311  0.070 -0.060 -0.018 -0.018
 0.792  1.496  0.312  0.074 -0.059 -0.015 -0.015
 0.794  1.503  0.315  0.077 -0.058 -0.012 -0.012
 0.796  1.510  0.316  0.081 -0.058 -0.009 -0.009
 0.798  1.518  0.317  0.083 -0.057 -0.007 -0.007
 0.800  1.524  0.319  0.087 -0.056 -0.004 -0.004
 0.802  1.531  0.321  0.090 -0.055 -0.001 -0.001
 0.804  1.538  0.322  0.094 -0.053  0.001  0.001
 0.806  1.543  0.324  0.096 -0.053  0.004  0.004
 0.808  1.549  0.325  0.100 -0.051  0.006  0.006
