# IsPeriodic    : True
# Period        : 0.467452 days
# Normalization : <g_mag>=0
# 
# Phase u_mag  g_mag  r_mag  i_mag  z_mag  y_mag
 0.000  0.189 -1.024 -0.809 -0.645 -0.555 -0.555
 0.002  0.189 -1.024 -0.809 -0.645 -0.555 -0.555
 0.004  0.190 -1.022 -0.809 -0.644 -0.554 -0.554
 0.006  0.192 -1.021 -0.808 -0.642 -0.553 -0.553
 0.008  0.193 -1.018 -0.807 -0.641 -0.552 -0.552
 0.010  0.196 -1.015 -0.804 -0.638 -0.551 -0.551
 0.012  0.199 -1.010 -0.802 -0.635 -0.549 -0.549
 0.014  0.202 -1.006 -0.800 -0.631 -0.547 -0.547
 0.016  0.206 -1.001 -0.797 -0.628 -0.545 -0.545
 0.018  0.209 -0.995 -0.795 -0.623 -0.543 -0.543
 0.020  0.214 -0.989 -0.792 -0.619 -0.541 -0.541
 0.022  0.218 -0.983 -0.789 -0.615 -0.538 -0.538
 0.024  0.224 -0.977 -0.786 -0.610 -0.536 -0.536
 0.026  0.229 -0.971 -0.783 -0.606 -0.533 -0.533
 0.028  0.233 -0.965 -0.779 -0.602 -0.530 -0.530
 0.030  0.239 -0.958 -0.776 -0.597 -0.527 -0.527
 0.032  0.245 -0.952 -0.771 -0.594 -0.525 -0.525
 0.034  0.251 -0.946 -0.768 -0.589 -0.522 -0.522
 0.036  0.257 -0.938 -0.763 -0.586 -0.520 -0.520
 0.038  0.264 -0.932 -0.758 -0.582 -0.516 -0.516
 0.040  0.270 -0.925 -0.755 -0.578 -0.514 -0.514
 0.042  0.278 -0.917 -0.749 -0.574 -0.510 -0.510
 0.044  0.285 -0.910 -0.745 -0.569 -0.507 -0.507
 0.046  0.292 -0.902 -0.740 -0.566 -0.505 -0.505
 0.048  0.300 -0.895 -0.734 -0.562 -0.501 -0.501
 0.050  0.309 -0.887 -0.728 -0.557 -0.498 -0.498
 0.052  0.318 -0.878 -0.723 -0.553 -0.494 -0.494
 0.054  0.326 -0.869 -0.717 -0.549 -0.490 -0.490
 0.056  0.335 -0.860 -0.710 -0.544 -0.486 -0.486
 0.058  0.344 -0.851 -0.704 -0.540 -0.483 -0.483
 0.060  0.355 -0.842 -0.697 -0.536 -0.479 -0.479
 0.062  0.363 -0.832 -0.690 -0.530 -0.474 -0.474
 0.064  0.374 -0.823 -0.683 -0.526 -0.470 -0.470
 0.066  0.384 -0.812 -0.677 -0.522 -0.466 -0.466
 0.068  0.396 -0.802 -0.670 -0.517 -0.462 -0.462
 0.070  0.406 -0.791 -0.662 -0.512 -0.457 -0.457
 0.072  0.418 -0.781 -0.655 -0.508 -0.452 -0.452
 0.074  0.429 -0.770 -0.647 -0.503 -0.448 -0.448
 0.076  0.440 -0.759 -0.640 -0.498 -0.444 -0.444
 0.078  0.451 -0.749 -0.632 -0.494 -0.439 -0.439
 0.080  0.463 -0.738 -0.625 -0.490 -0.435 -0.435
 0.082  0.475 -0.728 -0.617 -0.485 -0.431 -0.431
 0.084  0.485 -0.717 -0.609 -0.480 -0.426 -0.426
 0.086  0.495 -0.707 -0.602 -0.476 -0.421 -0.421
 0.088  0.506 -0.696 -0.595 -0.471 -0.417 -0.417
 0.090  0.516 -0.686 -0.588 -0.467 -0.413 -0.413
 0.092  0.526 -0.675 -0.581 -0.462 -0.409 -0.409
 0.094  0.537 -0.665 -0.574 -0.457 -0.405 -0.405
 0.096  0.546 -0.656 -0.567 -0.453 -0.400 -0.400
 0.098  0.556 -0.645 -0.560 -0.449 -0.396 -0.396
 0.100  0.565 -0.636 -0.553 -0.444 -0.393 -0.393
 0.102  0.574 -0.626 -0.548 -0.440 -0.389 -0.389
 0.104  0.583 -0.617 -0.541 -0.436 -0.385 -0.385
 0.106  0.592 -0.608 -0.535 -0.431 -0.381 -0.381
 0.108  0.600 -0.599 -0.529 -0.428 -0.378 -0.378
 0.110  0.608 -0.590 -0.522 -0.424 -0.373 -0.373
 0.112  0.617 -0.581 -0.517 -0.419 -0.370 -0.370
 0.114  0.624 -0.573 -0.511 -0.416 -0.367 -0.367
 0.116  0.633 -0.564 -0.505 -0.411 -0.363 -0.363
 0.118  0.640 -0.557 -0.499 -0.408 -0.360 -0.360
 0.120  0.648 -0.548 -0.494 -0.404 -0.357 -0.357
 0.122  0.655 -0.540 -0.488 -0.400 -0.353 -0.353
 0.124  0.663 -0.533 -0.482 -0.397 -0.350 -0.350
 0.126  0.670 -0.525 -0.477 -0.392 -0.347 -0.347
 0.128  0.676 -0.518 -0.472 -0.389 -0.344 -0.344
 0.130  0.683 -0.510 -0.467 -0.385 -0.341 -0.341
 0.132  0.689 -0.503 -0.462 -0.382 -0.337 -0.337
 0.134  0.695 -0.495 -0.458 -0.378 -0.335 -0.335
 0.136  0.701 -0.489 -0.452 -0.375 -0.332 -0.332
 0.138  0.707 -0.482 -0.447 -0.371 -0.329 -0.329
 0.140  0.713 -0.476 -0.443 -0.368 -0.326 -0.326
 0.142  0.719 -0.470 -0.439 -0.364 -0.324 -0.324
 0.144  0.723 -0.462 -0.435 -0.361 -0.321 -0.321
 0.146  0.729 -0.456 -0.430 -0.358 -0.319 -0.319
 0.148  0.735 -0.450 -0.426 -0.355 -0.316 -0.316
 0.150  0.740 -0.444 -0.421 -0.351 -0.314 -0.314
 0.152  0.746 -0.438 -0.418 -0.348 -0.311 -0.311
 0.154  0.750 -0.432 -0.413 -0.345 -0.309 -0.309
 0.156  0.756 -0.426 -0.408 -0.342 -0.306 -0.306
 0.158  0.760 -0.420 -0.405 -0.339 -0.304 -0.304
 0.160  0.766 -0.416 -0.400 -0.336 -0.301 -0.301
 0.162  0.771 -0.409 -0.396 -0.333 -0.299 -0.299
 0.164  0.777 -0.403 -0.392 -0.331 -0.296 -0.296
 0.166  0.781 -0.397 -0.388 -0.327 -0.294 -0.294
 0.168  0.787 -0.391 -0.384 -0.325 -0.291 -0.291
 0.170  0.793 -0.385 -0.380 -0.322 -0.289 -0.289
 0.172  0.798 -0.379 -0.375 -0.318 -0.286 -0.286
 0.174  0.803 -0.373 -0.371 -0.316 -0.284 -0.284
 0.176  0.809 -0.367 -0.367 -0.313 -0.281 -0.281
 0.178  0.814 -0.361 -0.363 -0.310 -0.279 -0.279
 0.180  0.820 -0.355 -0.359 -0.307 -0.276 -0.276
 0.182  0.826 -0.349 -0.354 -0.305 -0.274 -0.274
 0.184  0.830 -0.343 -0.351 -0.302 -0.271 -0.271
 0.186  0.836 -0.337 -0.346 -0.299 -0.268 -0.268
 0.188  0.842 -0.330 -0.343 -0.296 -0.266 -0.266
 0.190  0.848 -0.324 -0.338 -0.293 -0.263 -0.263
 0.192  0.852 -0.318 -0.335 -0.291 -0.262 -0.262
 0.194  0.858 -0.312 -0.330 -0.288 -0.259 -0.259
 0.196  0.864 -0.306 -0.327 -0.285 -0.257 -0.257
 0.198  0.870 -0.300 -0.323 -0.283 -0.254 -0.254
 0.200  0.875 -0.294 -0.319 -0.280 -0.252 -0.252
 0.202  0.880 -0.288 -0.315 -0.278 -0.249 -0.249
 0.204  0.886 -0.282 -0.310 -0.275 -0.247 -0.247
 0.206  0.892 -0.274 -0.307 -0.272 -0.244 -0.244
 0.208  0.898 -0.268 -0.304 -0.270 -0.242 -0.242
 0.210  0.903 -0.262 -0.299 -0.267 -0.239 -0.239
 0.212  0.909 -0.256 -0.295 -0.265 -0.237 -0.237
 0.214  0.915 -0.249 -0.291 -0.263 -0.234 -0.234
 0.216  0.920 -0.243 -0.287 -0.260 -0.231 -0.231
 0.218  0.926 -0.237 -0.284 -0.258 -0.229 -0.229
 0.220  0.932 -0.231 -0.279 -0.255 -0.226 -0.226
 0.222  0.938 -0.223 -0.276 -0.253 -0.224 -0.224
 0.224  0.943 -0.217 -0.272 -0.251 -0.221 -0.221
 0.226  0.949 -0.211 -0.269 -0.248 -0.219 -0.219
 0.228  0.955 -0.205 -0.264 -0.246 -0.217 -0.217
 0.230  0.960 -0.199 -0.261 -0.244 -0.215 -0.215
 0.232  0.965 -0.193 -0.258 -0.241 -0.212 -0.212
 0.234  0.971 -0.187 -0.254 -0.239 -0.210 -0.210
 0.236  0.975 -0.181 -0.251 -0.237 -0.207 -0.207
 0.238  0.981 -0.175 -0.247 -0.234 -0.205 -0.205
 0.240  0.987 -0.169 -0.244 -0.232 -0.203 -0.203
 0.242  0.992 -0.163 -0.239 -0.230 -0.200 -0.200
 0.244  0.998 -0.157 -0.236 -0.227 -0.198 -0.198
 0.246  1.002 -0.151 -0.232 -0.226 -0.195 -0.195
 0.248  1.006 -0.147 -0.229 -0.223 -0.194 -0.194
 0.250  1.012 -0.141 -0.225 -0.220 -0.191 -0.191
 0.252  1.017 -0.135 -0.222 -0.219 -0.189 -0.189
 0.254  1.023 -0.130 -0.218 -0.216 -0.187 -0.187
 0.256  1.027 -0.124 -0.216 -0.214 -0.184 -0.184
 0.258  1.032 -0.118 -0.213 -0.212 -0.182 -0.182
 0.260  1.036 -0.114 -0.209 -0.209 -0.180 -0.180
 0.262  1.042 -0.108 -0.206 -0.207 -0.178 -0.178
 0.264  1.046 -0.103 -0.202 -0.205 -0.176 -0.176
 0.266  1.051 -0.099 -0.199 -0.202 -0.174 -0.174
 0.268  1.055 -0.093 -0.195 -0.200 -0.172 -0.172
 0.270  1.060 -0.088 -0.193 -0.198 -0.169 -0.169
 0.272  1.064 -0.084 -0.190 -0.196 -0.168 -0.168
 0.274  1.069 -0.078 -0.186 -0.193 -0.165 -0.165
 0.276  1.073 -0.073 -0.183 -0.192 -0.163 -0.163
 0.278  1.078 -0.069 -0.180 -0.189 -0.161 -0.161
 0.280  1.082 -0.064 -0.177 -0.186 -0.159 -0.159
 0.282  1.086 -0.060 -0.173 -0.185 -0.157 -0.157
 0.284  1.091 -0.055 -0.171 -0.182 -0.155 -0.155
 0.286  1.095 -0.050 -0.168 -0.180 -0.153 -0.153
 0.288  1.100 -0.046 -0.164 -0.178 -0.151 -0.151
 0.290  1.104 -0.041 -0.162 -0.176 -0.149 -0.149
 0.292  1.107 -0.037 -0.158 -0.173 -0.147 -0.147
 0.294  1.112 -0.032 -0.156 -0.172 -0.145 -0.145
 0.296  1.116 -0.028 -0.153 -0.169 -0.143 -0.143
 0.298  1.120 -0.023 -0.150 -0.166 -0.141 -0.141
 0.300  1.125 -0.019 -0.147 -0.165 -0.139 -0.139
 0.302  1.128 -0.014 -0.144 -0.162 -0.137 -0.137
 0.304  1.132 -0.011 -0.141 -0.160 -0.135 -0.135
 0.306  1.137 -0.007 -0.138 -0.158 -0.133 -0.133
 0.308  1.141 -0.002 -0.135 -0.156 -0.132 -0.132
 0.310  1.146  0.002 -0.132 -0.153 -0.129 -0.129
 0.312  1.149  0.007 -0.130 -0.152 -0.127 -0.127
 0.314  1.153  0.010 -0.126 -0.149 -0.126 -0.126
 0.316  1.158  0.014 -0.123 -0.147 -0.123 -0.123
 0.318  1.162  0.019 -0.120 -0.145 -0.121 -0.121
 0.320  1.166  0.023 -0.117 -0.142 -0.120 -0.120
 0.322  1.169  0.028 -0.115 -0.140 -0.117 -0.117
 0.324  1.174  0.032 -0.111 -0.138 -0.116 -0.116
 0.326  1.178  0.035 -0.108 -0.135 -0.114 -0.114
 0.328  1.183  0.040 -0.106 -0.133 -0.111 -0.111
 0.330  1.186  0.044 -0.102 -0.131 -0.110 -0.110
 0.332  1.190  0.049 -0.100 -0.129 -0.108 -0.108
 0.334  1.195  0.052 -0.096 -0.127 -0.106 -0.106
 0.336  1.199  0.056 -0.094 -0.124 -0.104 -0.104
 0.338  1.202  0.061 -0.091 -0.122 -0.102 -0.102
 0.340  1.206  0.065 -0.088 -0.120 -0.100 -0.100
 0.342  1.211  0.070 -0.085 -0.118 -0.098 -0.098
 0.344  1.215  0.073 -0.081 -0.115 -0.096 -0.096
 0.346  1.220  0.077 -0.079 -0.113 -0.095 -0.095
 0.348  1.223  0.082 -0.076 -0.111 -0.092 -0.092
 0.350  1.227  0.085 -0.073 -0.108 -0.090 -0.090
 0.352  1.232  0.089 -0.070 -0.106 -0.089 -0.089
 0.354  1.236  0.094 -0.068 -0.104 -0.086 -0.086
 0.356  1.239  0.098 -0.064 -0.101 -0.084 -0.084
 0.358  1.243  0.101 -0.061 -0.099 -0.083 -0.083
 0.360  1.248  0.106 -0.058 -0.097 -0.081 -0.081
 0.362  1.251  0.110 -0.055 -0.094 -0.079 -0.079
 0.364  1.255  0.113 -0.053 -0.092 -0.077 -0.077
 0.366  1.260  0.118 -0.049 -0.089 -0.075 -0.075
 0.368  1.264  0.122 -0.047 -0.087 -0.073 -0.073
 0.370  1.267  0.127 -0.043 -0.085 -0.071 -0.071
 0.372  1.272  0.130 -0.041 -0.082 -0.069 -0.069
 0.374  1.276  0.134 -0.038 -0.080 -0.067 -0.067
 0.376  1.279  0.139 -0.035 -0.078 -0.065 -0.065
 0.378  1.283  0.142 -0.032 -0.075 -0.063 -0.063
 0.380  1.288  0.146 -0.030 -0.074 -0.061 -0.061
 0.382  1.291  0.151 -0.026 -0.071 -0.059 -0.059
 0.384  1.295  0.155 -0.024 -0.069 -0.057 -0.057
 0.386  1.298  0.158 -0.020 -0.067 -0.055 -0.055
 0.388  1.303  0.163 -0.018 -0.064 -0.053 -0.053
 0.390  1.307  0.167 -0.015 -0.062 -0.051 -0.051
 0.392  1.310  0.172 -0.012 -0.060 -0.048 -0.048
 0.394  1.315  0.175 -0.009 -0.058 -0.047 -0.047
 0.396  1.318  0.179 -0.007 -0.055 -0.044 -0.044
 0.398  1.322  0.184 -0.003 -0.053 -0.042 -0.042
 0.400  1.325  0.187 -0.001 -0.051 -0.040 -0.040
 0.402  1.329  0.191  0.003 -0.048 -0.038 -0.038
 0.404  1.332  0.196  0.005 -0.047 -0.036 -0.036
 0.406  1.337  0.200  0.008 -0.044 -0.034 -0.034
 0.408  1.340  0.203  0.011 -0.042 -0.032 -0.032
 0.410  1.344  0.208  0.014 -0.040 -0.029 -0.029
 0.412  1.347  0.212  0.017 -0.038 -0.027 -0.027
 0.414  1.352  0.217  0.020 -0.035 -0.025 -0.025
 0.416  1.355  0.220  0.022 -0.034 -0.023 -0.023
 0.418  1.359  0.224  0.025 -0.031 -0.021 -0.021
 0.420  1.362  0.229  0.028 -0.029 -0.018 -0.018
 0.422  1.366  0.233  0.030 -0.028 -0.016 -0.016
 0.424  1.369  0.238  0.034 -0.025 -0.014 -0.014
 0.426  1.372  0.241  0.036 -0.023 -0.011 -0.011
 0.428  1.377  0.245  0.040 -0.021 -0.010 -0.010
 0.430  1.380  0.250  0.042 -0.019 -0.007 -0.007
 0.432  1.383  0.254  0.044 -0.017 -0.005 -0.005
 0.434  1.387  0.257  0.048 -0.014 -0.003 -0.003
 0.436  1.390  0.262  0.050 -0.013 -0.000 -0.000
 0.438  1.393  0.266  0.053 -0.010  0.002  0.002
 0.440  1.398  0.271  0.056 -0.008  0.004  0.004
 0.442  1.400  0.274  0.058 -0.007  0.006  0.006
 0.444  1.403  0.278  0.061 -0.004  0.009  0.009
 0.446  1.406  0.281  0.064 -0.002  0.010  0.010
 0.448  1.409  0.286  0.066 -0.001  0.013  0.013
 0.450  1.414  0.289  0.068  0.002  0.015  0.015
 0.452  1.417  0.293  0.072  0.004  0.017  0.017
 0.454  1.420  0.296  0.074  0.005  0.019  0.019
 0.456  1.423  0.299  0.076  0.008  0.021  0.021
 0.458  1.426  0.304  0.079  0.010  0.023  0.023
 0.460  1.429  0.307  0.082  0.012  0.026  0.026
 0.462  1.432  0.310  0.084  0.014  0.027  0.027
 0.464  1.435  0.313  0.087  0.016  0.029  0.029
 0.466  1.438  0.316  0.089  0.018  0.031  0.031
 0.468  1.440  0.319  0.091  0.019  0.033  0.033
 0.470  1.443  0.322  0.094  0.022  0.035  0.035
 0.472  1.446  0.325  0.097  0.024  0.037  0.037
 0.474  1.449  0.328  0.099  0.025  0.039  0.039
 0.476  1.451  0.331  0.102  0.028  0.041  0.041
 0.478  1.454  0.334  0.104  0.030  0.042  0.042
 0.480  1.457  0.336  0.106  0.032  0.045  0.045
 0.482  1.460  0.339  0.109  0.033  0.047  0.047
 0.484  1.461  0.342  0.111  0.036  0.048  0.048
 0.486  1.464  0.343  0.113  0.038  0.050  0.050
 0.488  1.467  0.346  0.116  0.039  0.052  0.052
 0.490  1.470  0.348  0.118  0.042  0.053  0.053
 0.492  1.472  0.351  0.120  0.044  0.055  0.055
 0.494  1.475  0.352  0.122  0.045  0.057  0.057
 0.496  1.478  0.354  0.125  0.047  0.058  0.058
 0.498  1.479  0.357  0.127  0.050  0.060  0.060
 0.500  1.482  0.358  0.129  0.052  0.062  0.062
 0.502  1.483  0.360  0.132  0.053  0.063  0.063
 0.504  1.486  0.361  0.134  0.056  0.065  0.065
 0.506  1.488  0.363  0.136  0.058  0.067  0.067
 0.508  1.491  0.364  0.137  0.059  0.068  0.068
 0.510  1.492  0.366  0.140  0.061  0.069  0.069
 0.512  1.494  0.367  0.142  0.063  0.071  0.071
 0.514  1.497  0.369  0.144  0.065  0.073  0.073
 0.516  1.498  0.370  0.145  0.067  0.074  0.074
 0.518  1.500  0.372  0.148  0.069  0.076  0.076
 0.520  1.501  0.373  0.150  0.071  0.077  0.077
 0.522  1.503  0.375  0.151  0.072  0.079  0.079
 0.524  1.504  0.376  0.154  0.073  0.080  0.080
 0.526  1.506  0.378  0.155  0.075  0.081  0.081
 0.528  1.507  0.379  0.157  0.077  0.083  0.083
 0.530  1.509  0.379  0.158  0.078  0.084  0.084
 0.532  1.510  0.381  0.160  0.080  0.085  0.085
 0.534  1.512  0.382  0.162  0.081  0.087  0.087
 0.536  1.513  0.384  0.164  0.083  0.088  0.088
 0.538  1.515  0.384  0.165  0.084  0.089  0.089
 0.540  1.515  0.385  0.166  0.085  0.090  0.090
 0.542  1.516  0.387  0.168  0.086  0.092  0.092
 0.544  1.518  0.387  0.170  0.087  0.093  0.093
 0.546  1.518  0.388  0.171  0.088  0.094  0.094
 0.548  1.519  0.388  0.172  0.090  0.095  0.095
 0.550  1.519  0.390  0.173  0.091  0.096  0.096
 0.552  1.520  0.390  0.175  0.091  0.098  0.098
 0.554  1.520  0.391  0.177  0.092  0.099  0.099
 0.556  1.522  0.391  0.178  0.093  0.100  0.100
 0.558  1.522  0.393  0.179  0.094  0.100  0.100
 0.560  1.522  0.393  0.180  0.095  0.102  0.102
 0.562  1.523  0.393  0.181  0.095  0.103  0.103
 0.564  1.523  0.394  0.182  0.096  0.104  0.104
 0.566  1.523  0.394  0.183  0.097  0.105  0.105
 0.568  1.523  0.394  0.185  0.098  0.105  0.105
 0.570  1.523  0.396  0.185  0.098  0.107  0.107
 0.572  1.523  0.396  0.186  0.098  0.108  0.108
 0.574  1.523  0.396  0.187  0.098  0.109  0.109
 0.576  1.523  0.396  0.188  0.098  0.110  0.110
 0.578  1.523  0.396  0.188  0.099  0.110  0.110
 0.580  1.523  0.397  0.189  0.099  0.111  0.111
 0.582  1.523  0.397  0.190  0.099  0.112  0.112
 0.584  1.523  0.397  0.190  0.100  0.113  0.113
 0.586  1.523  0.397  0.192  0.100  0.114  0.114
 0.588  1.523  0.397  0.192  0.100  0.115  0.115
 0.590  1.523  0.397  0.193  0.100  0.116  0.116
 0.592  1.523  0.397  0.193  0.101  0.116  0.116
 0.594  1.523  0.397  0.194  0.101  0.117  0.117
 0.596  1.523  0.397  0.194  0.101  0.117  0.117
 0.598  1.523  0.397  0.195  0.102  0.118  0.118
 0.600  1.523  0.397  0.195  0.102  0.119  0.119
 0.602  1.523  0.397  0.195  0.102  0.120  0.120
 0.604  1.523  0.397  0.195  0.103  0.121  0.121
 0.606  1.523  0.397  0.196  0.103  0.121  0.121
 0.608  1.523  0.397  0.196  0.103  0.121  0.121
 0.610  1.523  0.397  0.196  0.103  0.122  0.122
 0.612  1.523  0.397  0.196  0.104  0.123  0.123
 0.614  1.522  0.397  0.196  0.104  0.124  0.124
 0.616  1.522  0.397  0.196  0.104  0.124  0.124
 0.618  1.522  0.397  0.196  0.104  0.125  0.125
 0.620  1.522  0.397  0.196  0.104  0.126  0.126
 0.622  1.522  0.397  0.196  0.105  0.126  0.126
 0.624  1.522  0.397  0.196  0.105  0.126  0.126
 0.626  1.522  0.397  0.196  0.105  0.127  0.127
 0.628  1.522  0.397  0.195  0.106  0.127  0.127
 0.630  1.522  0.397  0.195  0.106  0.128  0.128
 0.632  1.522  0.397  0.195  0.107  0.129  0.129
 0.634  1.522  0.396  0.194  0.107  0.129  0.129
 0.636  1.522  0.396  0.194  0.108  0.130  0.130
 0.638  1.522  0.396  0.194  0.108  0.130  0.130
 0.640  1.522  0.396  0.193  0.108  0.131  0.131
 0.642  1.522  0.396  0.193  0.109  0.131  0.131
 0.644  1.522  0.396  0.192  0.109  0.131  0.131
 0.646  1.522  0.394  0.192  0.110  0.131  0.131
 0.648  1.520  0.394  0.190  0.110  0.132  0.132
 0.650  1.520  0.394  0.190  0.111  0.132  0.132
 0.652  1.520  0.394  0.189  0.111  0.133  0.133
 0.654  1.520  0.393  0.189  0.111  0.133  0.133
 0.656  1.520  0.393  0.188  0.111  0.133  0.133
 0.658  1.520  0.393  0.188  0.112  0.134  0.134
 0.660  1.520  0.393  0.188  0.112  0.134  0.134
 0.662  1.520  0.391  0.187  0.112  0.135  0.135
 0.664  1.519  0.391  0.187  0.113  0.135  0.135
 0.666  1.519  0.391  0.186  0.113  0.136  0.136
 0.668  1.519  0.390  0.186  0.113  0.136  0.136
 0.670  1.519  0.390  0.185  0.114  0.136  0.136
 0.672  1.519  0.390  0.185  0.114  0.137  0.137
 0.674  1.518  0.388  0.185  0.114  0.137  0.137
 0.676  1.518  0.388  0.183  0.114  0.137  0.137
 0.678  1.518  0.388  0.183  0.114  0.137  0.137
 0.680  1.518  0.387  0.183  0.114  0.138  0.138
 0.682  1.516  0.387  0.182  0.114  0.138  0.138
 0.684  1.516  0.385  0.182  0.114  0.139  0.139
 0.686  1.516  0.385  0.182  0.114  0.139  0.139
 0.688  1.516  0.385  0.182  0.114  0.139  0.139
 0.690  1.515  0.384  0.181  0.114  0.140  0.140
 0.692  1.515  0.384  0.181  0.114  0.140  0.140
 0.694  1.515  0.382  0.181  0.113  0.141  0.141
 0.696  1.513  0.382  0.181  0.113  0.141  0.141
 0.698  1.513  0.381  0.181  0.113  0.142  0.142
 0.700  1.512  0.381  0.180  0.113  0.142  0.142
 0.702  1.512  0.379  0.180  0.113  0.142  0.142
 0.704  1.512  0.379  0.180  0.112  0.142  0.142
 0.706  1.510  0.378  0.180  0.112  0.142  0.142
 0.708  1.510  0.378  0.180  0.111  0.143  0.143
 0.710  1.509  0.376  0.180  0.111  0.143  0.143
 0.712  1.509  0.376  0.180  0.111  0.144  0.144
 0.714  1.507  0.375  0.179  0.111  0.144  0.144
 0.716  1.507  0.375  0.179  0.110  0.144  0.144
 0.718  1.507  0.373  0.179  0.109  0.145  0.145
 0.720  1.506  0.372  0.179  0.108  0.145  0.145
 0.722  1.506  0.372  0.179  0.108  0.146  0.146
 0.724  1.504  0.370  0.179  0.107  0.146  0.146
 0.726  1.504  0.370  0.179  0.107  0.147  0.147
 0.728  1.504  0.369  0.179  0.106  0.147  0.147
 0.730  1.504  0.369  0.179  0.106  0.147  0.147
 0.732  1.504  0.369  0.179  0.106  0.148  0.148
 0.734  1.504  0.369  0.179  0.106  0.149  0.149
 0.736  1.504  0.367  0.179  0.106  0.150  0.150
 0.738  1.504  0.367  0.179  0.106  0.151  0.151
 0.740  1.504  0.367  0.179  0.106  0.152  0.152
 0.742  1.504  0.367  0.178  0.107  0.152  0.152
 0.744  1.504  0.367  0.178  0.108  0.154  0.154
 0.746  1.504  0.367  0.178  0.108  0.155  0.155
 0.748  1.506  0.367  0.178  0.109  0.156  0.156
 0.750  1.506  0.369  0.178  0.110  0.158  0.158
 0.752  1.506  0.369  0.178  0.111  0.158  0.158
 0.754  1.507  0.369  0.178  0.112  0.160  0.160
 0.756  1.507  0.369  0.178  0.114  0.161  0.161
 0.758  1.509  0.370  0.178  0.115  0.163  0.163
 0.760  1.509  0.370  0.178  0.117  0.163  0.163
 0.762  1.510  0.372  0.178  0.118  0.165  0.165
 0.764  1.512  0.372  0.178  0.121  0.167  0.167
 0.766  1.513  0.373  0.178  0.123  0.168  0.168
 0.768  1.513  0.375  0.178  0.124  0.170  0.170
 0.770  1.515  0.375  0.178  0.127  0.172  0.172
 0.772  1.516  0.376  0.178  0.130  0.173  0.173
 0.774  1.518  0.378  0.178  0.132  0.175  0.175
 0.776  1.519  0.379  0.178  0.135  0.177  0.177
 0.778  1.520  0.381  0.178  0.138  0.179  0.179
 0.780  1.522  0.382  0.177  0.141  0.181  0.181
 0.782  1.523  0.384  0.177  0.144  0.184  0.184
 0.784  1.526  0.385  0.177  0.148  0.185  0.185
 0.786  1.528  0.388  0.178  0.151  0.188  0.188
 0.788  1.529  0.390  0.178  0.155  0.189  0.189
 0.790  1.532  0.391  0.178  0.158  0.192  0.192
 0.792  1.534  0.393  0.178  0.162  0.194  0.194
 0.794  1.535  0.396  0.179  0.166  0.196  0.196
 0.796  1.538  0.397  0.180  0.170  0.199  0.199
 0.798  1.541  0.399  0.180  0.173  0.200  0.200
 0.800  1.543  0.402  0.182  0.177  0.203  0.203
 0.802  1.546  0.403  0.183  0.181  0.205  0.205
 0.804  1.549  0.405  0.185  0.184  0.208  0.208
 0.806  1.552  0.408  0.187  0.188  0.210  0.210
 0.808  1.555  0.409  0.188  0.191  0.212  0.212
