# IsPeriodic    : True
# Period        : 0.502026 days
# Normalization : <g_mag>=0
# 
# Phase u_mag  g_mag  r_mag  i_mag  z_mag  y_mag
 0.000  0.258 -0.949 -0.767 -0.638 -0.546 -0.546
 0.002  0.258 -0.947 -0.767 -0.638 -0.546 -0.546
 0.004  0.258 -0.946 -0.767 -0.638 -0.546 -0.546
 0.006  0.259 -0.943 -0.766 -0.636 -0.545 -0.545
 0.008  0.261 -0.940 -0.765 -0.634 -0.544 -0.544
 0.010  0.263 -0.936 -0.763 -0.632 -0.543 -0.543
 0.012  0.265 -0.931 -0.761 -0.629 -0.541 -0.541
 0.014  0.268 -0.924 -0.759 -0.626 -0.540 -0.540
 0.016  0.270 -0.917 -0.757 -0.622 -0.538 -0.538
 0.018  0.274 -0.910 -0.755 -0.618 -0.536 -0.536
 0.020  0.279 -0.903 -0.752 -0.614 -0.534 -0.534
 0.022  0.281 -0.896 -0.750 -0.610 -0.532 -0.532
 0.024  0.285 -0.887 -0.746 -0.606 -0.530 -0.530
 0.026  0.291 -0.880 -0.743 -0.602 -0.527 -0.527
 0.028  0.295 -0.872 -0.740 -0.598 -0.525 -0.525
 0.030  0.299 -0.865 -0.737 -0.594 -0.522 -0.522
 0.032  0.305 -0.858 -0.733 -0.591 -0.520 -0.520
 0.034  0.310 -0.851 -0.730 -0.587 -0.518 -0.518
 0.036  0.316 -0.844 -0.726 -0.584 -0.516 -0.516
 0.038  0.321 -0.837 -0.721 -0.580 -0.513 -0.513
 0.040  0.327 -0.830 -0.718 -0.577 -0.511 -0.511
 0.042  0.334 -0.823 -0.713 -0.573 -0.508 -0.508
 0.044  0.341 -0.816 -0.709 -0.569 -0.505 -0.505
 0.046  0.348 -0.809 -0.705 -0.565 -0.503 -0.503
 0.048  0.354 -0.802 -0.699 -0.561 -0.500 -0.500
 0.050  0.361 -0.794 -0.694 -0.557 -0.497 -0.497
 0.052  0.370 -0.787 -0.689 -0.553 -0.493 -0.493
 0.054  0.378 -0.778 -0.684 -0.549 -0.490 -0.490
 0.056  0.386 -0.770 -0.677 -0.545 -0.487 -0.487
 0.058  0.394 -0.763 -0.672 -0.541 -0.484 -0.484
 0.060  0.403 -0.755 -0.666 -0.537 -0.480 -0.480
 0.062  0.412 -0.746 -0.660 -0.532 -0.476 -0.476
 0.064  0.422 -0.738 -0.653 -0.528 -0.473 -0.473
 0.066  0.430 -0.729 -0.647 -0.524 -0.469 -0.469
 0.068  0.441 -0.721 -0.641 -0.520 -0.465 -0.465
 0.070  0.451 -0.713 -0.633 -0.516 -0.462 -0.462
 0.072  0.461 -0.704 -0.627 -0.512 -0.457 -0.457
 0.074  0.472 -0.696 -0.620 -0.508 -0.454 -0.454
 0.076  0.481 -0.687 -0.613 -0.503 -0.450 -0.450
 0.078  0.492 -0.679 -0.606 -0.499 -0.446 -0.446
 0.080  0.502 -0.671 -0.600 -0.495 -0.442 -0.442
 0.082  0.513 -0.662 -0.592 -0.491 -0.438 -0.438
 0.084  0.523 -0.654 -0.585 -0.486 -0.434 -0.434
 0.086  0.532 -0.646 -0.579 -0.482 -0.430 -0.430
 0.088  0.542 -0.637 -0.573 -0.478 -0.427 -0.427
 0.090  0.552 -0.629 -0.566 -0.474 -0.423 -0.423
 0.092  0.561 -0.620 -0.560 -0.469 -0.419 -0.419
 0.094  0.571 -0.613 -0.554 -0.465 -0.416 -0.416
 0.096  0.579 -0.605 -0.547 -0.461 -0.412 -0.412
 0.098  0.589 -0.597 -0.541 -0.457 -0.409 -0.409
 0.100  0.597 -0.588 -0.535 -0.453 -0.406 -0.406
 0.102  0.605 -0.581 -0.530 -0.449 -0.402 -0.402
 0.104  0.614 -0.573 -0.523 -0.445 -0.399 -0.399
 0.106  0.622 -0.564 -0.518 -0.441 -0.395 -0.395
 0.108  0.630 -0.557 -0.513 -0.438 -0.393 -0.393
 0.110  0.638 -0.550 -0.507 -0.434 -0.389 -0.389
 0.112  0.647 -0.542 -0.501 -0.430 -0.386 -0.386
 0.114  0.654 -0.535 -0.496 -0.427 -0.383 -0.383
 0.116  0.662 -0.528 -0.491 -0.423 -0.380 -0.380
 0.118  0.669 -0.521 -0.486 -0.419 -0.377 -0.377
 0.120  0.677 -0.514 -0.480 -0.415 -0.374 -0.374
 0.122  0.684 -0.507 -0.475 -0.412 -0.371 -0.371
 0.124  0.691 -0.500 -0.470 -0.409 -0.368 -0.368
 0.126  0.698 -0.493 -0.466 -0.405 -0.366 -0.366
 0.128  0.705 -0.486 -0.460 -0.402 -0.363 -0.363
 0.130  0.712 -0.479 -0.456 -0.399 -0.360 -0.360
 0.132  0.717 -0.472 -0.452 -0.395 -0.357 -0.357
 0.134  0.724 -0.467 -0.448 -0.392 -0.355 -0.355
 0.136  0.729 -0.460 -0.443 -0.389 -0.353 -0.353
 0.138  0.736 -0.453 -0.438 -0.386 -0.350 -0.350
 0.140  0.742 -0.447 -0.434 -0.382 -0.348 -0.348
 0.142  0.747 -0.440 -0.431 -0.379 -0.346 -0.346
 0.144  0.753 -0.435 -0.427 -0.376 -0.344 -0.344
 0.146  0.758 -0.428 -0.423 -0.373 -0.341 -0.341
 0.148  0.764 -0.422 -0.419 -0.370 -0.339 -0.339
 0.150  0.769 -0.416 -0.414 -0.367 -0.337 -0.337
 0.152  0.775 -0.411 -0.411 -0.364 -0.335 -0.335
 0.154  0.780 -0.404 -0.407 -0.362 -0.333 -0.333
 0.156  0.786 -0.398 -0.403 -0.358 -0.330 -0.330
 0.158  0.792 -0.393 -0.400 -0.356 -0.328 -0.328
 0.160  0.797 -0.387 -0.396 -0.353 -0.326 -0.326
 0.162  0.801 -0.381 -0.391 -0.350 -0.324 -0.324
 0.164  0.807 -0.376 -0.388 -0.348 -0.322 -0.322
 0.166  0.812 -0.370 -0.384 -0.345 -0.320 -0.320
 0.168  0.818 -0.365 -0.381 -0.342 -0.317 -0.317
 0.170  0.823 -0.359 -0.377 -0.340 -0.315 -0.315
 0.172  0.829 -0.353 -0.373 -0.337 -0.313 -0.313
 0.174  0.834 -0.346 -0.369 -0.334 -0.311 -0.311
 0.176  0.838 -0.341 -0.365 -0.332 -0.309 -0.309
 0.178  0.844 -0.335 -0.362 -0.329 -0.306 -0.306
 0.180  0.849 -0.330 -0.358 -0.326 -0.304 -0.304
 0.182  0.855 -0.324 -0.354 -0.324 -0.302 -0.302
 0.184  0.860 -0.319 -0.351 -0.322 -0.300 -0.300
 0.186  0.866 -0.313 -0.346 -0.319 -0.298 -0.298
 0.188  0.872 -0.307 -0.343 -0.316 -0.295 -0.295
 0.190  0.876 -0.302 -0.339 -0.313 -0.293 -0.293
 0.192  0.881 -0.296 -0.336 -0.311 -0.292 -0.292
 0.194  0.887 -0.291 -0.332 -0.309 -0.290 -0.290
 0.196  0.892 -0.285 -0.329 -0.306 -0.287 -0.287
 0.198  0.898 -0.279 -0.325 -0.304 -0.285 -0.285
 0.200  0.903 -0.274 -0.321 -0.301 -0.283 -0.283
 0.202  0.907 -0.268 -0.318 -0.299 -0.281 -0.281
 0.204  0.913 -0.263 -0.314 -0.297 -0.279 -0.279
 0.206  0.918 -0.257 -0.311 -0.294 -0.276 -0.276
 0.208  0.924 -0.251 -0.308 -0.292 -0.274 -0.274
 0.210  0.928 -0.246 -0.303 -0.289 -0.272 -0.272
 0.212  0.934 -0.240 -0.300 -0.288 -0.270 -0.270
 0.214  0.939 -0.236 -0.296 -0.285 -0.268 -0.268
 0.216  0.945 -0.230 -0.293 -0.283 -0.266 -0.266
 0.218  0.950 -0.225 -0.290 -0.281 -0.263 -0.263
 0.220  0.954 -0.219 -0.286 -0.278 -0.261 -0.261
 0.222  0.960 -0.214 -0.282 -0.277 -0.259 -0.259
 0.224  0.965 -0.208 -0.279 -0.274 -0.257 -0.257
 0.226  0.969 -0.203 -0.276 -0.272 -0.255 -0.255
 0.228  0.975 -0.197 -0.272 -0.270 -0.253 -0.253
 0.230  0.980 -0.193 -0.269 -0.268 -0.251 -0.251
 0.232  0.985 -0.187 -0.266 -0.265 -0.249 -0.249
 0.234  0.990 -0.182 -0.263 -0.264 -0.247 -0.247
 0.236  0.994 -0.176 -0.259 -0.261 -0.244 -0.244
 0.238  1.000 -0.172 -0.256 -0.259 -0.242 -0.242
 0.240  1.004 -0.166 -0.253 -0.257 -0.241 -0.241
 0.242  1.009 -0.161 -0.249 -0.255 -0.239 -0.239
 0.244  1.014 -0.156 -0.246 -0.253 -0.236 -0.236
 0.246  1.018 -0.151 -0.243 -0.251 -0.234 -0.234
 0.248  1.023 -0.147 -0.239 -0.249 -0.233 -0.233
 0.250  1.027 -0.141 -0.236 -0.246 -0.231 -0.231
 0.252  1.031 -0.135 -0.233 -0.244 -0.228 -0.228
 0.254  1.037 -0.131 -0.230 -0.242 -0.227 -0.227
 0.256  1.041 -0.127 -0.228 -0.240 -0.225 -0.225
 0.258  1.045 -0.121 -0.225 -0.238 -0.222 -0.222
 0.260  1.049 -0.117 -0.222 -0.236 -0.221 -0.221
 0.262  1.054 -0.112 -0.219 -0.234 -0.219 -0.219
 0.264  1.059 -0.107 -0.215 -0.232 -0.217 -0.217
 0.266  1.063 -0.103 -0.212 -0.229 -0.215 -0.215
 0.268  1.067 -0.099 -0.209 -0.228 -0.214 -0.214
 0.270  1.071 -0.094 -0.207 -0.225 -0.212 -0.212
 0.272  1.076 -0.089 -0.204 -0.224 -0.210 -0.210
 0.274  1.080 -0.085 -0.201 -0.221 -0.208 -0.208
 0.276  1.084 -0.081 -0.198 -0.220 -0.206 -0.206
 0.278  1.088 -0.077 -0.195 -0.217 -0.204 -0.204
 0.280  1.092 -0.073 -0.192 -0.215 -0.203 -0.203
 0.282  1.096 -0.067 -0.189 -0.213 -0.201 -0.201
 0.284  1.099 -0.063 -0.187 -0.211 -0.199 -0.199
 0.286  1.103 -0.059 -0.184 -0.209 -0.198 -0.198
 0.288  1.107 -0.054 -0.181 -0.207 -0.195 -0.195
 0.290  1.111 -0.050 -0.179 -0.205 -0.194 -0.194
 0.292  1.116 -0.047 -0.176 -0.203 -0.192 -0.192
 0.294  1.120 -0.043 -0.173 -0.201 -0.190 -0.190
 0.296  1.122 -0.039 -0.170 -0.199 -0.189 -0.189
 0.298  1.127 -0.035 -0.168 -0.196 -0.187 -0.187
 0.300  1.131 -0.031 -0.165 -0.195 -0.185 -0.185
 0.302  1.135 -0.026 -0.162 -0.192 -0.184 -0.184
 0.304  1.138 -0.022 -0.160 -0.191 -0.182 -0.182
 0.306  1.142 -0.018 -0.157 -0.188 -0.180 -0.180
 0.308  1.146 -0.015 -0.155 -0.187 -0.179 -0.179
 0.310  1.150 -0.011 -0.151 -0.184 -0.177 -0.177
 0.312  1.153 -0.007 -0.149 -0.183 -0.175 -0.175
 0.314  1.157 -0.003 -0.146 -0.180 -0.174 -0.174
 0.316  1.161  0.002 -0.143 -0.178 -0.171 -0.171
 0.318  1.165  0.006 -0.141 -0.176 -0.170 -0.170
 0.320  1.168  0.009 -0.138 -0.174 -0.168 -0.168
 0.322  1.172  0.013 -0.136 -0.172 -0.166 -0.166
 0.324  1.176  0.017 -0.133 -0.170 -0.165 -0.165
 0.326  1.179  0.021 -0.129 -0.167 -0.163 -0.163
 0.328  1.183  0.025 -0.127 -0.166 -0.161 -0.161
 0.330  1.187  0.028 -0.124 -0.163 -0.160 -0.160
 0.332  1.191  0.032 -0.122 -0.162 -0.158 -0.158
 0.334  1.194  0.036 -0.119 -0.159 -0.157 -0.157
 0.336  1.198  0.041 -0.117 -0.157 -0.155 -0.155
 0.338  1.202  0.045 -0.114 -0.155 -0.153 -0.153
 0.340  1.205  0.048 -0.112 -0.153 -0.152 -0.152
 0.342  1.209  0.052 -0.109 -0.151 -0.150 -0.150
 0.344  1.212  0.056 -0.105 -0.149 -0.148 -0.148
 0.346  1.216  0.060 -0.103 -0.147 -0.147 -0.147
 0.348  1.220  0.063 -0.100 -0.145 -0.144 -0.144
 0.350  1.223  0.067 -0.098 -0.143 -0.143 -0.143
 0.352  1.227  0.071 -0.095 -0.140 -0.141 -0.141
 0.354  1.231  0.076 -0.093 -0.139 -0.139 -0.139
 0.356  1.234  0.078 -0.090 -0.136 -0.138 -0.138
 0.358  1.238  0.083 -0.087 -0.134 -0.136 -0.136
 0.360  1.241  0.087 -0.084 -0.132 -0.135 -0.135
 0.362  1.245  0.090 -0.081 -0.130 -0.133 -0.133
 0.364  1.249  0.094 -0.079 -0.127 -0.131 -0.131
 0.366  1.252  0.098 -0.076 -0.125 -0.130 -0.130
 0.368  1.256  0.102 -0.074 -0.123 -0.128 -0.128
 0.370  1.259  0.105 -0.071 -0.121 -0.126 -0.126
 0.372  1.263  0.109 -0.069 -0.119 -0.125 -0.125
 0.374  1.266  0.113 -0.066 -0.117 -0.123 -0.123
 0.376  1.270  0.116 -0.063 -0.115 -0.121 -0.121
 0.378  1.273  0.120 -0.060 -0.112 -0.119 -0.119
 0.380  1.277  0.125 -0.058 -0.111 -0.117 -0.117
 0.382  1.280  0.129 -0.055 -0.108 -0.116 -0.116
 0.384  1.284  0.131 -0.053 -0.107 -0.114 -0.114
 0.386  1.287  0.136 -0.050 -0.104 -0.112 -0.112
 0.388  1.291  0.140 -0.048 -0.102 -0.110 -0.110
 0.390  1.293  0.144 -0.045 -0.100 -0.109 -0.109
 0.392  1.298  0.147 -0.043 -0.098 -0.106 -0.106
 0.394  1.300  0.151 -0.039 -0.096 -0.105 -0.105
 0.396  1.304  0.155 -0.037 -0.094 -0.103 -0.103
 0.398  1.307  0.159 -0.034 -0.091 -0.101 -0.101
 0.400  1.311  0.162 -0.032 -0.090 -0.099 -0.099
 0.402  1.314  0.166 -0.029 -0.087 -0.098 -0.098
 0.404  1.318  0.171 -0.027 -0.086 -0.096 -0.096
 0.406  1.321  0.175 -0.024 -0.083 -0.094 -0.094
 0.408  1.324  0.179 -0.022 -0.082 -0.092 -0.092
 0.410  1.328  0.182 -0.018 -0.079 -0.090 -0.090
 0.412  1.331  0.186 -0.016 -0.078 -0.088 -0.088
 0.414  1.333  0.190 -0.013 -0.075 -0.086 -0.086
 0.416  1.338  0.194 -0.011 -0.074 -0.085 -0.085
 0.418  1.340  0.199 -0.009 -0.071 -0.082 -0.082
 0.420  1.344  0.201 -0.006 -0.070 -0.080 -0.080
 0.422  1.347  0.206 -0.004 -0.068 -0.079 -0.079
 0.424  1.350  0.210 -0.001 -0.066 -0.077 -0.077
 0.426  1.354  0.214  0.001 -0.064 -0.074 -0.074
 0.428  1.357  0.218  0.005 -0.062 -0.073 -0.073
 0.430  1.360  0.222  0.007 -0.060 -0.071 -0.071
 0.432  1.362  0.225  0.009 -0.058 -0.069 -0.069
 0.434  1.367  0.229  0.012 -0.056 -0.067 -0.067
 0.436  1.369  0.234  0.014 -0.054 -0.065 -0.065
 0.438  1.372  0.238  0.017 -0.052 -0.063 -0.063
 0.440  1.375  0.242  0.019 -0.050 -0.061 -0.061
 0.442  1.379  0.246  0.021 -0.049 -0.059 -0.059
 0.444  1.382  0.249  0.025 -0.046 -0.057 -0.057
 0.446  1.384  0.253  0.027 -0.045 -0.055 -0.055
 0.448  1.387  0.257  0.029 -0.043 -0.053 -0.053
 0.450  1.390  0.260  0.031 -0.041 -0.052 -0.052
 0.452  1.393  0.264  0.034 -0.039 -0.050 -0.050
 0.454  1.395  0.267  0.036 -0.038 -0.048 -0.048
 0.456  1.398  0.270  0.038 -0.035 -0.046 -0.046
 0.458  1.401  0.274  0.040 -0.034 -0.044 -0.044
 0.460  1.404  0.277  0.043 -0.032 -0.042 -0.042
 0.462  1.406  0.280  0.045 -0.030 -0.041 -0.041
 0.464  1.409  0.282  0.048 -0.028 -0.039 -0.039
 0.466  1.412  0.285  0.050 -0.026 -0.037 -0.037
 0.468  1.415  0.288  0.052 -0.025 -0.036 -0.036
 0.470  1.418  0.291  0.054 -0.022 -0.034 -0.034
 0.472  1.420  0.294  0.057 -0.021 -0.032 -0.032
 0.474  1.423  0.296  0.059 -0.019 -0.031 -0.031
 0.476  1.426  0.299  0.061 -0.017 -0.029 -0.029
 0.478  1.427  0.302  0.063 -0.015 -0.028 -0.028
 0.480  1.430  0.303  0.065 -0.013 -0.025 -0.025
 0.482  1.433  0.306  0.067 -0.012 -0.024 -0.024
 0.484  1.435  0.309  0.070 -0.009 -0.023 -0.023
 0.486  1.437  0.310  0.072 -0.008 -0.021 -0.021
 0.488  1.440  0.313  0.074 -0.006 -0.020 -0.020
 0.490  1.442  0.315  0.076 -0.004 -0.018 -0.018
 0.492  1.444  0.316  0.078 -0.002 -0.017 -0.017
 0.494  1.446  0.319  0.080 -0.001 -0.015 -0.015
 0.496  1.449  0.320  0.082  0.001 -0.014 -0.014
 0.498  1.451  0.322  0.084  0.003 -0.012 -0.012
 0.500  1.453  0.323  0.086  0.005 -0.011 -0.011
 0.502  1.455  0.324  0.088  0.007 -0.009 -0.009
 0.504  1.458  0.326  0.091  0.009 -0.008 -0.008
 0.506  1.459  0.327  0.093  0.011 -0.007 -0.007
 0.508  1.462  0.329  0.094  0.012 -0.005 -0.005
 0.510  1.463  0.330  0.096  0.014 -0.004 -0.004
 0.512  1.466  0.331  0.098  0.015 -0.003 -0.003
 0.514  1.467  0.333  0.100  0.017 -0.001 -0.001
 0.516  1.469  0.333  0.101  0.019  0.000  0.000
 0.518  1.470  0.334  0.103  0.021  0.002  0.002
 0.520  1.473  0.336  0.105  0.023  0.002  0.002
 0.522  1.474  0.336  0.106  0.024  0.004  0.004
 0.524  1.475  0.337  0.108  0.025  0.005  0.005
 0.526  1.477  0.338  0.109  0.027  0.006  0.006
 0.528  1.478  0.340  0.111  0.028  0.007  0.007
 0.530  1.480  0.340  0.113  0.030  0.008  0.008
 0.532  1.481  0.341  0.115  0.031  0.010  0.010
 0.534  1.482  0.341  0.116  0.032  0.011  0.011
 0.536  1.484  0.343  0.118  0.034  0.012  0.012
 0.538  1.485  0.344  0.119  0.035  0.013  0.013
 0.540  1.486  0.344  0.120  0.035  0.014  0.014
 0.542  1.488  0.345  0.122  0.037  0.015  0.015
 0.544  1.489  0.347  0.123  0.038  0.016  0.016
 0.546  1.491  0.347  0.124  0.039  0.017  0.017
 0.548  1.492  0.348  0.125  0.040  0.018  0.018
 0.550  1.492  0.348  0.126  0.041  0.019  0.019
 0.552  1.493  0.350  0.128  0.042  0.020  0.020
 0.554  1.495  0.350  0.129  0.043  0.021  0.021
 0.556  1.495  0.351  0.130  0.043  0.022  0.022
 0.558  1.496  0.351  0.131  0.044  0.023  0.023
 0.560  1.496  0.352  0.132  0.045  0.024  0.024
 0.562  1.497  0.352  0.133  0.045  0.025  0.025
 0.564  1.497  0.354  0.135  0.046  0.026  0.026
 0.566  1.499  0.354  0.136  0.047  0.026  0.026
 0.568  1.499  0.354  0.137  0.047  0.027  0.027
 0.570  1.500  0.355  0.137  0.047  0.029  0.029
 0.572  1.500  0.355  0.138  0.048  0.029  0.029
 0.574  1.500  0.356  0.139  0.048  0.030  0.030
 0.576  1.502  0.356  0.140  0.048  0.031  0.031
 0.578  1.502  0.356  0.140  0.049  0.031  0.031
 0.580  1.502  0.358  0.141  0.049  0.032  0.032
 0.582  1.502  0.358  0.142  0.049  0.033  0.033
 0.584  1.503  0.358  0.142  0.050  0.034  0.034
 0.586  1.503  0.359  0.143  0.050  0.034  0.034
 0.588  1.503  0.359  0.143  0.050  0.035  0.035
 0.590  1.503  0.359  0.144  0.050  0.036  0.036
 0.592  1.503  0.359  0.144  0.051  0.037  0.037
 0.594  1.504  0.361  0.145  0.051  0.037  0.037
 0.596  1.504  0.361  0.145  0.051  0.037  0.037
 0.598  1.504  0.361  0.146  0.051  0.038  0.038
 0.600  1.504  0.361  0.146  0.051  0.039  0.039
 0.602  1.504  0.362  0.146  0.051  0.039  0.039
 0.604  1.504  0.362  0.146  0.052  0.040  0.040
 0.606  1.504  0.362  0.147  0.052  0.041  0.041
 0.608  1.504  0.362  0.147  0.052  0.041  0.041
 0.610  1.504  0.362  0.147  0.052  0.042  0.042
 0.612  1.504  0.363  0.147  0.053  0.042  0.042
 0.614  1.504  0.363  0.147  0.053  0.043  0.043
 0.616  1.504  0.363  0.147  0.054  0.043  0.043
 0.618  1.504  0.363  0.147  0.054  0.044  0.044
 0.620  1.504  0.363  0.147  0.054  0.045  0.045
 0.622  1.504  0.363  0.147  0.055  0.045  0.045
 0.624  1.504  0.363  0.147  0.055  0.045  0.045
 0.626  1.503  0.365  0.147  0.055  0.046  0.046
 0.628  1.503  0.365  0.146  0.055  0.046  0.046
 0.630  1.503  0.365  0.146  0.055  0.047  0.047
 0.632  1.503  0.365  0.146  0.056  0.047  0.047
 0.634  1.503  0.365  0.145  0.056  0.047  0.047
 0.636  1.502  0.365  0.145  0.057  0.048  0.048
 0.638  1.502  0.365  0.145  0.057  0.048  0.048
 0.640  1.502  0.365  0.144  0.057  0.049  0.049
 0.642  1.502  0.365  0.144  0.058  0.049  0.049
 0.644  1.500  0.365  0.143  0.058  0.050  0.050
 0.646  1.500  0.365  0.143  0.059  0.050  0.050
 0.648  1.500  0.365  0.142  0.059  0.050  0.050
 0.650  1.499  0.365  0.142  0.060  0.050  0.050
 0.652  1.499  0.365  0.141  0.060  0.051  0.051
 0.654  1.499  0.365  0.141  0.060  0.051  0.051
 0.656  1.499  0.365  0.140  0.060  0.051  0.051
 0.658  1.497  0.365  0.140  0.061  0.052  0.052
 0.660  1.497  0.365  0.140  0.061  0.052  0.052
 0.662  1.497  0.363  0.139  0.061  0.053  0.053
 0.664  1.496  0.363  0.139  0.062  0.053  0.053
 0.666  1.496  0.363  0.138  0.062  0.053  0.053
 0.668  1.496  0.363  0.138  0.062  0.053  0.053
 0.670  1.495  0.363  0.137  0.063  0.053  0.053
 0.672  1.495  0.362  0.137  0.063  0.054  0.054
 0.674  1.495  0.362  0.137  0.063  0.054  0.054
 0.676  1.493  0.362  0.136  0.063  0.055  0.055
 0.678  1.493  0.361  0.136  0.063  0.055  0.055
 0.680  1.493  0.361  0.136  0.063  0.056  0.056
 0.682  1.493  0.359  0.135  0.063  0.056  0.056
 0.684  1.492  0.359  0.135  0.063  0.056  0.056
 0.686  1.492  0.359  0.135  0.063  0.056  0.056
 0.688  1.492  0.358  0.135  0.063  0.056  0.056
 0.690  1.491  0.358  0.133  0.063  0.057  0.057
 0.692  1.491  0.356  0.133  0.063  0.057  0.057
 0.694  1.491  0.356  0.133  0.062  0.058  0.058
 0.696  1.489  0.355  0.133  0.062  0.058  0.058
 0.698  1.489  0.354  0.133  0.062  0.058  0.058
 0.700  1.489  0.354  0.132  0.062  0.058  0.058
 0.702  1.488  0.352  0.132  0.062  0.058  0.058
 0.704  1.488  0.351  0.132  0.061  0.059  0.059
 0.706  1.488  0.351  0.132  0.061  0.059  0.059
 0.708  1.488  0.350  0.132  0.060  0.060  0.060
 0.710  1.486  0.348  0.132  0.060  0.060  0.060
 0.712  1.486  0.347  0.132  0.060  0.061  0.061
 0.714  1.486  0.345  0.131  0.060  0.061  0.061
 0.716  1.485  0.345  0.131  0.059  0.061  0.061
 0.718  1.485  0.344  0.131  0.058  0.061  0.061
 0.720  1.485  0.343  0.131  0.057  0.061  0.061
 0.722  1.485  0.341  0.131  0.057  0.062  0.062
 0.724  1.484  0.340  0.131  0.056  0.062  0.062
 0.726  1.484  0.338  0.131  0.056  0.063  0.063
 0.728  1.484  0.337  0.131  0.055  0.064  0.064
 0.730  1.484  0.337  0.131  0.055  0.064  0.064
 0.732  1.482  0.336  0.131  0.055  0.064  0.064
 0.734  1.482  0.334  0.131  0.055  0.065  0.065
 0.736  1.482  0.334  0.131  0.055  0.066  0.066
 0.738  1.482  0.334  0.131  0.055  0.066  0.066
 0.740  1.481  0.333  0.131  0.055  0.067  0.067
 0.742  1.481  0.333  0.130  0.056  0.068  0.068
 0.744  1.481  0.333  0.130  0.057  0.069  0.069
 0.746  1.481  0.333  0.130  0.057  0.070  0.070
 0.748  1.481  0.333  0.130  0.058  0.071  0.071
 0.750  1.481  0.333  0.130  0.059  0.072  0.072
 0.752  1.480  0.334  0.130  0.060  0.073  0.073
 0.754  1.480  0.334  0.130  0.061  0.074  0.074
 0.756  1.480  0.334  0.130  0.063  0.075  0.075
 0.758  1.480  0.336  0.130  0.064  0.077  0.077
 0.760  1.480  0.336  0.130  0.065  0.077  0.077
 0.762  1.480  0.337  0.130  0.067  0.079  0.079
 0.764  1.480  0.338  0.130  0.069  0.080  0.080
 0.766  1.480  0.340  0.130  0.071  0.082  0.082
 0.768  1.480  0.341  0.130  0.072  0.083  0.083
 0.770  1.480  0.343  0.130  0.075  0.085  0.085
 0.772  1.480  0.344  0.130  0.077  0.086  0.086
 0.774  1.480  0.347  0.130  0.080  0.088  0.088
 0.776  1.478  0.348  0.130  0.082  0.089  0.089
 0.778  1.478  0.351  0.130  0.085  0.091  0.091
 0.780  1.478  0.352  0.129  0.088  0.093  0.093
 0.782  1.478  0.355  0.129  0.091  0.095  0.095
 0.784  1.478  0.358  0.129  0.094  0.096  0.096
 0.786  1.478  0.361  0.130  0.097  0.099  0.099
 0.788  1.478  0.362  0.130  0.100  0.100  0.100
 0.790  1.480  0.365  0.130  0.104  0.102  0.102
 0.792  1.480  0.368  0.130  0.107  0.104  0.104
 0.794  1.481  0.370  0.131  0.111  0.106  0.106
 0.796  1.481  0.375  0.132  0.114  0.108  0.108
 0.798  1.482  0.377  0.132  0.117  0.110  0.110
 0.800  1.484  0.380  0.135  0.121  0.112  0.112
 0.802  1.485  0.383  0.136  0.124  0.114  0.114
 0.804  1.486  0.386  0.137  0.128  0.116  0.116
 0.806  1.488  0.389  0.139  0.131  0.118  0.118
 0.808  1.491  0.391  0.140  0.134  0.120  0.120
