# IsPeriodic    : True
# Period        : 0.658609 days
# Normalization : <g_mag>=0
# 
# Phase u_mag  g_mag  r_mag  i_mag  z_mag  y_mag
 0.000  0.582 -0.524 -0.540 -0.479 -0.495 -0.495
 0.002  0.582 -0.524 -0.540 -0.479 -0.495 -0.495
 0.004  0.583 -0.524 -0.539 -0.479 -0.495 -0.495
 0.006  0.584 -0.523 -0.539 -0.479 -0.495 -0.495
 0.008  0.585 -0.522 -0.539 -0.478 -0.494 -0.494
 0.010  0.587 -0.521 -0.537 -0.478 -0.493 -0.493
 0.012  0.588 -0.520 -0.537 -0.478 -0.492 -0.492
 0.014  0.590 -0.519 -0.536 -0.477 -0.490 -0.490
 0.016  0.593 -0.517 -0.535 -0.477 -0.489 -0.489
 0.018  0.595 -0.515 -0.534 -0.477 -0.488 -0.488
 0.020  0.598 -0.513 -0.532 -0.476 -0.486 -0.486
 0.022  0.601 -0.512 -0.531 -0.475 -0.485 -0.485
 0.024  0.604 -0.510 -0.529 -0.475 -0.483 -0.483
 0.026  0.607 -0.507 -0.528 -0.474 -0.482 -0.482
 0.028  0.609 -0.505 -0.527 -0.473 -0.481 -0.481
 0.030  0.613 -0.503 -0.525 -0.472 -0.479 -0.479
 0.032  0.616 -0.500 -0.523 -0.471 -0.478 -0.478
 0.034  0.619 -0.498 -0.521 -0.470 -0.476 -0.476
 0.036  0.623 -0.495 -0.519 -0.469 -0.475 -0.475
 0.038  0.626 -0.492 -0.518 -0.468 -0.474 -0.474
 0.040  0.630 -0.489 -0.516 -0.467 -0.473 -0.473
 0.042  0.633 -0.486 -0.514 -0.466 -0.472 -0.472
 0.044  0.637 -0.483 -0.511 -0.464 -0.470 -0.470
 0.046  0.640 -0.479 -0.509 -0.463 -0.469 -0.469
 0.048  0.644 -0.477 -0.507 -0.461 -0.468 -0.468
 0.050  0.647 -0.473 -0.505 -0.460 -0.467 -0.467
 0.052  0.651 -0.470 -0.503 -0.458 -0.466 -0.466
 0.054  0.655 -0.465 -0.500 -0.457 -0.464 -0.464
 0.056  0.658 -0.462 -0.498 -0.455 -0.463 -0.463
 0.058  0.663 -0.457 -0.495 -0.454 -0.462 -0.462
 0.060  0.666 -0.454 -0.492 -0.452 -0.460 -0.460
 0.062  0.671 -0.449 -0.490 -0.450 -0.460 -0.460
 0.064  0.675 -0.445 -0.487 -0.448 -0.458 -0.458
 0.066  0.679 -0.441 -0.484 -0.446 -0.457 -0.457
 0.068  0.684 -0.435 -0.481 -0.444 -0.456 -0.456
 0.070  0.688 -0.431 -0.478 -0.442 -0.455 -0.455
 0.072  0.693 -0.426 -0.475 -0.440 -0.453 -0.453
 0.074  0.697 -0.421 -0.472 -0.438 -0.453 -0.453
 0.076  0.702 -0.416 -0.469 -0.436 -0.452 -0.452
 0.078  0.707 -0.411 -0.465 -0.433 -0.450 -0.450
 0.080  0.711 -0.406 -0.461 -0.431 -0.449 -0.449
 0.082  0.716 -0.400 -0.458 -0.429 -0.448 -0.448
 0.084  0.721 -0.395 -0.455 -0.427 -0.447 -0.447
 0.086  0.726 -0.390 -0.452 -0.425 -0.446 -0.446
 0.088  0.730 -0.385 -0.449 -0.423 -0.445 -0.445
 0.090  0.735 -0.379 -0.445 -0.421 -0.444 -0.444
 0.092  0.740 -0.374 -0.442 -0.419 -0.442 -0.442
 0.094  0.745 -0.369 -0.438 -0.417 -0.441 -0.441
 0.096  0.749 -0.365 -0.435 -0.416 -0.440 -0.440
 0.098  0.755 -0.359 -0.432 -0.414 -0.439 -0.439
 0.100  0.759 -0.354 -0.429 -0.413 -0.438 -0.438
 0.102  0.764 -0.350 -0.426 -0.411 -0.436 -0.436
 0.104  0.769 -0.344 -0.423 -0.409 -0.435 -0.435
 0.106  0.774 -0.340 -0.420 -0.408 -0.433 -0.433
 0.108  0.778 -0.335 -0.416 -0.406 -0.432 -0.432
 0.110  0.783 -0.331 -0.414 -0.405 -0.431 -0.431
 0.112  0.787 -0.326 -0.411 -0.403 -0.429 -0.429
 0.114  0.791 -0.322 -0.408 -0.401 -0.428 -0.428
 0.116  0.796 -0.317 -0.405 -0.400 -0.426 -0.426
 0.118  0.800 -0.313 -0.403 -0.399 -0.425 -0.425
 0.120  0.805 -0.309 -0.400 -0.397 -0.423 -0.423
 0.122  0.809 -0.304 -0.397 -0.396 -0.422 -0.422
 0.124  0.812 -0.300 -0.395 -0.394 -0.420 -0.420
 0.126  0.817 -0.296 -0.392 -0.393 -0.419 -0.419
 0.128  0.821 -0.292 -0.389 -0.392 -0.417 -0.417
 0.130  0.825 -0.289 -0.387 -0.391 -0.415 -0.415
 0.132  0.829 -0.284 -0.385 -0.390 -0.413 -0.413
 0.134  0.833 -0.281 -0.382 -0.389 -0.412 -0.412
 0.136  0.837 -0.276 -0.380 -0.388 -0.410 -0.410
 0.138  0.841 -0.273 -0.378 -0.386 -0.408 -0.408
 0.140  0.845 -0.269 -0.375 -0.385 -0.406 -0.406
 0.142  0.848 -0.266 -0.373 -0.384 -0.404 -0.404
 0.144  0.853 -0.262 -0.371 -0.383 -0.402 -0.402
 0.146  0.856 -0.259 -0.369 -0.382 -0.400 -0.400
 0.148  0.860 -0.255 -0.367 -0.381 -0.398 -0.398
 0.150  0.863 -0.252 -0.365 -0.381 -0.397 -0.397
 0.152  0.867 -0.248 -0.363 -0.380 -0.394 -0.394
 0.154  0.870 -0.245 -0.360 -0.379 -0.392 -0.392
 0.156  0.874 -0.242 -0.358 -0.378 -0.391 -0.391
 0.158  0.877 -0.239 -0.357 -0.377 -0.388 -0.388
 0.160  0.881 -0.235 -0.355 -0.376 -0.386 -0.386
 0.162  0.884 -0.232 -0.353 -0.375 -0.384 -0.384
 0.164  0.888 -0.229 -0.351 -0.374 -0.382 -0.382
 0.166  0.891 -0.226 -0.349 -0.373 -0.380 -0.380
 0.168  0.895 -0.222 -0.347 -0.372 -0.378 -0.378
 0.170  0.898 -0.219 -0.345 -0.371 -0.377 -0.377
 0.172  0.902 -0.215 -0.343 -0.370 -0.375 -0.375
 0.174  0.905 -0.212 -0.341 -0.368 -0.373 -0.373
 0.176  0.909 -0.208 -0.339 -0.367 -0.371 -0.371
 0.178  0.912 -0.205 -0.337 -0.366 -0.370 -0.370
 0.180  0.916 -0.201 -0.335 -0.365 -0.368 -0.368
 0.182  0.920 -0.198 -0.333 -0.364 -0.366 -0.366
 0.184  0.924 -0.194 -0.331 -0.363 -0.364 -0.364
 0.186  0.927 -0.191 -0.329 -0.361 -0.363 -0.363
 0.188  0.931 -0.187 -0.327 -0.360 -0.362 -0.362
 0.190  0.934 -0.184 -0.325 -0.359 -0.360 -0.360
 0.192  0.938 -0.180 -0.322 -0.358 -0.358 -0.358
 0.194  0.942 -0.176 -0.320 -0.356 -0.357 -0.357
 0.196  0.945 -0.172 -0.319 -0.355 -0.356 -0.356
 0.198  0.950 -0.169 -0.317 -0.354 -0.354 -0.354
 0.200  0.953 -0.165 -0.314 -0.353 -0.353 -0.353
 0.202  0.958 -0.162 -0.312 -0.351 -0.351 -0.351
 0.204  0.961 -0.157 -0.310 -0.350 -0.350 -0.350
 0.206  0.965 -0.154 -0.308 -0.349 -0.349 -0.349
 0.208  0.969 -0.150 -0.306 -0.347 -0.347 -0.347
 0.210  0.973 -0.146 -0.304 -0.346 -0.346 -0.346
 0.212  0.977 -0.142 -0.301 -0.345 -0.345 -0.345
 0.214  0.981 -0.138 -0.299 -0.343 -0.344 -0.344
 0.216  0.985 -0.135 -0.297 -0.342 -0.343 -0.343
 0.218  0.989 -0.130 -0.295 -0.341 -0.342 -0.342
 0.220  0.993 -0.127 -0.293 -0.340 -0.341 -0.341
 0.222  0.997 -0.122 -0.290 -0.338 -0.340 -0.340
 0.224  1.001 -0.119 -0.288 -0.337 -0.338 -0.338
 0.226  1.005 -0.114 -0.286 -0.335 -0.337 -0.337
 0.228  1.009 -0.111 -0.284 -0.334 -0.336 -0.336
 0.230  1.014 -0.107 -0.281 -0.333 -0.336 -0.336
 0.232  1.018 -0.103 -0.279 -0.331 -0.335 -0.335
 0.234  1.022 -0.100 -0.277 -0.330 -0.334 -0.334
 0.236  1.026 -0.095 -0.275 -0.329 -0.332 -0.332
 0.238  1.030 -0.092 -0.273 -0.327 -0.331 -0.331
 0.240  1.034 -0.088 -0.270 -0.326 -0.330 -0.330
 0.242  1.038 -0.085 -0.268 -0.325 -0.329 -0.329
 0.244  1.042 -0.081 -0.266 -0.323 -0.328 -0.328
 0.246  1.046 -0.078 -0.264 -0.322 -0.327 -0.327
 0.248  1.050 -0.074 -0.261 -0.320 -0.326 -0.326
 0.250  1.054 -0.071 -0.259 -0.319 -0.325 -0.325
 0.252  1.057 -0.067 -0.257 -0.318 -0.324 -0.324
 0.254  1.061 -0.064 -0.255 -0.316 -0.322 -0.322
 0.256  1.064 -0.060 -0.253 -0.315 -0.321 -0.321
 0.258  1.068 -0.058 -0.250 -0.314 -0.320 -0.320
 0.260  1.071 -0.054 -0.248 -0.312 -0.319 -0.319
 0.262  1.075 -0.052 -0.246 -0.311 -0.317 -0.317
 0.264  1.078 -0.048 -0.244 -0.310 -0.316 -0.316
 0.266  1.082 -0.045 -0.242 -0.308 -0.315 -0.315
 0.268  1.085 -0.042 -0.239 -0.307 -0.314 -0.314
 0.270  1.089 -0.039 -0.237 -0.305 -0.312 -0.312
 0.272  1.092 -0.037 -0.235 -0.305 -0.311 -0.311
 0.274  1.096 -0.033 -0.233 -0.303 -0.309 -0.309
 0.276  1.099 -0.031 -0.231 -0.302 -0.308 -0.308
 0.278  1.102 -0.028 -0.228 -0.301 -0.307 -0.307
 0.280  1.106 -0.025 -0.226 -0.299 -0.305 -0.305
 0.282  1.109 -0.023 -0.224 -0.298 -0.304 -0.304
 0.284  1.112 -0.020 -0.222 -0.297 -0.302 -0.302
 0.286  1.115 -0.017 -0.220 -0.295 -0.301 -0.301
 0.288  1.118 -0.015 -0.217 -0.294 -0.299 -0.299
 0.290  1.121 -0.012 -0.215 -0.293 -0.298 -0.298
 0.292  1.124 -0.010 -0.213 -0.291 -0.296 -0.296
 0.294  1.127 -0.008 -0.211 -0.290 -0.294 -0.294
 0.296  1.129 -0.005 -0.209 -0.288 -0.293 -0.293
 0.298  1.133 -0.003 -0.206 -0.287 -0.291 -0.291
 0.300  1.135 -0.001 -0.205 -0.286 -0.290 -0.290
 0.302  1.138  0.002 -0.203 -0.284 -0.288 -0.288
 0.304  1.141  0.004 -0.200 -0.283 -0.287 -0.287
 0.306  1.143  0.007 -0.198 -0.281 -0.285 -0.285
 0.308  1.146  0.009 -0.196 -0.280 -0.283 -0.283
 0.310  1.148  0.011 -0.194 -0.278 -0.282 -0.282
 0.312  1.152  0.014 -0.192 -0.277 -0.280 -0.280
 0.314  1.155  0.017 -0.190 -0.275 -0.279 -0.279
 0.316  1.157  0.019 -0.188 -0.274 -0.277 -0.277
 0.318  1.160  0.022 -0.186 -0.272 -0.276 -0.276
 0.320  1.162  0.025 -0.184 -0.271 -0.274 -0.274
 0.322  1.165  0.027 -0.181 -0.269 -0.273 -0.273
 0.324  1.168  0.030 -0.179 -0.268 -0.272 -0.272
 0.326  1.170  0.032 -0.177 -0.267 -0.270 -0.270
 0.328  1.173  0.035 -0.176 -0.265 -0.269 -0.269
 0.330  1.177  0.038 -0.174 -0.264 -0.267 -0.267
 0.332  1.179  0.040 -0.172 -0.262 -0.266 -0.266
 0.334  1.182  0.043 -0.170 -0.260 -0.265 -0.265
 0.336  1.184  0.046 -0.168 -0.259 -0.263 -0.263
 0.338  1.187  0.049 -0.166 -0.257 -0.262 -0.262
 0.340  1.190  0.052 -0.164 -0.256 -0.261 -0.261
 0.342  1.192  0.054 -0.162 -0.254 -0.260 -0.260
 0.344  1.195  0.057 -0.160 -0.252 -0.258 -0.258
 0.346  1.198  0.060 -0.158 -0.251 -0.257 -0.257
 0.348  1.201  0.063 -0.156 -0.249 -0.256 -0.256
 0.350  1.204  0.066 -0.154 -0.247 -0.255 -0.255
 0.352  1.206  0.069 -0.152 -0.245 -0.253 -0.253
 0.354  1.209  0.072 -0.150 -0.244 -0.253 -0.253
 0.356  1.212  0.075 -0.149 -0.242 -0.251 -0.251
 0.358  1.214  0.078 -0.147 -0.240 -0.250 -0.250
 0.360  1.217  0.081 -0.145 -0.239 -0.249 -0.249
 0.362  1.219  0.084 -0.143 -0.237 -0.248 -0.248
 0.364  1.223  0.088 -0.141 -0.235 -0.247 -0.247
 0.366  1.226  0.091 -0.139 -0.233 -0.246 -0.246
 0.368  1.228  0.094 -0.138 -0.232 -0.245 -0.245
 0.370  1.231  0.097 -0.136 -0.231 -0.244 -0.244
 0.372  1.233  0.100 -0.134 -0.229 -0.243 -0.243
 0.374  1.236  0.103 -0.132 -0.227 -0.242 -0.242
 0.376  1.239  0.106 -0.131 -0.226 -0.241 -0.241
 0.378  1.241  0.109 -0.129 -0.224 -0.239 -0.239
 0.380  1.244  0.112 -0.127 -0.223 -0.239 -0.239
 0.382  1.247  0.115 -0.126 -0.221 -0.238 -0.238
 0.384  1.250  0.118 -0.124 -0.219 -0.237 -0.237
 0.386  1.253  0.121 -0.122 -0.218 -0.235 -0.235
 0.388  1.255  0.123 -0.121 -0.216 -0.234 -0.234
 0.390  1.258  0.126 -0.119 -0.215 -0.233 -0.233
 0.392  1.261  0.129 -0.118 -0.213 -0.232 -0.232
 0.394  1.262  0.131 -0.116 -0.212 -0.231 -0.231
 0.396  1.265  0.134 -0.114 -0.210 -0.230 -0.230
 0.398  1.268  0.136 -0.112 -0.209 -0.229 -0.229
 0.400  1.270  0.139 -0.111 -0.207 -0.227 -0.227
 0.402  1.273  0.142 -0.109 -0.206 -0.226 -0.226
 0.404  1.275  0.143 -0.108 -0.205 -0.225 -0.225
 0.406  1.278  0.146 -0.106 -0.203 -0.224 -0.224
 0.408  1.281  0.149 -0.105 -0.202 -0.222 -0.222
 0.410  1.283  0.151 -0.103 -0.201 -0.221 -0.221
 0.412  1.285  0.153 -0.101 -0.199 -0.220 -0.220
 0.414  1.288  0.156 -0.100 -0.198 -0.218 -0.218
 0.416  1.290  0.157 -0.098 -0.197 -0.218 -0.218
 0.418  1.293  0.160 -0.097 -0.195 -0.216 -0.216
 0.420  1.295  0.162 -0.095 -0.194 -0.215 -0.215
 0.422  1.297  0.164 -0.094 -0.193 -0.213 -0.213
 0.424  1.300  0.166 -0.092 -0.192 -0.212 -0.212
 0.426  1.303  0.168 -0.091 -0.191 -0.211 -0.211
 0.428  1.304  0.170 -0.089 -0.189 -0.209 -0.209
 0.430  1.307  0.171 -0.088 -0.188 -0.208 -0.208
 0.432  1.310  0.173 -0.087 -0.187 -0.206 -0.206
 0.434  1.311  0.175 -0.085 -0.186 -0.205 -0.205
 0.436  1.314  0.177 -0.083 -0.185 -0.204 -0.204
 0.438  1.316  0.178 -0.082 -0.183 -0.202 -0.202
 0.440  1.318  0.180 -0.081 -0.182 -0.201 -0.201
 0.442  1.321  0.182 -0.080 -0.181 -0.199 -0.199
 0.444  1.323  0.184 -0.078 -0.180 -0.198 -0.198
 0.446  1.325  0.185 -0.077 -0.179 -0.197 -0.197
 0.448  1.327  0.187 -0.076 -0.178 -0.195 -0.195
 0.450  1.329  0.189 -0.074 -0.176 -0.194 -0.194
 0.452  1.331  0.190 -0.073 -0.175 -0.192 -0.192
 0.454  1.333  0.192 -0.071 -0.174 -0.191 -0.191
 0.456  1.335  0.193 -0.070 -0.173 -0.190 -0.190
 0.458  1.338  0.195 -0.069 -0.172 -0.189 -0.189
 0.460  1.339  0.196 -0.067 -0.171 -0.187 -0.187
 0.462  1.341  0.198 -0.066 -0.170 -0.186 -0.186
 0.464  1.343  0.199 -0.065 -0.169 -0.184 -0.184
 0.466  1.345  0.200 -0.063 -0.168 -0.183 -0.183
 0.468  1.346  0.202 -0.062 -0.167 -0.182 -0.182
 0.470  1.348  0.204 -0.061 -0.166 -0.181 -0.181
 0.472  1.350  0.205 -0.060 -0.165 -0.180 -0.180
 0.474  1.352  0.206 -0.059 -0.164 -0.178 -0.178
 0.476  1.353  0.207 -0.058 -0.163 -0.177 -0.177
 0.478  1.355  0.209 -0.056 -0.162 -0.176 -0.176
 0.480  1.357  0.210 -0.055 -0.161 -0.175 -0.175
 0.482  1.358  0.212 -0.054 -0.160 -0.174 -0.174
 0.484  1.359  0.213 -0.053 -0.159 -0.173 -0.173
 0.486  1.361  0.214 -0.051 -0.158 -0.172 -0.172
 0.488  1.362  0.215 -0.050 -0.157 -0.171 -0.171
 0.490  1.364  0.217 -0.049 -0.157 -0.170 -0.170
 0.492  1.365  0.218 -0.048 -0.156 -0.169 -0.169
 0.494  1.366  0.219 -0.047 -0.155 -0.168 -0.168
 0.496  1.367  0.220 -0.045 -0.154 -0.167 -0.167
 0.498  1.368  0.221 -0.044 -0.153 -0.166 -0.166
 0.500  1.369  0.222 -0.044 -0.152 -0.165 -0.165
 0.502  1.371  0.223 -0.042 -0.151 -0.164 -0.164
 0.504  1.372  0.225 -0.041 -0.150 -0.163 -0.163
 0.506  1.373  0.226 -0.040 -0.149 -0.163 -0.163
 0.508  1.373  0.227 -0.039 -0.148 -0.162 -0.162
 0.510  1.374  0.227 -0.038 -0.148 -0.161 -0.161
 0.512  1.375  0.228 -0.036 -0.147 -0.160 -0.160
 0.514  1.376  0.230 -0.036 -0.146 -0.159 -0.159
 0.516  1.377  0.231 -0.035 -0.145 -0.158 -0.158
 0.518  1.378  0.232 -0.033 -0.144 -0.157 -0.157
 0.520  1.379  0.233 -0.033 -0.143 -0.156 -0.156
 0.522  1.380  0.234 -0.031 -0.143 -0.156 -0.156
 0.524  1.380  0.234 -0.031 -0.142 -0.155 -0.155
 0.526  1.381  0.235 -0.029 -0.141 -0.154 -0.154
 0.528  1.381  0.236 -0.029 -0.140 -0.154 -0.154
 0.530  1.382  0.237 -0.028 -0.139 -0.153 -0.153
 0.532  1.383  0.238 -0.027 -0.138 -0.152 -0.152
 0.534  1.384  0.238 -0.026 -0.137 -0.151 -0.151
 0.536  1.385  0.239 -0.026 -0.137 -0.150 -0.150
 0.538  1.386  0.240 -0.024 -0.136 -0.150 -0.150
 0.540  1.387  0.241 -0.024 -0.135 -0.149 -0.149
 0.542  1.387  0.241 -0.023 -0.134 -0.148 -0.148
 0.544  1.387  0.241 -0.022 -0.133 -0.148 -0.148
 0.546  1.388  0.242 -0.022 -0.132 -0.147 -0.147
 0.548  1.389  0.243 -0.021 -0.132 -0.146 -0.146
 0.550  1.390  0.243 -0.020 -0.131 -0.145 -0.145
 0.552  1.390  0.244 -0.020 -0.130 -0.145 -0.145
 0.554  1.391  0.244 -0.019 -0.129 -0.144 -0.144
 0.556  1.392  0.245 -0.018 -0.128 -0.143 -0.143
 0.558  1.393  0.245 -0.018 -0.128 -0.142 -0.142
 0.560  1.393  0.246 -0.017 -0.127 -0.142 -0.142
 0.562  1.394  0.246 -0.016 -0.126 -0.141 -0.141
 0.564  1.394  0.247 -0.016 -0.125 -0.141 -0.141
 0.566  1.395  0.247 -0.015 -0.124 -0.140 -0.140
 0.568  1.395  0.247 -0.015 -0.124 -0.139 -0.139
 0.570  1.396  0.248 -0.015 -0.123 -0.138 -0.138
 0.572  1.397  0.248 -0.014 -0.122 -0.138 -0.138
 0.574  1.398  0.248 -0.014 -0.121 -0.137 -0.137
 0.576  1.398  0.248 -0.013 -0.120 -0.136 -0.136
 0.578  1.399  0.248 -0.013 -0.120 -0.136 -0.136
 0.580  1.400  0.248 -0.013 -0.119 -0.135 -0.135
 0.582  1.400  0.248 -0.013 -0.118 -0.135 -0.135
 0.584  1.401  0.248 -0.012 -0.118 -0.134 -0.134
 0.586  1.401  0.249 -0.012 -0.117 -0.133 -0.133
 0.588  1.401  0.249 -0.011 -0.116 -0.133 -0.133
 0.590  1.402  0.249 -0.011 -0.115 -0.132 -0.132
 0.592  1.403  0.249 -0.011 -0.114 -0.131 -0.131
 0.594  1.403  0.249 -0.011 -0.113 -0.131 -0.131
 0.596  1.404  0.249 -0.010 -0.112 -0.130 -0.130
 0.598  1.405  0.250 -0.010 -0.111 -0.129 -0.129
 0.600  1.405  0.250 -0.009 -0.110 -0.129 -0.129
 0.602  1.406  0.250 -0.009 -0.109 -0.128 -0.128
 0.604  1.406  0.250 -0.009 -0.108 -0.128 -0.128
 0.606  1.407  0.250 -0.009 -0.107 -0.127 -0.127
 0.608  1.407  0.250 -0.008 -0.106 -0.126 -0.126
 0.610  1.408  0.251 -0.008 -0.105 -0.126 -0.126
 0.612  1.408  0.251 -0.007 -0.104 -0.125 -0.125
 0.614  1.408  0.251 -0.007 -0.103 -0.124 -0.124
 0.616  1.408  0.251 -0.007 -0.102 -0.123 -0.123
 0.618  1.409  0.251 -0.006 -0.100 -0.123 -0.123
 0.620  1.409  0.252 -0.006 -0.099 -0.122 -0.122
 0.622  1.409  0.252 -0.006 -0.098 -0.121 -0.121
 0.624  1.410  0.252 -0.006 -0.097 -0.121 -0.121
 0.626  1.410  0.252 -0.005 -0.096 -0.120 -0.120
 0.628  1.410  0.253 -0.004 -0.095 -0.120 -0.120
 0.630  1.411  0.253 -0.004 -0.093 -0.119 -0.119
 0.632  1.411  0.253 -0.004 -0.092 -0.118 -0.118
 0.634  1.411  0.253 -0.003 -0.091 -0.117 -0.117
 0.636  1.411  0.253 -0.003 -0.090 -0.117 -0.117
 0.638  1.412  0.254 -0.002 -0.088 -0.116 -0.116
 0.640  1.412  0.254 -0.002 -0.087 -0.115 -0.115
 0.642  1.412  0.254 -0.002 -0.086 -0.115 -0.115
 0.644  1.412  0.254 -0.001 -0.084 -0.114 -0.114
 0.646  1.413  0.254 -0.000 -0.083 -0.114 -0.114
 0.648  1.413  0.255 -0.000 -0.082 -0.113 -0.113
 0.650  1.413  0.255  0.000 -0.081 -0.112 -0.112
 0.652  1.413  0.255  0.001 -0.079 -0.111 -0.111
 0.654  1.413  0.255  0.001 -0.078 -0.111 -0.111
 0.656  1.413  0.255  0.002 -0.076 -0.110 -0.110
 0.658  1.413  0.255  0.002 -0.075 -0.109 -0.109
 0.660  1.413  0.256  0.003 -0.074 -0.108 -0.108
 0.662  1.413  0.257  0.003 -0.072 -0.108 -0.108
 0.664  1.414  0.257  0.004 -0.070 -0.107 -0.107
 0.666  1.414  0.258  0.005 -0.069 -0.107 -0.107
 0.668  1.414  0.259  0.006 -0.067 -0.106 -0.106
 0.670  1.414  0.260  0.007 -0.066 -0.105 -0.105
 0.672  1.414  0.261  0.009 -0.064 -0.104 -0.104
 0.674  1.415  0.262  0.009 -0.063 -0.103 -0.103
 0.676  1.415  0.262  0.011 -0.061 -0.103 -0.103
 0.678  1.415  0.264  0.012 -0.059 -0.102 -0.102
 0.680  1.415  0.265  0.014 -0.058 -0.101 -0.101
 0.682  1.416  0.267  0.016 -0.056 -0.100 -0.100
 0.684  1.416  0.268  0.017 -0.054 -0.100 -0.100
 0.686  1.417  0.269  0.019 -0.052 -0.099 -0.099
 0.688  1.417  0.271  0.021 -0.051 -0.098 -0.098
 0.690  1.418  0.273  0.023 -0.049 -0.097 -0.097
 0.692  1.419  0.275  0.025 -0.047 -0.097 -0.097
 0.694  1.419  0.276  0.027 -0.045 -0.096 -0.096
 0.696  1.420  0.278  0.029 -0.044 -0.095 -0.095
 0.698  1.421  0.280  0.031 -0.042 -0.094 -0.094
 0.700  1.422  0.283  0.033 -0.040 -0.093 -0.093
 0.702  1.422  0.284  0.036 -0.038 -0.093 -0.093
 0.704  1.422  0.287  0.038 -0.036 -0.092 -0.092
 0.706  1.423  0.289  0.040 -0.034 -0.091 -0.091
 0.708  1.424  0.291  0.043 -0.032 -0.090 -0.090
 0.710  1.425  0.294  0.046 -0.030 -0.089 -0.089
 0.712  1.426  0.297  0.049 -0.028 -0.088 -0.088
 0.714  1.428  0.299  0.052 -0.026 -0.088 -0.088
 0.716  1.429  0.302  0.055 -0.024 -0.087 -0.087
 0.718  1.429  0.305  0.058 -0.022 -0.086 -0.086
 0.720  1.430  0.308  0.061 -0.020 -0.085 -0.085
 0.722  1.432  0.311  0.065 -0.018 -0.084 -0.084
 0.724  1.433  0.314  0.068 -0.017 -0.083 -0.083
 0.726  1.434  0.317  0.071 -0.015 -0.082 -0.082
 0.728  1.436  0.319  0.074 -0.013 -0.082 -0.082
 0.730  1.436  0.323  0.078 -0.011 -0.081 -0.081
 0.732  1.437  0.325  0.080 -0.010 -0.080 -0.080
 0.734  1.439  0.328  0.083 -0.008 -0.079 -0.079
 0.736  1.440  0.330  0.086 -0.007 -0.078 -0.078
 0.738  1.441  0.332  0.088 -0.005 -0.077 -0.077
 0.740  1.442  0.334  0.090 -0.004 -0.076 -0.076
 0.742  1.443  0.337  0.092 -0.002 -0.075 -0.075
 0.744  1.444  0.339  0.095 -0.001 -0.074 -0.074
 0.746  1.445  0.340  0.096  0.000 -0.073 -0.073
 0.748  1.446  0.342  0.098  0.001 -0.072 -0.072
 0.750  1.447  0.344  0.099  0.002 -0.070 -0.070
 0.752  1.448  0.345  0.101  0.004 -0.069 -0.069
 0.754  1.449  0.346  0.102  0.005 -0.068 -0.068
 0.756  1.450  0.347  0.103  0.005 -0.067 -0.067
 0.758  1.450  0.348  0.103  0.006 -0.066 -0.066
 0.760  1.451  0.349  0.104  0.007 -0.064 -0.064
 0.762  1.452  0.349  0.104  0.008 -0.063 -0.063
 0.764  1.452  0.350  0.104  0.009 -0.062 -0.062
 0.766  1.453  0.351  0.104  0.010 -0.060 -0.060
 0.768  1.454  0.351  0.103  0.010 -0.059 -0.059
 0.770  1.454  0.351  0.103  0.011 -0.058 -0.058
 0.772  1.455  0.351  0.103  0.012 -0.056 -0.056
 0.774  1.455  0.351  0.101  0.012 -0.055 -0.055
 0.776  1.455  0.351  0.101  0.013 -0.053 -0.053
 0.778  1.456  0.350  0.099  0.014 -0.052 -0.052
 0.780  1.456  0.350  0.098  0.014 -0.050 -0.050
 0.782  1.456  0.349  0.096  0.014 -0.049 -0.049
 0.784  1.457  0.348  0.095  0.015 -0.047 -0.047
 0.786  1.457  0.347  0.093  0.015 -0.045 -0.045
 0.788  1.457  0.346  0.091  0.015 -0.044 -0.044
 0.790  1.457  0.345  0.088  0.014 -0.042 -0.042
 0.792  1.457  0.344  0.086  0.014 -0.040 -0.040
 0.794  1.457  0.342  0.083  0.013 -0.039 -0.039
 0.796  1.457  0.340  0.081  0.012 -0.037 -0.037
 0.798  1.457  0.339  0.078  0.011 -0.036 -0.036
 0.800  1.457  0.336  0.074  0.009 -0.034 -0.034
 0.802  1.457  0.333  0.071  0.008 -0.032 -0.032
 0.804  1.457  0.331  0.067  0.006 -0.031 -0.031
 0.806  1.456  0.327  0.063  0.003 -0.031 -0.031
 0.808  1.454  0.324  0.060  0.001 -0.030 -0.030
