# IsPeriodic    : True
# Period        : 0.603456 days
# Normalization : <g_mag>=0
# 
# Phase u_mag  g_mag  r_mag  i_mag  z_mag  y_mag
 0.000  0.469 -0.755 -0.673 -0.595 -0.505 -0.505
 0.002  0.469 -0.756 -0.673 -0.595 -0.504 -0.504
 0.004  0.470 -0.755 -0.673 -0.595 -0.504 -0.504
 0.006  0.471 -0.754 -0.673 -0.593 -0.502 -0.502
 0.008  0.472 -0.753 -0.671 -0.591 -0.501 -0.501
 0.010  0.474 -0.750 -0.670 -0.588 -0.498 -0.498
 0.012  0.476 -0.748 -0.668 -0.585 -0.496 -0.496
 0.014  0.478 -0.746 -0.666 -0.581 -0.493 -0.493
 0.016  0.481 -0.743 -0.664 -0.578 -0.490 -0.490
 0.018  0.483 -0.740 -0.661 -0.573 -0.488 -0.488
 0.020  0.487 -0.736 -0.659 -0.569 -0.484 -0.484
 0.022  0.490 -0.733 -0.656 -0.564 -0.481 -0.481
 0.024  0.494 -0.729 -0.654 -0.559 -0.478 -0.478
 0.026  0.497 -0.726 -0.650 -0.555 -0.475 -0.475
 0.028  0.500 -0.722 -0.648 -0.550 -0.472 -0.472
 0.030  0.504 -0.717 -0.645 -0.546 -0.469 -0.469
 0.032  0.508 -0.714 -0.641 -0.542 -0.467 -0.467
 0.034  0.512 -0.709 -0.639 -0.537 -0.464 -0.464
 0.036  0.517 -0.706 -0.635 -0.533 -0.461 -0.461
 0.038  0.522 -0.701 -0.632 -0.529 -0.459 -0.459
 0.040  0.526 -0.696 -0.629 -0.525 -0.456 -0.456
 0.042  0.531 -0.692 -0.625 -0.521 -0.454 -0.454
 0.044  0.536 -0.687 -0.622 -0.517 -0.451 -0.451
 0.046  0.541 -0.681 -0.618 -0.514 -0.449 -0.449
 0.048  0.547 -0.676 -0.614 -0.509 -0.446 -0.446
 0.050  0.553 -0.670 -0.610 -0.506 -0.443 -0.443
 0.052  0.559 -0.664 -0.605 -0.502 -0.441 -0.441
 0.054  0.565 -0.659 -0.601 -0.498 -0.439 -0.439
 0.056  0.572 -0.653 -0.597 -0.495 -0.436 -0.436
 0.058  0.578 -0.646 -0.592 -0.491 -0.433 -0.433
 0.060  0.585 -0.640 -0.588 -0.488 -0.431 -0.431
 0.062  0.591 -0.633 -0.582 -0.484 -0.428 -0.428
 0.064  0.598 -0.626 -0.578 -0.481 -0.425 -0.425
 0.066  0.606 -0.619 -0.572 -0.477 -0.423 -0.423
 0.068  0.614 -0.611 -0.567 -0.475 -0.421 -0.421
 0.070  0.621 -0.604 -0.562 -0.471 -0.418 -0.418
 0.072  0.630 -0.597 -0.556 -0.468 -0.416 -0.416
 0.074  0.637 -0.590 -0.551 -0.465 -0.413 -0.413
 0.076  0.645 -0.582 -0.546 -0.462 -0.412 -0.412
 0.078  0.652 -0.575 -0.540 -0.459 -0.409 -0.409
 0.080  0.661 -0.568 -0.535 -0.456 -0.407 -0.407
 0.082  0.669 -0.560 -0.528 -0.454 -0.404 -0.404
 0.084  0.676 -0.553 -0.523 -0.451 -0.403 -0.403
 0.086  0.683 -0.545 -0.518 -0.448 -0.400 -0.400
 0.088  0.691 -0.538 -0.513 -0.445 -0.398 -0.398
 0.090  0.698 -0.530 -0.508 -0.442 -0.396 -0.396
 0.092  0.705 -0.523 -0.503 -0.440 -0.394 -0.394
 0.094  0.712 -0.516 -0.497 -0.438 -0.391 -0.391
 0.096  0.719 -0.510 -0.493 -0.435 -0.389 -0.389
 0.098  0.726 -0.503 -0.488 -0.432 -0.387 -0.387
 0.100  0.732 -0.496 -0.483 -0.429 -0.385 -0.385
 0.102  0.738 -0.489 -0.478 -0.427 -0.383 -0.383
 0.104  0.745 -0.483 -0.474 -0.424 -0.381 -0.381
 0.106  0.751 -0.476 -0.469 -0.421 -0.379 -0.379
 0.108  0.757 -0.470 -0.464 -0.419 -0.377 -0.377
 0.110  0.762 -0.463 -0.460 -0.417 -0.375 -0.375
 0.112  0.768 -0.457 -0.456 -0.414 -0.372 -0.372
 0.114  0.774 -0.451 -0.452 -0.412 -0.371 -0.371
 0.116  0.780 -0.444 -0.447 -0.409 -0.369 -0.369
 0.118  0.785 -0.438 -0.443 -0.406 -0.367 -0.367
 0.120  0.790 -0.432 -0.439 -0.404 -0.365 -0.365
 0.122  0.795 -0.426 -0.435 -0.401 -0.363 -0.363
 0.124  0.801 -0.421 -0.431 -0.399 -0.361 -0.361
 0.126  0.806 -0.415 -0.426 -0.396 -0.359 -0.359
 0.128  0.810 -0.409 -0.423 -0.394 -0.357 -0.357
 0.130  0.815 -0.404 -0.419 -0.391 -0.356 -0.356
 0.132  0.819 -0.398 -0.416 -0.389 -0.354 -0.354
 0.134  0.823 -0.393 -0.412 -0.387 -0.353 -0.353
 0.136  0.827 -0.388 -0.409 -0.384 -0.351 -0.351
 0.138  0.832 -0.383 -0.405 -0.382 -0.349 -0.349
 0.140  0.836 -0.377 -0.401 -0.379 -0.347 -0.347
 0.142  0.840 -0.372 -0.398 -0.377 -0.345 -0.345
 0.144  0.843 -0.368 -0.395 -0.374 -0.344 -0.344
 0.146  0.847 -0.362 -0.392 -0.372 -0.342 -0.342
 0.148  0.851 -0.357 -0.389 -0.370 -0.341 -0.341
 0.150  0.854 -0.352 -0.385 -0.367 -0.339 -0.339
 0.152  0.859 -0.348 -0.382 -0.365 -0.338 -0.338
 0.154  0.862 -0.343 -0.379 -0.362 -0.336 -0.336
 0.156  0.866 -0.338 -0.376 -0.360 -0.334 -0.334
 0.158  0.869 -0.332 -0.373 -0.358 -0.333 -0.333
 0.160  0.873 -0.327 -0.370 -0.355 -0.331 -0.331
 0.162  0.876 -0.323 -0.366 -0.353 -0.330 -0.330
 0.164  0.880 -0.318 -0.364 -0.351 -0.328 -0.328
 0.166  0.883 -0.313 -0.361 -0.348 -0.326 -0.326
 0.168  0.888 -0.309 -0.358 -0.346 -0.325 -0.325
 0.170  0.892 -0.304 -0.355 -0.344 -0.323 -0.323
 0.172  0.895 -0.299 -0.351 -0.342 -0.322 -0.322
 0.174  0.899 -0.295 -0.349 -0.339 -0.320 -0.320
 0.176  0.903 -0.290 -0.346 -0.337 -0.318 -0.318
 0.178  0.906 -0.285 -0.342 -0.335 -0.317 -0.317
 0.180  0.910 -0.280 -0.340 -0.333 -0.315 -0.315
 0.182  0.915 -0.276 -0.337 -0.331 -0.314 -0.314
 0.184  0.918 -0.271 -0.333 -0.329 -0.312 -0.312
 0.186  0.922 -0.266 -0.331 -0.327 -0.311 -0.311
 0.188  0.926 -0.262 -0.328 -0.324 -0.309 -0.309
 0.190  0.930 -0.257 -0.324 -0.322 -0.308 -0.308
 0.192  0.933 -0.252 -0.322 -0.320 -0.306 -0.306
 0.194  0.937 -0.247 -0.319 -0.318 -0.304 -0.304
 0.196  0.941 -0.243 -0.316 -0.316 -0.303 -0.303
 0.198  0.946 -0.238 -0.313 -0.314 -0.301 -0.301
 0.200  0.949 -0.233 -0.310 -0.312 -0.299 -0.299
 0.202  0.953 -0.229 -0.307 -0.310 -0.298 -0.298
 0.204  0.957 -0.224 -0.305 -0.308 -0.296 -0.296
 0.206  0.961 -0.219 -0.302 -0.306 -0.294 -0.294
 0.208  0.965 -0.214 -0.298 -0.304 -0.293 -0.293
 0.210  0.968 -0.210 -0.296 -0.302 -0.291 -0.291
 0.212  0.973 -0.205 -0.293 -0.301 -0.290 -0.290
 0.214  0.977 -0.200 -0.290 -0.299 -0.288 -0.288
 0.216  0.981 -0.196 -0.288 -0.297 -0.286 -0.286
 0.218  0.985 -0.192 -0.285 -0.295 -0.285 -0.285
 0.220  0.989 -0.187 -0.282 -0.293 -0.283 -0.283
 0.222  0.993 -0.183 -0.279 -0.291 -0.282 -0.282
 0.224  0.996 -0.178 -0.276 -0.290 -0.280 -0.280
 0.226  1.001 -0.173 -0.273 -0.287 -0.278 -0.278
 0.228  1.005 -0.168 -0.271 -0.286 -0.276 -0.276
 0.230  1.009 -0.165 -0.268 -0.284 -0.275 -0.275
 0.232  1.012 -0.160 -0.265 -0.283 -0.273 -0.273
 0.234  1.016 -0.155 -0.263 -0.280 -0.271 -0.271
 0.236  1.019 -0.152 -0.260 -0.279 -0.270 -0.270
 0.238  1.023 -0.147 -0.257 -0.277 -0.268 -0.268
 0.240  1.028 -0.144 -0.255 -0.276 -0.267 -0.267
 0.242  1.031 -0.139 -0.252 -0.274 -0.265 -0.265
 0.244  1.035 -0.135 -0.249 -0.272 -0.264 -0.264
 0.246  1.038 -0.131 -0.247 -0.270 -0.262 -0.262
 0.248  1.041 -0.127 -0.244 -0.269 -0.261 -0.261
 0.250  1.045 -0.122 -0.241 -0.267 -0.259 -0.259
 0.252  1.048 -0.119 -0.238 -0.265 -0.258 -0.258
 0.254  1.052 -0.115 -0.237 -0.264 -0.256 -0.256
 0.256  1.055 -0.111 -0.234 -0.262 -0.255 -0.255
 0.258  1.059 -0.107 -0.231 -0.260 -0.253 -0.253
 0.260  1.062 -0.104 -0.229 -0.258 -0.252 -0.252
 0.262  1.066 -0.100 -0.226 -0.257 -0.250 -0.250
 0.264  1.069 -0.097 -0.223 -0.255 -0.249 -0.249
 0.266  1.072 -0.093 -0.221 -0.253 -0.247 -0.247
 0.268  1.075 -0.090 -0.219 -0.251 -0.246 -0.246
 0.270  1.078 -0.086 -0.216 -0.250 -0.244 -0.244
 0.272  1.081 -0.082 -0.213 -0.248 -0.243 -0.243
 0.274  1.084 -0.079 -0.211 -0.246 -0.242 -0.242
 0.276  1.088 -0.075 -0.209 -0.245 -0.241 -0.241
 0.278  1.091 -0.072 -0.206 -0.243 -0.239 -0.239
 0.280  1.094 -0.068 -0.204 -0.241 -0.238 -0.238
 0.282  1.097 -0.065 -0.202 -0.239 -0.237 -0.237
 0.284  1.100 -0.061 -0.199 -0.238 -0.235 -0.235
 0.286  1.103 -0.059 -0.196 -0.237 -0.234 -0.234
 0.288  1.106 -0.055 -0.194 -0.234 -0.232 -0.232
 0.290  1.109 -0.052 -0.192 -0.233 -0.231 -0.231
 0.292  1.111 -0.049 -0.189 -0.231 -0.230 -0.230
 0.294  1.115 -0.046 -0.187 -0.230 -0.229 -0.229
 0.296  1.118 -0.042 -0.185 -0.228 -0.228 -0.228
 0.298  1.121 -0.039 -0.182 -0.226 -0.226 -0.226
 0.300  1.124 -0.036 -0.180 -0.225 -0.225 -0.225
 0.302  1.126 -0.033 -0.178 -0.223 -0.224 -0.224
 0.304  1.129 -0.029 -0.175 -0.221 -0.223 -0.223
 0.306  1.132 -0.027 -0.173 -0.219 -0.222 -0.222
 0.308  1.135 -0.024 -0.170 -0.218 -0.220 -0.220
 0.310  1.138 -0.020 -0.168 -0.216 -0.219 -0.219
 0.312  1.140 -0.016 -0.166 -0.214 -0.217 -0.217
 0.314  1.144 -0.013 -0.163 -0.213 -0.216 -0.216
 0.316  1.147 -0.011 -0.162 -0.211 -0.215 -0.215
 0.318  1.150 -0.007 -0.159 -0.209 -0.214 -0.214
 0.320  1.153 -0.004 -0.156 -0.208 -0.213 -0.213
 0.322  1.155  0.000 -0.154 -0.206 -0.211 -0.211
 0.324  1.158  0.004 -0.152 -0.204 -0.210 -0.210
 0.326  1.161  0.007 -0.150 -0.202 -0.208 -0.208
 0.328  1.164  0.011 -0.147 -0.201 -0.207 -0.207
 0.330  1.166  0.014 -0.145 -0.199 -0.206 -0.206
 0.332  1.169  0.018 -0.143 -0.197 -0.205 -0.205
 0.334  1.173  0.021 -0.140 -0.195 -0.204 -0.204
 0.336  1.176  0.025 -0.138 -0.194 -0.202 -0.202
 0.338  1.178  0.028 -0.136 -0.192 -0.201 -0.201
 0.340  1.181  0.032 -0.134 -0.190 -0.199 -0.199
 0.342  1.184  0.035 -0.131 -0.189 -0.198 -0.198
 0.344  1.187  0.039 -0.128 -0.187 -0.197 -0.197
 0.346  1.190  0.042 -0.127 -0.186 -0.195 -0.195
 0.348  1.192  0.046 -0.124 -0.183 -0.194 -0.194
 0.350  1.195  0.050 -0.122 -0.182 -0.193 -0.193
 0.352  1.198  0.053 -0.119 -0.180 -0.191 -0.191
 0.354  1.202  0.057 -0.118 -0.179 -0.190 -0.190
 0.356  1.204  0.060 -0.115 -0.176 -0.188 -0.188
 0.358  1.207  0.064 -0.113 -0.175 -0.187 -0.187
 0.360  1.210  0.068 -0.111 -0.173 -0.185 -0.185
 0.362  1.212  0.072 -0.109 -0.172 -0.184 -0.184
 0.364  1.215  0.075 -0.106 -0.170 -0.183 -0.183
 0.366  1.218  0.079 -0.104 -0.168 -0.181 -0.181
 0.368  1.221  0.083 -0.102 -0.166 -0.180 -0.180
 0.370  1.223  0.086 -0.100 -0.165 -0.179 -0.179
 0.372  1.226  0.090 -0.097 -0.163 -0.177 -0.177
 0.374  1.230  0.093 -0.094 -0.161 -0.176 -0.176
 0.376  1.232  0.097 -0.093 -0.159 -0.175 -0.175
 0.378  1.235  0.100 -0.090 -0.157 -0.173 -0.173
 0.380  1.238  0.104 -0.088 -0.156 -0.172 -0.172
 0.382  1.240  0.107 -0.085 -0.153 -0.170 -0.170
 0.384  1.243  0.111 -0.084 -0.152 -0.169 -0.169
 0.386  1.245  0.113 -0.081 -0.151 -0.167 -0.167
 0.388  1.248  0.117 -0.079 -0.149 -0.166 -0.166
 0.390  1.251  0.120 -0.076 -0.147 -0.164 -0.164
 0.392  1.253  0.124 -0.075 -0.145 -0.163 -0.163
 0.394  1.257  0.127 -0.072 -0.144 -0.161 -0.161
 0.396  1.259  0.130 -0.070 -0.142 -0.160 -0.160
 0.398  1.262  0.133 -0.068 -0.140 -0.158 -0.158
 0.400  1.264  0.137 -0.066 -0.138 -0.157 -0.157
 0.402  1.267  0.139 -0.063 -0.137 -0.155 -0.155
 0.404  1.269  0.143 -0.060 -0.135 -0.154 -0.154
 0.406  1.272  0.145 -0.059 -0.133 -0.152 -0.152
 0.408  1.274  0.148 -0.056 -0.132 -0.151 -0.151
 0.410  1.277  0.151 -0.054 -0.130 -0.149 -0.149
 0.412  1.279  0.154 -0.051 -0.128 -0.148 -0.148
 0.414  1.282  0.157 -0.050 -0.127 -0.146 -0.146
 0.416  1.285  0.160 -0.047 -0.126 -0.145 -0.145
 0.418  1.288  0.163 -0.045 -0.123 -0.143 -0.143
 0.420  1.290  0.165 -0.042 -0.122 -0.142 -0.142
 0.422  1.293  0.169 -0.041 -0.121 -0.140 -0.140
 0.424  1.295  0.171 -0.038 -0.119 -0.139 -0.139
 0.426  1.297  0.173 -0.035 -0.117 -0.137 -0.137
 0.428  1.300  0.176 -0.034 -0.116 -0.136 -0.136
 0.430  1.302  0.179 -0.031 -0.114 -0.134 -0.134
 0.432  1.304  0.181 -0.029 -0.112 -0.133 -0.133
 0.434  1.307  0.184 -0.026 -0.111 -0.131 -0.131
 0.436  1.309  0.186 -0.025 -0.109 -0.130 -0.130
 0.438  1.311  0.189 -0.022 -0.108 -0.128 -0.128
 0.440  1.315  0.191 -0.020 -0.106 -0.127 -0.127
 0.442  1.317  0.193 -0.017 -0.105 -0.125 -0.125
 0.444  1.319  0.196 -0.016 -0.103 -0.124 -0.124
 0.446  1.321  0.198 -0.014 -0.102 -0.122 -0.122
 0.448  1.323  0.200 -0.011 -0.100 -0.120 -0.120
 0.450  1.326  0.203 -0.009 -0.098 -0.119 -0.119
 0.452  1.328  0.205 -0.008 -0.097 -0.117 -0.117
 0.454  1.330  0.207 -0.005 -0.096 -0.116 -0.116
 0.456  1.332  0.210 -0.003 -0.094 -0.115 -0.115
 0.458  1.334  0.212 -0.001 -0.093 -0.113 -0.113
 0.460  1.336  0.214  0.000 -0.091 -0.112 -0.112
 0.462  1.338  0.217  0.003 -0.090 -0.110 -0.110
 0.464  1.340  0.218  0.005 -0.088 -0.108 -0.108
 0.466  1.343  0.220  0.007 -0.086 -0.107 -0.107
 0.468  1.345  0.223  0.009 -0.085 -0.106 -0.106
 0.470  1.347  0.224  0.010 -0.084 -0.105 -0.105
 0.472  1.349  0.226  0.012 -0.082 -0.103 -0.103
 0.474  1.351  0.229  0.014 -0.081 -0.102 -0.102
 0.476  1.352  0.230  0.016 -0.079 -0.101 -0.101
 0.478  1.354  0.232  0.017 -0.078 -0.099 -0.099
 0.480  1.356  0.234  0.019 -0.077 -0.098 -0.098
 0.482  1.358  0.236  0.021 -0.075 -0.097 -0.097
 0.484  1.359  0.238  0.023 -0.073 -0.096 -0.096
 0.486  1.361  0.239  0.025 -0.072 -0.095 -0.095
 0.488  1.363  0.242  0.026 -0.070 -0.093 -0.093
 0.490  1.365  0.243  0.028 -0.069 -0.092 -0.092
 0.492  1.366  0.245  0.029 -0.068 -0.091 -0.091
 0.494  1.368  0.246  0.031 -0.066 -0.090 -0.090
 0.496  1.371  0.247  0.033 -0.065 -0.089 -0.089
 0.498  1.372  0.250  0.034 -0.063 -0.088 -0.088
 0.500  1.374  0.251  0.036 -0.062 -0.087 -0.087
 0.502  1.375  0.252  0.037 -0.061 -0.086 -0.086
 0.504  1.377  0.255  0.039 -0.059 -0.085 -0.085
 0.506  1.378  0.256  0.041 -0.058 -0.084 -0.084
 0.508  1.380  0.257  0.042 -0.056 -0.083 -0.083
 0.510  1.381  0.258  0.043 -0.055 -0.082 -0.082
 0.512  1.382  0.259  0.044 -0.054 -0.081 -0.081
 0.514  1.384  0.262  0.046 -0.052 -0.080 -0.080
 0.516  1.385  0.263  0.047 -0.051 -0.079 -0.079
 0.518  1.386  0.264  0.049 -0.049 -0.078 -0.078
 0.520  1.387  0.265  0.050 -0.048 -0.077 -0.077
 0.522  1.388  0.266  0.051 -0.047 -0.077 -0.077
 0.524  1.389  0.267  0.052 -0.046 -0.075 -0.075
 0.526  1.390  0.269  0.053 -0.045 -0.075 -0.075
 0.528  1.391  0.270  0.055 -0.043 -0.074 -0.074
 0.530  1.392  0.270  0.056 -0.042 -0.073 -0.073
 0.532  1.393  0.271  0.057 -0.041 -0.072 -0.072
 0.534  1.394  0.272  0.058 -0.040 -0.071 -0.071
 0.536  1.395  0.273  0.060 -0.039 -0.071 -0.071
 0.538  1.396  0.275  0.060 -0.038 -0.069 -0.069
 0.540  1.396  0.275  0.061 -0.038 -0.069 -0.069
 0.542  1.397  0.276  0.062 -0.036 -0.068 -0.068
 0.544  1.398  0.277  0.063 -0.036 -0.067 -0.067
 0.546  1.398  0.277  0.064 -0.035 -0.066 -0.066
 0.548  1.400  0.278  0.065 -0.034 -0.065 -0.065
 0.550  1.400  0.278  0.066 -0.033 -0.065 -0.065
 0.552  1.401  0.279  0.067 -0.033 -0.063 -0.063
 0.554  1.401  0.279  0.068 -0.032 -0.063 -0.063
 0.556  1.402  0.280  0.069 -0.031 -0.062 -0.062
 0.558  1.402  0.280  0.069 -0.031 -0.061 -0.061
 0.560  1.402  0.282  0.069 -0.030 -0.060 -0.060
 0.562  1.403  0.282  0.070 -0.030 -0.060 -0.060
 0.564  1.403  0.282  0.071 -0.029 -0.059 -0.059
 0.566  1.403  0.283  0.071 -0.029 -0.058 -0.058
 0.568  1.403  0.283  0.072 -0.029 -0.057 -0.057
 0.570  1.403  0.283  0.073 -0.028 -0.056 -0.056
 0.572  1.403  0.283  0.073 -0.028 -0.056 -0.056
 0.574  1.403  0.283  0.074 -0.028 -0.055 -0.055
 0.576  1.403  0.284  0.075 -0.027 -0.054 -0.054
 0.578  1.403  0.284  0.075 -0.027 -0.053 -0.053
 0.580  1.403  0.284  0.076 -0.027 -0.053 -0.053
 0.582  1.403  0.284  0.076 -0.027 -0.052 -0.052
 0.584  1.403  0.284  0.077 -0.027 -0.051 -0.051
 0.586  1.403  0.284  0.077 -0.027 -0.051 -0.051
 0.588  1.403  0.284  0.077 -0.027 -0.050 -0.050
 0.590  1.403  0.285  0.077 -0.027 -0.049 -0.049
 0.592  1.403  0.285  0.078 -0.027 -0.048 -0.048
 0.594  1.403  0.285  0.078 -0.027 -0.048 -0.048
 0.596  1.403  0.285  0.078 -0.027 -0.047 -0.047
 0.598  1.403  0.285  0.079 -0.026 -0.047 -0.047
 0.600  1.403  0.285  0.079 -0.026 -0.045 -0.045
 0.602  1.403  0.286  0.080 -0.026 -0.045 -0.045
 0.604  1.403  0.286  0.080 -0.026 -0.044 -0.044
 0.606  1.403  0.286  0.080 -0.026 -0.044 -0.044
 0.608  1.403  0.286  0.081 -0.026 -0.043 -0.043
 0.610  1.403  0.288  0.081 -0.026 -0.042 -0.042
 0.612  1.403  0.288  0.081 -0.026 -0.042 -0.042
 0.614  1.402  0.288  0.082 -0.026 -0.041 -0.041
 0.616  1.402  0.288  0.082 -0.026 -0.041 -0.041
 0.618  1.402  0.289  0.082 -0.026 -0.040 -0.040
 0.620  1.402  0.289  0.083 -0.025 -0.039 -0.039
 0.622  1.402  0.289  0.083 -0.025 -0.039 -0.039
 0.624  1.402  0.290  0.083 -0.024 -0.038 -0.038
 0.626  1.402  0.290  0.083 -0.024 -0.038 -0.038
 0.628  1.402  0.290  0.084 -0.024 -0.037 -0.037
 0.630  1.402  0.291  0.084 -0.024 -0.036 -0.036
 0.632  1.402  0.291  0.084 -0.024 -0.036 -0.036
 0.634  1.402  0.291  0.084 -0.023 -0.035 -0.035
 0.636  1.402  0.292  0.084 -0.023 -0.035 -0.035
 0.638  1.402  0.292  0.085 -0.022 -0.034 -0.034
 0.640  1.402  0.292  0.085 -0.022 -0.033 -0.033
 0.642  1.402  0.293  0.085 -0.022 -0.033 -0.033
 0.644  1.402  0.293  0.085 -0.021 -0.033 -0.033
 0.646  1.402  0.293  0.085 -0.021 -0.032 -0.032
 0.648  1.401  0.295  0.085 -0.020 -0.032 -0.032
 0.650  1.401  0.295  0.085 -0.019 -0.031 -0.031
 0.652  1.401  0.295  0.085 -0.019 -0.030 -0.030
 0.654  1.401  0.296  0.085 -0.019 -0.030 -0.030
 0.656  1.401  0.296  0.085 -0.018 -0.030 -0.030
 0.658  1.401  0.296  0.085 -0.017 -0.029 -0.029
 0.660  1.401  0.296  0.085 -0.017 -0.029 -0.029
 0.662  1.401  0.296  0.085 -0.017 -0.028 -0.028
 0.664  1.400  0.297  0.085 -0.016 -0.028 -0.028
 0.666  1.400  0.297  0.085 -0.015 -0.027 -0.027
 0.668  1.400  0.297  0.085 -0.015 -0.027 -0.027
 0.670  1.400  0.297  0.084 -0.015 -0.027 -0.027
 0.672  1.400  0.297  0.084 -0.014 -0.026 -0.026
 0.674  1.398  0.296  0.084 -0.014 -0.026 -0.026
 0.676  1.398  0.296  0.084 -0.014 -0.026 -0.026
 0.678  1.398  0.296  0.083 -0.013 -0.026 -0.026
 0.680  1.398  0.296  0.083 -0.013 -0.025 -0.025
 0.682  1.397  0.296  0.083 -0.013 -0.025 -0.025
 0.684  1.397  0.295  0.082 -0.013 -0.025 -0.025
 0.686  1.397  0.295  0.082 -0.012 -0.024 -0.024
 0.688  1.397  0.293  0.081 -0.012 -0.024 -0.024
 0.690  1.396  0.293  0.081 -0.012 -0.024 -0.024
 0.692  1.396  0.293  0.080 -0.012 -0.024 -0.024
 0.694  1.396  0.292  0.080 -0.012 -0.024 -0.024
 0.696  1.395  0.292  0.079 -0.012 -0.023 -0.023
 0.698  1.395  0.291  0.079 -0.012 -0.023 -0.023
 0.700  1.394  0.290  0.078 -0.012 -0.023 -0.023
 0.702  1.394  0.290  0.078 -0.012 -0.023 -0.023
 0.704  1.394  0.289  0.077 -0.013 -0.023 -0.023
 0.706  1.393  0.288  0.077 -0.013 -0.023 -0.023
 0.708  1.393  0.288  0.076 -0.013 -0.023 -0.023
 0.710  1.392  0.286  0.076 -0.014 -0.023 -0.023
 0.712  1.392  0.285  0.075 -0.014 -0.023 -0.023
 0.714  1.391  0.284  0.074 -0.015 -0.023 -0.023
 0.716  1.391  0.283  0.073 -0.015 -0.023 -0.023
 0.718  1.391  0.282  0.073 -0.015 -0.023 -0.023
 0.720  1.390  0.280  0.072 -0.016 -0.023 -0.023
 0.722  1.390  0.279  0.071 -0.017 -0.023 -0.023
 0.724  1.389  0.279  0.071 -0.017 -0.023 -0.023
 0.726  1.389  0.278  0.070 -0.018 -0.023 -0.023
 0.728  1.389  0.277  0.069 -0.018 -0.023 -0.023
 0.730  1.389  0.277  0.069 -0.019 -0.023 -0.023
 0.732  1.389  0.277  0.069 -0.019 -0.023 -0.023
 0.734  1.389  0.277  0.069 -0.019 -0.022 -0.022
 0.736  1.389  0.277  0.069 -0.019 -0.022 -0.022
 0.738  1.389  0.277  0.069 -0.019 -0.021 -0.021
 0.740  1.389  0.277  0.069 -0.020 -0.020 -0.020
 0.742  1.389  0.277  0.069 -0.019 -0.020 -0.020
 0.744  1.389  0.278  0.069 -0.019 -0.018 -0.018
 0.746  1.389  0.278  0.070 -0.019 -0.017 -0.017
 0.748  1.390  0.279  0.070 -0.019 -0.016 -0.016
 0.750  1.390  0.280  0.071 -0.018 -0.015 -0.015
 0.752  1.390  0.282  0.071 -0.017 -0.013 -0.013
 0.754  1.391  0.283  0.072 -0.016 -0.012 -0.012
 0.756  1.391  0.284  0.073 -0.015 -0.010 -0.010
 0.758  1.392  0.285  0.074 -0.012 -0.007 -0.007
 0.760  1.392  0.286  0.075 -0.011 -0.006 -0.006
 0.762  1.393  0.289  0.076 -0.009 -0.003 -0.003
 0.764  1.394  0.290  0.077 -0.007 -0.001 -0.001
 0.766  1.395  0.292  0.077 -0.005  0.002  0.002
 0.768  1.395  0.295  0.079 -0.003  0.004  0.004
 0.770  1.396  0.297  0.080 -0.001  0.007  0.007
 0.772  1.397  0.299  0.082  0.002  0.010  0.010
 0.774  1.398  0.302  0.084  0.005  0.013  0.013
 0.776  1.400  0.304  0.085  0.008  0.017  0.017
 0.778  1.401  0.308  0.086  0.011  0.020  0.020
 0.780  1.402  0.310  0.088  0.014  0.023  0.023
 0.782  1.403  0.313  0.090  0.018  0.027  0.027
 0.784  1.405  0.317  0.093  0.021  0.030  0.030
 0.786  1.406  0.320  0.094  0.025  0.035  0.035
 0.788  1.407  0.324  0.096  0.029  0.038  0.038
 0.790  1.409  0.326  0.098  0.032  0.042  0.042
 0.792  1.410  0.330  0.101  0.037  0.047  0.047
 0.794  1.411  0.333  0.103  0.041  0.051  0.051
 0.796  1.413  0.337  0.105  0.046  0.056  0.056
 0.798  1.415  0.341  0.107  0.050  0.060  0.060
 0.800  1.416  0.344  0.110  0.055  0.064  0.064
 0.802  1.418  0.348  0.112  0.060  0.068  0.068
 0.804  1.420  0.351  0.115  0.065  0.073  0.073
 0.806  1.422  0.353  0.118  0.069  0.076  0.076
 0.808  1.424  0.357  0.120  0.073  0.080  0.080
