# IsPeriodic    : True
# Period        : 0.636129 days
# Normalization : <g_mag>=0
# 
# Phase u_mag  g_mag  r_mag  i_mag  z_mag  y_mag
 0.000  0.438 -0.784 -0.760 -0.674 -0.659 -0.659
 0.002  0.438 -0.784 -0.760 -0.674 -0.659 -0.659
 0.004  0.438 -0.783 -0.760 -0.673 -0.659 -0.659
 0.006  0.439 -0.782 -0.759 -0.672 -0.659 -0.659
 0.008  0.440 -0.781 -0.757 -0.671 -0.659 -0.659
 0.010  0.441 -0.779 -0.756 -0.670 -0.658 -0.658
 0.012  0.442 -0.778 -0.755 -0.668 -0.657 -0.657
 0.014  0.444 -0.776 -0.753 -0.666 -0.657 -0.657
 0.016  0.447 -0.773 -0.750 -0.664 -0.656 -0.656
 0.018  0.449 -0.771 -0.747 -0.662 -0.654 -0.654
 0.020  0.451 -0.768 -0.745 -0.660 -0.653 -0.653
 0.022  0.455 -0.766 -0.743 -0.658 -0.652 -0.652
 0.024  0.458 -0.762 -0.740 -0.655 -0.651 -0.651
 0.026  0.463 -0.758 -0.736 -0.652 -0.649 -0.649
 0.028  0.466 -0.754 -0.733 -0.650 -0.647 -0.647
 0.030  0.471 -0.751 -0.731 -0.647 -0.646 -0.646
 0.032  0.477 -0.746 -0.727 -0.645 -0.644 -0.644
 0.034  0.481 -0.741 -0.724 -0.642 -0.642 -0.642
 0.036  0.487 -0.736 -0.720 -0.639 -0.640 -0.640
 0.038  0.493 -0.731 -0.718 -0.637 -0.637 -0.637
 0.040  0.500 -0.724 -0.714 -0.634 -0.635 -0.635
 0.042  0.505 -0.718 -0.710 -0.631 -0.632 -0.632
 0.044  0.512 -0.712 -0.706 -0.628 -0.630 -0.630
 0.046  0.519 -0.704 -0.703 -0.625 -0.627 -0.627
 0.048  0.526 -0.698 -0.698 -0.622 -0.625 -0.625
 0.050  0.534 -0.689 -0.694 -0.619 -0.621 -0.621
 0.052  0.541 -0.682 -0.690 -0.615 -0.618 -0.618
 0.054  0.549 -0.674 -0.685 -0.612 -0.615 -0.615
 0.056  0.556 -0.666 -0.680 -0.608 -0.612 -0.612
 0.058  0.564 -0.658 -0.676 -0.604 -0.608 -0.608
 0.060  0.571 -0.649 -0.671 -0.600 -0.605 -0.605
 0.062  0.579 -0.641 -0.666 -0.597 -0.600 -0.600
 0.064  0.586 -0.632 -0.661 -0.593 -0.597 -0.597
 0.066  0.594 -0.623 -0.655 -0.589 -0.592 -0.592
 0.068  0.601 -0.616 -0.650 -0.584 -0.589 -0.589
 0.070  0.608 -0.607 -0.644 -0.581 -0.585 -0.585
 0.072  0.615 -0.598 -0.639 -0.576 -0.580 -0.580
 0.074  0.622 -0.591 -0.633 -0.572 -0.576 -0.576
 0.076  0.629 -0.582 -0.628 -0.568 -0.572 -0.572
 0.078  0.634 -0.574 -0.622 -0.563 -0.568 -0.568
 0.080  0.641 -0.567 -0.617 -0.559 -0.564 -0.564
 0.082  0.647 -0.559 -0.610 -0.555 -0.560 -0.560
 0.084  0.654 -0.551 -0.605 -0.551 -0.555 -0.555
 0.086  0.660 -0.543 -0.599 -0.546 -0.552 -0.552
 0.088  0.665 -0.537 -0.594 -0.543 -0.548 -0.548
 0.090  0.671 -0.529 -0.589 -0.539 -0.544 -0.544
 0.092  0.678 -0.522 -0.583 -0.535 -0.540 -0.540
 0.094  0.684 -0.516 -0.578 -0.531 -0.537 -0.537
 0.096  0.689 -0.508 -0.573 -0.527 -0.534 -0.534
 0.098  0.695 -0.502 -0.568 -0.524 -0.530 -0.530
 0.100  0.701 -0.495 -0.563 -0.520 -0.527 -0.527
 0.102  0.707 -0.488 -0.558 -0.517 -0.524 -0.524
 0.104  0.711 -0.482 -0.554 -0.514 -0.520 -0.520
 0.106  0.717 -0.476 -0.549 -0.510 -0.518 -0.518
 0.108  0.723 -0.470 -0.543 -0.507 -0.515 -0.515
 0.110  0.727 -0.463 -0.539 -0.504 -0.512 -0.512
 0.112  0.732 -0.458 -0.535 -0.500 -0.509 -0.509
 0.114  0.738 -0.452 -0.530 -0.497 -0.506 -0.506
 0.116  0.742 -0.446 -0.526 -0.494 -0.503 -0.503
 0.118  0.747 -0.441 -0.521 -0.492 -0.500 -0.500
 0.120  0.752 -0.435 -0.517 -0.489 -0.498 -0.498
 0.122  0.756 -0.430 -0.513 -0.485 -0.495 -0.495
 0.124  0.761 -0.425 -0.509 -0.483 -0.493 -0.493
 0.126  0.765 -0.420 -0.505 -0.480 -0.490 -0.490
 0.128  0.770 -0.415 -0.501 -0.478 -0.488 -0.488
 0.130  0.775 -0.410 -0.497 -0.476 -0.486 -0.486
 0.132  0.779 -0.405 -0.493 -0.473 -0.484 -0.484
 0.134  0.784 -0.400 -0.490 -0.471 -0.482 -0.482
 0.136  0.790 -0.395 -0.486 -0.469 -0.480 -0.480
 0.138  0.794 -0.390 -0.482 -0.466 -0.478 -0.478
 0.140  0.799 -0.385 -0.479 -0.464 -0.477 -0.477
 0.142  0.803 -0.380 -0.475 -0.462 -0.475 -0.475
 0.144  0.808 -0.376 -0.472 -0.460 -0.473 -0.473
 0.146  0.813 -0.371 -0.468 -0.458 -0.471 -0.471
 0.148  0.817 -0.366 -0.466 -0.456 -0.470 -0.470
 0.150  0.822 -0.361 -0.462 -0.454 -0.468 -0.468
 0.152  0.826 -0.356 -0.458 -0.452 -0.466 -0.466
 0.154  0.831 -0.351 -0.455 -0.450 -0.465 -0.465
 0.156  0.836 -0.346 -0.453 -0.449 -0.463 -0.463
 0.158  0.840 -0.341 -0.449 -0.447 -0.461 -0.461
 0.160  0.845 -0.336 -0.446 -0.445 -0.459 -0.459
 0.162  0.849 -0.331 -0.442 -0.443 -0.458 -0.458
 0.164  0.854 -0.326 -0.440 -0.441 -0.456 -0.456
 0.166  0.859 -0.321 -0.437 -0.439 -0.454 -0.454
 0.168  0.864 -0.316 -0.433 -0.437 -0.453 -0.453
 0.170  0.869 -0.311 -0.430 -0.435 -0.450 -0.450
 0.172  0.874 -0.305 -0.427 -0.434 -0.449 -0.449
 0.174  0.878 -0.300 -0.424 -0.431 -0.447 -0.447
 0.176  0.883 -0.295 -0.421 -0.430 -0.445 -0.445
 0.178  0.887 -0.290 -0.417 -0.428 -0.443 -0.443
 0.180  0.892 -0.285 -0.415 -0.425 -0.442 -0.442
 0.182  0.897 -0.280 -0.412 -0.424 -0.440 -0.440
 0.184  0.901 -0.275 -0.408 -0.421 -0.438 -0.438
 0.186  0.906 -0.270 -0.405 -0.419 -0.436 -0.436
 0.188  0.912 -0.265 -0.403 -0.418 -0.434 -0.434
 0.190  0.916 -0.260 -0.399 -0.415 -0.433 -0.433
 0.192  0.921 -0.253 -0.396 -0.414 -0.431 -0.431
 0.194  0.925 -0.248 -0.393 -0.412 -0.428 -0.428
 0.196  0.930 -0.243 -0.391 -0.409 -0.427 -0.427
 0.198  0.935 -0.238 -0.387 -0.407 -0.425 -0.425
 0.200  0.939 -0.233 -0.384 -0.406 -0.423 -0.423
 0.202  0.944 -0.227 -0.381 -0.403 -0.421 -0.421
 0.204  0.948 -0.222 -0.379 -0.401 -0.419 -0.419
 0.206  0.953 -0.217 -0.376 -0.399 -0.418 -0.418
 0.208  0.958 -0.212 -0.372 -0.397 -0.416 -0.416
 0.210  0.962 -0.207 -0.369 -0.395 -0.413 -0.413
 0.212  0.967 -0.202 -0.367 -0.393 -0.411 -0.411
 0.214  0.971 -0.197 -0.364 -0.390 -0.410 -0.410
 0.216  0.976 -0.192 -0.361 -0.389 -0.408 -0.408
 0.218  0.979 -0.187 -0.358 -0.386 -0.406 -0.406
 0.220  0.984 -0.182 -0.355 -0.384 -0.404 -0.404
 0.222  0.989 -0.177 -0.352 -0.382 -0.402 -0.402
 0.224  0.993 -0.172 -0.349 -0.380 -0.400 -0.400
 0.226  0.997 -0.169 -0.346 -0.378 -0.398 -0.398
 0.228  1.001 -0.164 -0.343 -0.376 -0.396 -0.396
 0.230  1.006 -0.159 -0.341 -0.374 -0.394 -0.394
 0.232  1.009 -0.155 -0.338 -0.371 -0.392 -0.392
 0.234  1.014 -0.150 -0.335 -0.369 -0.391 -0.391
 0.236  1.019 -0.146 -0.332 -0.367 -0.388 -0.388
 0.238  1.022 -0.141 -0.329 -0.365 -0.386 -0.386
 0.240  1.027 -0.137 -0.327 -0.363 -0.385 -0.385
 0.242  1.030 -0.132 -0.324 -0.361 -0.383 -0.383
 0.244  1.035 -0.129 -0.321 -0.359 -0.381 -0.381
 0.246  1.038 -0.124 -0.318 -0.357 -0.379 -0.379
 0.248  1.043 -0.120 -0.316 -0.355 -0.377 -0.377
 0.250  1.046 -0.116 -0.313 -0.353 -0.376 -0.376
 0.252  1.050 -0.112 -0.310 -0.351 -0.373 -0.373
 0.254  1.054 -0.109 -0.308 -0.349 -0.372 -0.372
 0.256  1.058 -0.105 -0.305 -0.347 -0.370 -0.370
 0.258  1.061 -0.100 -0.303 -0.345 -0.368 -0.368
 0.260  1.066 -0.096 -0.300 -0.343 -0.366 -0.366
 0.262  1.069 -0.092 -0.297 -0.342 -0.364 -0.364
 0.264  1.073 -0.090 -0.294 -0.339 -0.363 -0.363
 0.266  1.076 -0.086 -0.292 -0.337 -0.361 -0.361
 0.268  1.081 -0.082 -0.290 -0.335 -0.359 -0.359
 0.270  1.084 -0.079 -0.287 -0.334 -0.357 -0.357
 0.272  1.088 -0.075 -0.284 -0.332 -0.356 -0.356
 0.274  1.091 -0.071 -0.281 -0.330 -0.353 -0.353
 0.276  1.096 -0.069 -0.279 -0.328 -0.352 -0.352
 0.278  1.099 -0.065 -0.277 -0.326 -0.350 -0.350
 0.280  1.103 -0.061 -0.274 -0.324 -0.348 -0.348
 0.282  1.106 -0.057 -0.272 -0.322 -0.346 -0.346
 0.284  1.109 -0.055 -0.269 -0.320 -0.345 -0.345
 0.286  1.114 -0.051 -0.267 -0.319 -0.343 -0.343
 0.288  1.117 -0.047 -0.264 -0.317 -0.341 -0.341
 0.290  1.121 -0.044 -0.262 -0.315 -0.340 -0.340
 0.292  1.124 -0.041 -0.259 -0.313 -0.338 -0.338
 0.294  1.128 -0.037 -0.256 -0.312 -0.336 -0.336
 0.296  1.132 -0.034 -0.254 -0.310 -0.334 -0.334
 0.298  1.136 -0.030 -0.252 -0.308 -0.333 -0.333
 0.300  1.139 -0.026 -0.250 -0.306 -0.331 -0.331
 0.302  1.143 -0.022 -0.247 -0.304 -0.329 -0.329
 0.304  1.146 -0.019 -0.244 -0.303 -0.328 -0.328
 0.306  1.151 -0.016 -0.242 -0.300 -0.326 -0.326
 0.308  1.154 -0.012 -0.240 -0.299 -0.324 -0.324
 0.310  1.158 -0.009 -0.237 -0.297 -0.323 -0.323
 0.312  1.161 -0.005 -0.235 -0.295 -0.321 -0.321
 0.314  1.165 -0.001 -0.232 -0.294 -0.319 -0.319
 0.316  1.168  0.003 -0.230 -0.291 -0.318 -0.318
 0.318  1.173  0.006 -0.228 -0.290 -0.316 -0.316
 0.320  1.176  0.010 -0.225 -0.287 -0.314 -0.314
 0.322  1.180  0.014 -0.223 -0.286 -0.313 -0.313
 0.324  1.183  0.018 -0.220 -0.284 -0.311 -0.311
 0.326  1.187  0.021 -0.218 -0.282 -0.309 -0.309
 0.328  1.190  0.025 -0.216 -0.280 -0.308 -0.308
 0.330  1.195  0.029 -0.213 -0.278 -0.306 -0.306
 0.332  1.198  0.033 -0.211 -0.276 -0.304 -0.304
 0.334  1.201  0.036 -0.208 -0.275 -0.303 -0.303
 0.336  1.205  0.040 -0.206 -0.272 -0.301 -0.301
 0.338  1.208  0.044 -0.204 -0.271 -0.299 -0.299
 0.340  1.212  0.048 -0.202 -0.268 -0.298 -0.298
 0.342  1.215  0.053 -0.199 -0.267 -0.296 -0.296
 0.344  1.219  0.056 -0.196 -0.265 -0.294 -0.294
 0.346  1.222  0.060 -0.194 -0.262 -0.293 -0.293
 0.348  1.227  0.064 -0.192 -0.261 -0.291 -0.291
 0.350  1.230  0.067 -0.190 -0.259 -0.290 -0.290
 0.352  1.234  0.071 -0.187 -0.257 -0.288 -0.288
 0.354  1.237  0.075 -0.185 -0.255 -0.286 -0.286
 0.356  1.239  0.079 -0.182 -0.253 -0.285 -0.285
 0.358  1.243  0.082 -0.180 -0.251 -0.284 -0.284
 0.360  1.246  0.086 -0.178 -0.249 -0.281 -0.281
 0.362  1.250  0.090 -0.176 -0.247 -0.280 -0.280
 0.364  1.253  0.094 -0.173 -0.245 -0.279 -0.279
 0.366  1.257  0.097 -0.171 -0.243 -0.277 -0.277
 0.368  1.260  0.101 -0.168 -0.241 -0.275 -0.275
 0.370  1.264  0.105 -0.166 -0.239 -0.274 -0.274
 0.372  1.266  0.109 -0.164 -0.237 -0.272 -0.272
 0.374  1.269  0.112 -0.161 -0.235 -0.270 -0.270
 0.376  1.273  0.116 -0.159 -0.233 -0.269 -0.269
 0.378  1.276  0.120 -0.156 -0.231 -0.267 -0.267
 0.380  1.279  0.122 -0.154 -0.230 -0.266 -0.266
 0.382  1.282  0.126 -0.152 -0.227 -0.264 -0.264
 0.384  1.285  0.130 -0.150 -0.226 -0.262 -0.262
 0.386  1.288  0.134 -0.147 -0.224 -0.261 -0.261
 0.388  1.291  0.137 -0.145 -0.222 -0.259 -0.259
 0.390  1.295  0.140 -0.142 -0.220 -0.257 -0.257
 0.392  1.297  0.144 -0.141 -0.218 -0.256 -0.256
 0.394  1.300  0.147 -0.138 -0.216 -0.254 -0.254
 0.396  1.303  0.151 -0.136 -0.214 -0.252 -0.252
 0.398  1.306  0.154 -0.133 -0.212 -0.251 -0.251
 0.400  1.308  0.157 -0.131 -0.211 -0.249 -0.249
 0.402  1.312  0.161 -0.129 -0.209 -0.247 -0.247
 0.404  1.314  0.164 -0.126 -0.207 -0.245 -0.245
 0.406  1.318  0.167 -0.124 -0.205 -0.244 -0.244
 0.408  1.320  0.171 -0.121 -0.204 -0.242 -0.242
 0.410  1.323  0.174 -0.119 -0.201 -0.240 -0.240
 0.412  1.326  0.177 -0.116 -0.200 -0.239 -0.239
 0.414  1.329  0.180 -0.115 -0.198 -0.237 -0.237
 0.416  1.331  0.184 -0.112 -0.196 -0.235 -0.235
 0.418  1.334  0.186 -0.110 -0.195 -0.234 -0.234
 0.420  1.337  0.190 -0.107 -0.193 -0.232 -0.232
 0.422  1.340  0.192 -0.105 -0.191 -0.230 -0.230
 0.424  1.342  0.196 -0.103 -0.189 -0.228 -0.228
 0.426  1.345  0.199 -0.100 -0.188 -0.227 -0.227
 0.428  1.348  0.202 -0.098 -0.185 -0.224 -0.224
 0.430  1.350  0.205 -0.095 -0.184 -0.223 -0.223
 0.432  1.352  0.207 -0.093 -0.182 -0.221 -0.221
 0.434  1.354  0.211 -0.091 -0.181 -0.219 -0.219
 0.436  1.358  0.214 -0.089 -0.179 -0.218 -0.218
 0.438  1.360  0.216 -0.086 -0.177 -0.216 -0.216
 0.440  1.363  0.219 -0.084 -0.176 -0.214 -0.214
 0.442  1.365  0.221 -0.081 -0.174 -0.212 -0.212
 0.444  1.367  0.225 -0.079 -0.172 -0.211 -0.211
 0.446  1.369  0.227 -0.078 -0.170 -0.209 -0.209
 0.448  1.372  0.230 -0.075 -0.169 -0.207 -0.207
 0.450  1.374  0.232 -0.073 -0.167 -0.206 -0.206
 0.452  1.376  0.235 -0.071 -0.166 -0.204 -0.204
 0.454  1.379  0.237 -0.068 -0.164 -0.202 -0.202
 0.456  1.382  0.240 -0.066 -0.162 -0.201 -0.201
 0.458  1.383  0.242 -0.065 -0.160 -0.199 -0.199
 0.460  1.386  0.244 -0.063 -0.159 -0.197 -0.197
 0.462  1.388  0.246 -0.060 -0.157 -0.196 -0.196
 0.464  1.390  0.249 -0.058 -0.155 -0.194 -0.194
 0.466  1.392  0.251 -0.056 -0.153 -0.193 -0.193
 0.468  1.395  0.254 -0.054 -0.152 -0.191 -0.191
 0.470  1.397  0.255 -0.053 -0.150 -0.189 -0.189
 0.472  1.399  0.257 -0.051 -0.148 -0.188 -0.188
 0.474  1.402  0.260 -0.049 -0.147 -0.187 -0.187
 0.476  1.404  0.261 -0.047 -0.145 -0.184 -0.184
 0.478  1.405  0.264 -0.045 -0.144 -0.183 -0.183
 0.480  1.407  0.265 -0.043 -0.141 -0.182 -0.182
 0.482  1.410  0.267 -0.041 -0.140 -0.180 -0.180
 0.484  1.412  0.269 -0.040 -0.138 -0.179 -0.179
 0.486  1.413  0.271 -0.038 -0.137 -0.177 -0.177
 0.488  1.415  0.272 -0.036 -0.134 -0.175 -0.175
 0.490  1.418  0.275 -0.034 -0.133 -0.174 -0.174
 0.492  1.419  0.276 -0.033 -0.131 -0.172 -0.172
 0.494  1.421  0.277 -0.031 -0.130 -0.171 -0.171
 0.496  1.422  0.280 -0.029 -0.128 -0.169 -0.169
 0.498  1.425  0.281 -0.028 -0.126 -0.168 -0.168
 0.500  1.426  0.282 -0.026 -0.125 -0.167 -0.167
 0.502  1.428  0.284 -0.025 -0.122 -0.165 -0.165
 0.504  1.429  0.286 -0.023 -0.121 -0.164 -0.164
 0.506  1.432  0.287 -0.021 -0.119 -0.162 -0.162
 0.508  1.433  0.289 -0.020 -0.118 -0.161 -0.161
 0.510  1.434  0.290 -0.018 -0.116 -0.159 -0.159
 0.512  1.436  0.291 -0.017 -0.115 -0.158 -0.158
 0.514  1.437  0.292 -0.016 -0.113 -0.157 -0.157
 0.516  1.438  0.294 -0.015 -0.112 -0.155 -0.155
 0.518  1.441  0.295 -0.013 -0.110 -0.154 -0.154
 0.520  1.442  0.296 -0.012 -0.109 -0.153 -0.153
 0.522  1.443  0.297 -0.010 -0.107 -0.152 -0.152
 0.524  1.444  0.299 -0.009 -0.105 -0.150 -0.150
 0.526  1.445  0.300 -0.008 -0.104 -0.149 -0.149
 0.528  1.447  0.301 -0.006 -0.103 -0.147 -0.147
 0.530  1.448  0.302 -0.005 -0.102 -0.147 -0.147
 0.532  1.449  0.304 -0.004 -0.100 -0.145 -0.145
 0.534  1.450  0.304 -0.004 -0.099 -0.144 -0.144
 0.536  1.451  0.305 -0.002 -0.098 -0.143 -0.143
 0.538  1.452  0.306 -0.001 -0.097 -0.142 -0.142
 0.540  1.453  0.307  0.000 -0.096 -0.141 -0.141
 0.542  1.455  0.307  0.001 -0.095 -0.139 -0.139
 0.544  1.456  0.309  0.002 -0.094 -0.139 -0.139
 0.546  1.457  0.310  0.003 -0.093 -0.137 -0.137
 0.548  1.458  0.310  0.004 -0.093 -0.137 -0.137
 0.550  1.458  0.311  0.005 -0.091 -0.135 -0.135
 0.552  1.459  0.311  0.006 -0.090 -0.134 -0.134
 0.554  1.460  0.312  0.007 -0.089 -0.133 -0.133
 0.556  1.460  0.312  0.008 -0.089 -0.132 -0.132
 0.558  1.461  0.314  0.008 -0.088 -0.132 -0.132
 0.560  1.463  0.314  0.009 -0.088 -0.130 -0.130
 0.562  1.463  0.315  0.009 -0.087 -0.130 -0.130
 0.564  1.464  0.315  0.010 -0.086 -0.129 -0.129
 0.566  1.464  0.316  0.010 -0.086 -0.128 -0.128
 0.568  1.464  0.316  0.011 -0.086 -0.127 -0.127
 0.570  1.465  0.316  0.012 -0.085 -0.126 -0.126
 0.572  1.465  0.317  0.012 -0.084 -0.125 -0.125
 0.574  1.466  0.317  0.013 -0.084 -0.125 -0.125
 0.576  1.466  0.319  0.014 -0.083 -0.124 -0.124
 0.578  1.466  0.319  0.014 -0.083 -0.122 -0.122
 0.580  1.466  0.319  0.015 -0.083 -0.122 -0.122
 0.582  1.466  0.320  0.015 -0.083 -0.121 -0.121
 0.584  1.466  0.320  0.016 -0.082 -0.120 -0.120
 0.586  1.467  0.320  0.016 -0.082 -0.120 -0.120
 0.588  1.467  0.321  0.017 -0.082 -0.119 -0.119
 0.590  1.467  0.321  0.017 -0.081 -0.118 -0.118
 0.592  1.467  0.321  0.018 -0.081 -0.117 -0.117
 0.594  1.466  0.321  0.018 -0.080 -0.117 -0.117
 0.596  1.466  0.322  0.018 -0.080 -0.116 -0.116
 0.598  1.466  0.322  0.019 -0.080 -0.115 -0.115
 0.600  1.466  0.322  0.019 -0.080 -0.115 -0.115
 0.602  1.466  0.322  0.020 -0.080 -0.115 -0.115
 0.604  1.466  0.324  0.020 -0.079 -0.114 -0.114
 0.606  1.465  0.324  0.020 -0.079 -0.113 -0.113
 0.608  1.465  0.324  0.021 -0.078 -0.112 -0.112
 0.610  1.465  0.324  0.021 -0.078 -0.112 -0.112
 0.612  1.464  0.325  0.021 -0.077 -0.111 -0.111
 0.614  1.464  0.325  0.022 -0.077 -0.111 -0.111
 0.616  1.463  0.325  0.022 -0.077 -0.110 -0.110
 0.618  1.463  0.325  0.022 -0.077 -0.110 -0.110
 0.620  1.461  0.325  0.022 -0.077 -0.109 -0.109
 0.622  1.460  0.325  0.022 -0.076 -0.109 -0.109
 0.624  1.460  0.326  0.022 -0.076 -0.108 -0.108
 0.626  1.459  0.326  0.022 -0.076 -0.107 -0.107
 0.628  1.459  0.326  0.023 -0.075 -0.107 -0.107
 0.630  1.458  0.326  0.023 -0.075 -0.107 -0.107
 0.632  1.458  0.326  0.023 -0.075 -0.106 -0.106
 0.634  1.457  0.326  0.023 -0.074 -0.106 -0.106
 0.636  1.457  0.326  0.023 -0.074 -0.105 -0.105
 0.638  1.456  0.326  0.024 -0.073 -0.105 -0.105
 0.640  1.456  0.326  0.024 -0.073 -0.105 -0.105
 0.642  1.455  0.326  0.024 -0.073 -0.105 -0.105
 0.644  1.455  0.326  0.024 -0.073 -0.104 -0.104
 0.646  1.455  0.326  0.024 -0.073 -0.104 -0.104
 0.648  1.453  0.326  0.024 -0.073 -0.103 -0.103
 0.650  1.453  0.325  0.024 -0.072 -0.103 -0.103
 0.652  1.453  0.325  0.024 -0.072 -0.102 -0.102
 0.654  1.452  0.325  0.024 -0.072 -0.102 -0.102
 0.656  1.452  0.324  0.024 -0.072 -0.102 -0.102
 0.658  1.452  0.324  0.024 -0.071 -0.101 -0.101
 0.660  1.451  0.322  0.024 -0.071 -0.101 -0.101
 0.662  1.451  0.322  0.024 -0.071 -0.100 -0.100
 0.664  1.451  0.321  0.024 -0.071 -0.100 -0.100
 0.666  1.451  0.321  0.024 -0.071 -0.100 -0.100
 0.668  1.451  0.320  0.024 -0.070 -0.099 -0.099
 0.670  1.450  0.320  0.023 -0.070 -0.099 -0.099
 0.672  1.450  0.319  0.023 -0.070 -0.098 -0.098
 0.674  1.450  0.317  0.023 -0.070 -0.097 -0.097
 0.676  1.450  0.317  0.023 -0.070 -0.097 -0.097
 0.678  1.450  0.316  0.022 -0.070 -0.097 -0.097
 0.680  1.450  0.315  0.022 -0.070 -0.096 -0.096
 0.682  1.450  0.314  0.022 -0.070 -0.096 -0.096
 0.684  1.450  0.312  0.022 -0.070 -0.095 -0.095
 0.686  1.450  0.311  0.022 -0.070 -0.095 -0.095
 0.688  1.450  0.310  0.021 -0.070 -0.095 -0.095
 0.690  1.450  0.309  0.021 -0.070 -0.094 -0.094
 0.692  1.450  0.307  0.020 -0.070 -0.093 -0.093
 0.694  1.450  0.306  0.020 -0.070 -0.092 -0.092
 0.696  1.450  0.305  0.019 -0.071 -0.092 -0.092
 0.698  1.450  0.304  0.019 -0.071 -0.092 -0.092
 0.700  1.450  0.301  0.018 -0.071 -0.091 -0.091
 0.702  1.450  0.300  0.018 -0.071 -0.090 -0.090
 0.704  1.450  0.299  0.017 -0.071 -0.090 -0.090
 0.706  1.450  0.297  0.016 -0.072 -0.090 -0.090
 0.708  1.450  0.296  0.015 -0.072 -0.089 -0.089
 0.710  1.451  0.295  0.015 -0.072 -0.088 -0.088
 0.712  1.451  0.294  0.014 -0.073 -0.087 -0.087
 0.714  1.451  0.294  0.013 -0.073 -0.087 -0.087
 0.716  1.451  0.292  0.012 -0.073 -0.087 -0.087
 0.718  1.451  0.292  0.012 -0.073 -0.086 -0.086
 0.720  1.451  0.291  0.011 -0.073 -0.085 -0.085
 0.722  1.451  0.291  0.010 -0.073 -0.085 -0.085
 0.724  1.452  0.291  0.010 -0.073 -0.084 -0.084
 0.726  1.452  0.291  0.009 -0.073 -0.083 -0.083
 0.728  1.452  0.291  0.009 -0.073 -0.082 -0.082
 0.730  1.452  0.291  0.009 -0.073 -0.082 -0.082
 0.732  1.453  0.292  0.009 -0.073 -0.081 -0.081
 0.734  1.453  0.292  0.009 -0.073 -0.080 -0.080
 0.736  1.453  0.294  0.009 -0.073 -0.080 -0.080
 0.738  1.455  0.294  0.009 -0.072 -0.079 -0.079
 0.740  1.455  0.295  0.009 -0.072 -0.077 -0.077
 0.742  1.455  0.296  0.009 -0.071 -0.077 -0.077
 0.744  1.456  0.297  0.009 -0.070 -0.076 -0.076
 0.746  1.456  0.299  0.009 -0.070 -0.075 -0.075
 0.748  1.456  0.300  0.009 -0.069 -0.074 -0.074
 0.750  1.457  0.302  0.010 -0.067 -0.073 -0.073
 0.752  1.457  0.304  0.010 -0.067 -0.072 -0.072
 0.754  1.457  0.306  0.011 -0.065 -0.071 -0.071
 0.756  1.457  0.309  0.012 -0.064 -0.070 -0.070
 0.758  1.458  0.310  0.013 -0.063 -0.069 -0.069
 0.760  1.458  0.312  0.014 -0.062 -0.068 -0.068
 0.762  1.459  0.316  0.015 -0.061 -0.067 -0.067
 0.764  1.459  0.319  0.016 -0.059 -0.066 -0.066
 0.766  1.460  0.321  0.017 -0.057 -0.065 -0.065
 0.768  1.460  0.324  0.019 -0.055 -0.063 -0.063
 0.770  1.461  0.327  0.020 -0.054 -0.062 -0.062
 0.772  1.463  0.330  0.022 -0.052 -0.061 -0.061
 0.774  1.464  0.334  0.023 -0.050 -0.060 -0.060
 0.776  1.465  0.336  0.024 -0.048 -0.059 -0.059
 0.778  1.467  0.340  0.026 -0.045 -0.057 -0.057
 0.780  1.468  0.344  0.028 -0.043 -0.056 -0.056
 0.782  1.471  0.346  0.030 -0.041 -0.055 -0.055
 0.784  1.472  0.350  0.033 -0.038 -0.054 -0.054
 0.786  1.474  0.354  0.034 -0.036 -0.052 -0.052
 0.788  1.476  0.357  0.036 -0.034 -0.051 -0.051
 0.790  1.479  0.361  0.038 -0.031 -0.050 -0.050
 0.792  1.481  0.363  0.041 -0.029 -0.048 -0.048
 0.794  1.483  0.367  0.043 -0.026 -0.046 -0.046
 0.796  1.487  0.371  0.046 -0.023 -0.045 -0.045
 0.798  1.489  0.375  0.047 -0.021 -0.043 -0.043
 0.800  1.493  0.378  0.050 -0.018 -0.041 -0.041
 0.802  1.496  0.382  0.053 -0.015 -0.039 -0.039
 0.804  1.498  0.386  0.056 -0.013 -0.037 -0.037
 0.806  1.502  0.390  0.059 -0.010 -0.035 -0.035
 0.808  1.506  0.393  0.061 -0.006 -0.033 -0.033
