# IsPeriodic    : True
# Period        : 0.495829 days
# Normalization : <g_mag>=0
# 
# Phase u_mag  g_mag  r_mag  i_mag  z_mag  y_mag
 0.000  0.294 -0.943 -0.746 -0.606 -0.496 -0.496
 0.002  0.294 -0.943 -0.746 -0.606 -0.496 -0.496
 0.004  0.296 -0.943 -0.746 -0.606 -0.496 -0.496
 0.006  0.297 -0.941 -0.745 -0.605 -0.495 -0.495
 0.008  0.298 -0.940 -0.744 -0.604 -0.494 -0.494
 0.010  0.301 -0.937 -0.742 -0.603 -0.493 -0.493
 0.012  0.304 -0.934 -0.740 -0.602 -0.493 -0.493
 0.014  0.306 -0.931 -0.738 -0.600 -0.492 -0.492
 0.016  0.310 -0.928 -0.736 -0.599 -0.491 -0.491
 0.018  0.313 -0.926 -0.733 -0.597 -0.491 -0.491
 0.020  0.317 -0.921 -0.730 -0.595 -0.489 -0.489
 0.022  0.321 -0.917 -0.728 -0.594 -0.488 -0.488
 0.024  0.326 -0.913 -0.725 -0.591 -0.486 -0.486
 0.026  0.330 -0.908 -0.722 -0.589 -0.485 -0.485
 0.028  0.334 -0.904 -0.718 -0.587 -0.483 -0.483
 0.030  0.339 -0.900 -0.715 -0.584 -0.481 -0.481
 0.032  0.345 -0.894 -0.711 -0.581 -0.480 -0.480
 0.034  0.350 -0.888 -0.708 -0.579 -0.478 -0.478
 0.036  0.355 -0.883 -0.703 -0.576 -0.475 -0.475
 0.038  0.362 -0.877 -0.699 -0.573 -0.473 -0.473
 0.040  0.367 -0.871 -0.696 -0.570 -0.470 -0.470
 0.042  0.374 -0.864 -0.690 -0.567 -0.467 -0.467
 0.044  0.380 -0.858 -0.686 -0.563 -0.464 -0.464
 0.046  0.387 -0.851 -0.682 -0.560 -0.461 -0.461
 0.048  0.393 -0.844 -0.676 -0.556 -0.458 -0.458
 0.050  0.401 -0.837 -0.671 -0.553 -0.455 -0.455
 0.052  0.409 -0.828 -0.666 -0.549 -0.451 -0.451
 0.054  0.417 -0.819 -0.660 -0.544 -0.448 -0.448
 0.056  0.425 -0.811 -0.654 -0.540 -0.444 -0.444
 0.058  0.433 -0.802 -0.648 -0.536 -0.440 -0.440
 0.060  0.442 -0.794 -0.642 -0.531 -0.436 -0.436
 0.062  0.450 -0.785 -0.635 -0.526 -0.432 -0.432
 0.064  0.459 -0.775 -0.629 -0.522 -0.428 -0.428
 0.066  0.469 -0.765 -0.622 -0.517 -0.424 -0.424
 0.068  0.479 -0.755 -0.616 -0.511 -0.420 -0.420
 0.070  0.488 -0.745 -0.608 -0.506 -0.416 -0.416
 0.072  0.499 -0.735 -0.602 -0.501 -0.413 -0.413
 0.074  0.508 -0.725 -0.594 -0.496 -0.408 -0.408
 0.076  0.519 -0.715 -0.588 -0.491 -0.405 -0.405
 0.078  0.528 -0.703 -0.580 -0.485 -0.400 -0.400
 0.080  0.539 -0.693 -0.574 -0.480 -0.397 -0.397
 0.082  0.549 -0.683 -0.566 -0.475 -0.393 -0.393
 0.084  0.558 -0.673 -0.559 -0.470 -0.390 -0.390
 0.086  0.568 -0.663 -0.552 -0.465 -0.386 -0.386
 0.088  0.577 -0.653 -0.546 -0.459 -0.383 -0.383
 0.090  0.586 -0.643 -0.540 -0.454 -0.379 -0.379
 0.092  0.595 -0.633 -0.533 -0.450 -0.376 -0.376
 0.094  0.605 -0.625 -0.527 -0.445 -0.372 -0.372
 0.096  0.613 -0.614 -0.520 -0.440 -0.370 -0.370
 0.098  0.622 -0.606 -0.514 -0.436 -0.366 -0.366
 0.100  0.630 -0.597 -0.507 -0.431 -0.363 -0.363
 0.102  0.638 -0.589 -0.502 -0.427 -0.360 -0.360
 0.104  0.646 -0.580 -0.495 -0.422 -0.357 -0.357
 0.106  0.654 -0.571 -0.490 -0.419 -0.355 -0.355
 0.108  0.661 -0.563 -0.485 -0.414 -0.352 -0.352
 0.110  0.668 -0.556 -0.478 -0.410 -0.350 -0.350
 0.112  0.676 -0.547 -0.473 -0.406 -0.347 -0.347
 0.114  0.683 -0.538 -0.467 -0.402 -0.344 -0.344
 0.116  0.691 -0.531 -0.462 -0.398 -0.342 -0.342
 0.118  0.697 -0.524 -0.457 -0.395 -0.339 -0.339
 0.120  0.704 -0.516 -0.451 -0.390 -0.337 -0.337
 0.122  0.710 -0.508 -0.446 -0.387 -0.335 -0.335
 0.124  0.717 -0.501 -0.441 -0.383 -0.332 -0.332
 0.126  0.724 -0.494 -0.436 -0.380 -0.330 -0.330
 0.128  0.729 -0.487 -0.431 -0.376 -0.328 -0.328
 0.130  0.735 -0.481 -0.427 -0.373 -0.326 -0.326
 0.132  0.741 -0.474 -0.422 -0.370 -0.324 -0.324
 0.134  0.746 -0.468 -0.418 -0.367 -0.322 -0.322
 0.136  0.751 -0.462 -0.413 -0.363 -0.320 -0.320
 0.138  0.757 -0.455 -0.408 -0.361 -0.318 -0.318
 0.140  0.762 -0.450 -0.404 -0.358 -0.316 -0.316
 0.142  0.767 -0.444 -0.401 -0.355 -0.315 -0.315
 0.144  0.771 -0.438 -0.396 -0.352 -0.312 -0.312
 0.146  0.776 -0.432 -0.392 -0.350 -0.311 -0.311
 0.148  0.782 -0.427 -0.388 -0.347 -0.309 -0.309
 0.150  0.786 -0.421 -0.383 -0.344 -0.307 -0.307
 0.152  0.791 -0.415 -0.380 -0.341 -0.305 -0.305
 0.154  0.795 -0.409 -0.376 -0.338 -0.303 -0.303
 0.156  0.800 -0.404 -0.372 -0.336 -0.302 -0.302
 0.158  0.804 -0.398 -0.368 -0.333 -0.299 -0.299
 0.160  0.809 -0.392 -0.364 -0.331 -0.297 -0.297
 0.162  0.813 -0.387 -0.360 -0.328 -0.296 -0.296
 0.164  0.819 -0.381 -0.357 -0.325 -0.294 -0.294
 0.166  0.823 -0.375 -0.352 -0.323 -0.292 -0.292
 0.168  0.828 -0.369 -0.349 -0.320 -0.289 -0.289
 0.170  0.833 -0.364 -0.345 -0.318 -0.288 -0.288
 0.172  0.837 -0.358 -0.340 -0.315 -0.286 -0.286
 0.174  0.842 -0.352 -0.337 -0.312 -0.284 -0.284
 0.176  0.848 -0.346 -0.333 -0.310 -0.282 -0.282
 0.178  0.852 -0.341 -0.330 -0.307 -0.280 -0.280
 0.180  0.857 -0.335 -0.325 -0.305 -0.278 -0.278
 0.182  0.862 -0.329 -0.321 -0.302 -0.276 -0.276
 0.184  0.866 -0.323 -0.318 -0.299 -0.274 -0.274
 0.186  0.871 -0.318 -0.313 -0.297 -0.272 -0.272
 0.188  0.877 -0.312 -0.310 -0.295 -0.270 -0.270
 0.190  0.882 -0.306 -0.306 -0.293 -0.268 -0.268
 0.192  0.886 -0.300 -0.303 -0.290 -0.267 -0.267
 0.194  0.891 -0.295 -0.298 -0.287 -0.264 -0.264
 0.196  0.897 -0.289 -0.295 -0.285 -0.262 -0.262
 0.198  0.902 -0.283 -0.292 -0.282 -0.260 -0.260
 0.200  0.906 -0.278 -0.288 -0.280 -0.258 -0.258
 0.202  0.911 -0.272 -0.284 -0.278 -0.256 -0.256
 0.204  0.916 -0.266 -0.280 -0.275 -0.254 -0.254
 0.206  0.922 -0.260 -0.277 -0.273 -0.252 -0.252
 0.208  0.927 -0.253 -0.274 -0.270 -0.250 -0.250
 0.210  0.931 -0.247 -0.269 -0.267 -0.248 -0.248
 0.212  0.936 -0.242 -0.266 -0.266 -0.246 -0.246
 0.214  0.941 -0.236 -0.262 -0.263 -0.244 -0.244
 0.216  0.947 -0.230 -0.259 -0.261 -0.242 -0.242
 0.218  0.952 -0.225 -0.255 -0.258 -0.240 -0.240
 0.220  0.957 -0.219 -0.251 -0.255 -0.238 -0.238
 0.222  0.963 -0.213 -0.248 -0.254 -0.236 -0.236
 0.224  0.967 -0.207 -0.245 -0.251 -0.234 -0.234
 0.226  0.972 -0.202 -0.241 -0.248 -0.231 -0.231
 0.228  0.977 -0.196 -0.237 -0.247 -0.229 -0.229
 0.230  0.982 -0.190 -0.234 -0.244 -0.228 -0.228
 0.232  0.986 -0.184 -0.231 -0.242 -0.226 -0.226
 0.234  0.992 -0.179 -0.227 -0.240 -0.224 -0.224
 0.236  0.996 -0.174 -0.224 -0.237 -0.221 -0.221
 0.238  1.001 -0.169 -0.221 -0.235 -0.219 -0.219
 0.240  1.006 -0.163 -0.218 -0.233 -0.217 -0.217
 0.242  1.010 -0.159 -0.213 -0.230 -0.216 -0.216
 0.244  1.015 -0.153 -0.210 -0.228 -0.214 -0.214
 0.246  1.019 -0.149 -0.207 -0.226 -0.211 -0.211
 0.248  1.023 -0.143 -0.204 -0.223 -0.209 -0.209
 0.250  1.029 -0.138 -0.200 -0.222 -0.207 -0.207
 0.252  1.033 -0.133 -0.197 -0.219 -0.205 -0.205
 0.254  1.038 -0.128 -0.194 -0.217 -0.204 -0.204
 0.256  1.042 -0.124 -0.192 -0.215 -0.201 -0.201
 0.258  1.046 -0.118 -0.189 -0.212 -0.199 -0.199
 0.260  1.050 -0.114 -0.185 -0.210 -0.197 -0.197
 0.262  1.055 -0.110 -0.182 -0.208 -0.195 -0.195
 0.264  1.059 -0.106 -0.179 -0.206 -0.193 -0.193
 0.266  1.063 -0.101 -0.176 -0.203 -0.191 -0.191
 0.268  1.067 -0.097 -0.172 -0.202 -0.189 -0.189
 0.270  1.071 -0.093 -0.170 -0.199 -0.187 -0.187
 0.272  1.075 -0.088 -0.167 -0.197 -0.185 -0.185
 0.274  1.079 -0.084 -0.164 -0.196 -0.183 -0.183
 0.276  1.083 -0.080 -0.161 -0.193 -0.181 -0.181
 0.278  1.087 -0.075 -0.158 -0.191 -0.179 -0.179
 0.280  1.091 -0.073 -0.155 -0.189 -0.177 -0.177
 0.282  1.095 -0.068 -0.152 -0.187 -0.175 -0.175
 0.284  1.099 -0.064 -0.150 -0.184 -0.173 -0.173
 0.286  1.103 -0.061 -0.147 -0.183 -0.171 -0.171
 0.288  1.107 -0.057 -0.143 -0.181 -0.169 -0.169
 0.290  1.110 -0.052 -0.141 -0.178 -0.167 -0.167
 0.292  1.113 -0.050 -0.138 -0.177 -0.166 -0.166
 0.294  1.117 -0.045 -0.136 -0.174 -0.163 -0.163
 0.296  1.121 -0.041 -0.133 -0.172 -0.161 -0.161
 0.298  1.125 -0.038 -0.130 -0.171 -0.160 -0.160
 0.300  1.129 -0.034 -0.127 -0.168 -0.158 -0.158
 0.302  1.132 -0.031 -0.124 -0.166 -0.156 -0.156
 0.304  1.136 -0.027 -0.122 -0.164 -0.154 -0.154
 0.306  1.140 -0.022 -0.119 -0.162 -0.152 -0.152
 0.308  1.143 -0.019 -0.116 -0.160 -0.151 -0.151
 0.310  1.147 -0.015 -0.113 -0.158 -0.148 -0.148
 0.312  1.150 -0.011 -0.111 -0.156 -0.147 -0.147
 0.314  1.154 -0.008 -0.108 -0.153 -0.145 -0.145
 0.316  1.158 -0.004 -0.105 -0.152 -0.143 -0.143
 0.318  1.162  0.001 -0.102 -0.149 -0.141 -0.141
 0.320  1.166  0.005 -0.099 -0.147 -0.140 -0.140
 0.322  1.169  0.009 -0.097 -0.145 -0.138 -0.138
 0.324  1.173  0.012 -0.094 -0.143 -0.136 -0.136
 0.326  1.177  0.016 -0.091 -0.140 -0.135 -0.135
 0.328  1.180  0.021 -0.088 -0.139 -0.133 -0.133
 0.330  1.183  0.025 -0.085 -0.136 -0.131 -0.131
 0.332  1.187  0.029 -0.083 -0.134 -0.130 -0.130
 0.334  1.191  0.032 -0.080 -0.132 -0.128 -0.128
 0.336  1.195  0.036 -0.078 -0.130 -0.126 -0.126
 0.338  1.198  0.041 -0.074 -0.127 -0.125 -0.125
 0.340  1.202  0.045 -0.072 -0.126 -0.123 -0.123
 0.342  1.206  0.049 -0.069 -0.123 -0.122 -0.122
 0.344  1.210  0.054 -0.066 -0.120 -0.121 -0.121
 0.346  1.213  0.056 -0.064 -0.119 -0.119 -0.119
 0.348  1.216  0.061 -0.060 -0.116 -0.117 -0.117
 0.350  1.220  0.065 -0.058 -0.114 -0.116 -0.116
 0.352  1.224  0.069 -0.055 -0.112 -0.114 -0.114
 0.354  1.228  0.074 -0.053 -0.110 -0.113 -0.113
 0.356  1.231  0.078 -0.050 -0.107 -0.111 -0.111
 0.358  1.235  0.082 -0.046 -0.105 -0.110 -0.110
 0.360  1.239  0.087 -0.044 -0.103 -0.108 -0.108
 0.362  1.241  0.091 -0.041 -0.101 -0.106 -0.106
 0.364  1.245  0.095 -0.039 -0.099 -0.105 -0.105
 0.366  1.249  0.100 -0.036 -0.096 -0.103 -0.103
 0.368  1.253  0.104 -0.033 -0.094 -0.101 -0.101
 0.370  1.256  0.108 -0.030 -0.092 -0.100 -0.100
 0.372  1.260  0.111 -0.028 -0.089 -0.098 -0.098
 0.374  1.264  0.115 -0.025 -0.088 -0.096 -0.096
 0.376  1.266  0.120 -0.023 -0.085 -0.095 -0.095
 0.378  1.270  0.124 -0.019 -0.083 -0.093 -0.093
 0.380  1.274  0.128 -0.017 -0.081 -0.091 -0.091
 0.382  1.277  0.132 -0.014 -0.079 -0.089 -0.089
 0.384  1.281  0.137 -0.012 -0.076 -0.088 -0.088
 0.386  1.283  0.140 -0.009 -0.075 -0.085 -0.085
 0.388  1.287  0.144 -0.007 -0.072 -0.084 -0.084
 0.390  1.291  0.148 -0.003 -0.070 -0.082 -0.082
 0.392  1.294  0.153 -0.001 -0.068 -0.080 -0.080
 0.394  1.298  0.157  0.002 -0.066 -0.078 -0.078
 0.396  1.301  0.160  0.004 -0.064 -0.076 -0.076
 0.398  1.305  0.164  0.007 -0.062 -0.075 -0.075
 0.400  1.307  0.168  0.010 -0.060 -0.073 -0.073
 0.402  1.311  0.173  0.013 -0.057 -0.070 -0.070
 0.404  1.314  0.177  0.015 -0.056 -0.068 -0.068
 0.406  1.318  0.180  0.018 -0.054 -0.067 -0.067
 0.408  1.320  0.184  0.020 -0.051 -0.065 -0.065
 0.410  1.324  0.188  0.024 -0.050 -0.063 -0.063
 0.412  1.327  0.191  0.026 -0.048 -0.060 -0.060
 0.414  1.331  0.196  0.029 -0.045 -0.058 -0.058
 0.416  1.334  0.200  0.031 -0.043 -0.056 -0.056
 0.418  1.338  0.204  0.033 -0.042 -0.054 -0.054
 0.420  1.340  0.207  0.037 -0.039 -0.053 -0.053
 0.422  1.344  0.211  0.039 -0.037 -0.050 -0.050
 0.424  1.347  0.216  0.042 -0.036 -0.048 -0.048
 0.426  1.350  0.219  0.044 -0.034 -0.046 -0.046
 0.428  1.353  0.223  0.047 -0.031 -0.044 -0.044
 0.430  1.356  0.226  0.049 -0.030 -0.042 -0.042
 0.432  1.359  0.230  0.052 -0.028 -0.040 -0.040
 0.434  1.363  0.234  0.055 -0.026 -0.038 -0.038
 0.436  1.365  0.237  0.057 -0.024 -0.036 -0.036
 0.438  1.368  0.241  0.060 -0.022 -0.034 -0.034
 0.440  1.372  0.244  0.062 -0.020 -0.032 -0.032
 0.442  1.375  0.249  0.064 -0.018 -0.030 -0.030
 0.444  1.377  0.251  0.068 -0.017 -0.029 -0.029
 0.446  1.380  0.254  0.070 -0.014 -0.027 -0.027
 0.448  1.383  0.259  0.072 -0.012 -0.025 -0.025
 0.450  1.386  0.262  0.074 -0.011 -0.023 -0.023
 0.452  1.389  0.264  0.077 -0.009 -0.022 -0.022
 0.454  1.392  0.269  0.080 -0.007 -0.020 -0.020
 0.456  1.394  0.272  0.082 -0.005 -0.018 -0.018
 0.458  1.397  0.274  0.084 -0.003 -0.017 -0.017
 0.460  1.400  0.277  0.087 -0.001 -0.015 -0.015
 0.462  1.402  0.280  0.089  0.001 -0.013 -0.013
 0.464  1.405  0.284  0.091  0.003 -0.012 -0.012
 0.466  1.408  0.287  0.094  0.005 -0.010 -0.010
 0.468  1.410  0.290  0.096  0.007 -0.009 -0.009
 0.470  1.413  0.293  0.098  0.008 -0.007 -0.007
 0.472  1.416  0.296  0.101  0.010 -0.006 -0.006
 0.474  1.418  0.299  0.103  0.013 -0.005 -0.005
 0.476  1.420  0.302  0.105  0.014 -0.003 -0.003
 0.478  1.422  0.303  0.108  0.016 -0.002 -0.002
 0.480  1.425  0.306  0.110  0.018 -0.000 -0.000
 0.482  1.427  0.309  0.112  0.020  0.001  0.001
 0.484  1.429  0.312  0.114  0.022  0.003  0.003
 0.486  1.431  0.315  0.116  0.024  0.003  0.003
 0.488  1.434  0.316  0.118  0.026  0.005  0.005
 0.490  1.437  0.319  0.120  0.027  0.006  0.006
 0.492  1.438  0.322  0.123  0.030  0.008  0.008
 0.494  1.441  0.323  0.125  0.032  0.008  0.008
 0.496  1.443  0.326  0.127  0.033  0.010  0.010
 0.498  1.445  0.329  0.129  0.035  0.010  0.010
 0.500  1.447  0.330  0.131  0.037  0.012  0.012
 0.502  1.449  0.333  0.133  0.040  0.013  0.013
 0.504  1.451  0.335  0.136  0.041  0.014  0.014
 0.506  1.453  0.336  0.138  0.043  0.015  0.015
 0.508  1.455  0.339  0.139  0.045  0.016  0.016
 0.510  1.456  0.340  0.141  0.046  0.018  0.018
 0.512  1.458  0.343  0.143  0.048  0.018  0.018
 0.514  1.460  0.345  0.145  0.050  0.020  0.020
 0.516  1.462  0.346  0.146  0.052  0.021  0.021
 0.518  1.463  0.348  0.148  0.053  0.022  0.022
 0.520  1.464  0.350  0.151  0.055  0.023  0.023
 0.522  1.466  0.352  0.152  0.057  0.024  0.024
 0.524  1.467  0.353  0.154  0.058  0.025  0.025
 0.526  1.468  0.355  0.155  0.059  0.026  0.026
 0.528  1.470  0.356  0.157  0.061  0.027  0.027
 0.530  1.471  0.358  0.158  0.062  0.028  0.028
 0.532  1.472  0.359  0.160  0.064  0.029  0.029
 0.534  1.474  0.360  0.161  0.065  0.030  0.030
 0.536  1.475  0.362  0.164  0.066  0.031  0.031
 0.538  1.476  0.363  0.165  0.067  0.032  0.032
 0.540  1.476  0.365  0.166  0.069  0.033  0.033
 0.542  1.478  0.366  0.168  0.070  0.034  0.034
 0.544  1.479  0.368  0.169  0.071  0.035  0.035
 0.546  1.479  0.368  0.170  0.072  0.036  0.036
 0.548  1.480  0.369  0.171  0.073  0.037  0.037
 0.550  1.480  0.370  0.172  0.074  0.038  0.038
 0.552  1.482  0.372  0.174  0.075  0.038  0.038
 0.554  1.482  0.372  0.175  0.076  0.039  0.039
 0.556  1.483  0.373  0.176  0.077  0.041  0.041
 0.558  1.483  0.373  0.178  0.078  0.041  0.041
 0.560  1.483  0.375  0.179  0.078  0.042  0.042
 0.562  1.484  0.376  0.180  0.079  0.043  0.043
 0.564  1.484  0.376  0.181  0.080  0.044  0.044
 0.566  1.484  0.378  0.182  0.081  0.045  0.045
 0.568  1.484  0.378  0.183  0.082  0.046  0.046
 0.570  1.484  0.378  0.183  0.082  0.046  0.046
 0.572  1.484  0.379  0.184  0.083  0.047  0.047
 0.574  1.484  0.379  0.185  0.084  0.048  0.048
 0.576  1.484  0.379  0.186  0.084  0.049  0.049
 0.578  1.484  0.381  0.186  0.085  0.050  0.050
 0.580  1.484  0.381  0.187  0.085  0.051  0.051
 0.582  1.484  0.381  0.188  0.085  0.051  0.051
 0.584  1.484  0.381  0.188  0.086  0.052  0.052
 0.586  1.484  0.382  0.189  0.086  0.053  0.053
 0.588  1.484  0.382  0.189  0.087  0.053  0.053
 0.590  1.484  0.382  0.190  0.087  0.054  0.054
 0.592  1.484  0.382  0.190  0.088  0.055  0.055
 0.594  1.484  0.382  0.192  0.088  0.056  0.056
 0.596  1.484  0.382  0.192  0.089  0.056  0.056
 0.598  1.484  0.382  0.193  0.089  0.057  0.057
 0.600  1.484  0.382  0.193  0.090  0.058  0.058
 0.602  1.484  0.382  0.193  0.090  0.058  0.058
 0.604  1.484  0.382  0.193  0.091  0.059  0.059
 0.606  1.484  0.382  0.194  0.091  0.060  0.060
 0.608  1.484  0.382  0.194  0.091  0.061  0.061
 0.610  1.484  0.382  0.194  0.091  0.061  0.061
 0.612  1.484  0.382  0.194  0.091  0.062  0.062
 0.614  1.483  0.382  0.194  0.092  0.063  0.063
 0.616  1.483  0.382  0.194  0.092  0.063  0.063
 0.618  1.483  0.382  0.194  0.092  0.064  0.064
 0.620  1.483  0.382  0.194  0.093  0.065  0.065
 0.622  1.483  0.381  0.194  0.093  0.066  0.066
 0.624  1.483  0.381  0.194  0.093  0.066  0.066
 0.626  1.483  0.381  0.194  0.094  0.067  0.067
 0.628  1.483  0.381  0.193  0.094  0.068  0.068
 0.630  1.483  0.379  0.193  0.094  0.068  0.068
 0.632  1.483  0.379  0.193  0.094  0.069  0.069
 0.634  1.483  0.379  0.192  0.095  0.069  0.069
 0.636  1.483  0.378  0.192  0.095  0.070  0.070
 0.638  1.483  0.378  0.192  0.095  0.071  0.071
 0.640  1.483  0.376  0.190  0.095  0.071  0.071
 0.642  1.483  0.376  0.190  0.095  0.072  0.072
 0.644  1.483  0.375  0.189  0.096  0.073  0.073
 0.646  1.483  0.375  0.189  0.096  0.073  0.073
 0.648  1.482  0.375  0.188  0.096  0.073  0.073
 0.650  1.482  0.373  0.188  0.096  0.074  0.074
 0.652  1.482  0.373  0.187  0.096  0.075  0.075
 0.654  1.482  0.372  0.187  0.096  0.075  0.075
 0.656  1.482  0.372  0.186  0.097  0.076  0.076
 0.658  1.482  0.370  0.186  0.097  0.076  0.076
 0.660  1.482  0.370  0.186  0.097  0.076  0.076
 0.662  1.482  0.369  0.185  0.097  0.077  0.077
 0.664  1.480  0.369  0.185  0.097  0.078  0.078
 0.666  1.480  0.368  0.184  0.097  0.078  0.078
 0.668  1.480  0.368  0.184  0.097  0.078  0.078
 0.670  1.480  0.366  0.183  0.097  0.078  0.078
 0.672  1.480  0.366  0.183  0.097  0.079  0.079
 0.674  1.479  0.365  0.183  0.097  0.080  0.080
 0.676  1.479  0.365  0.182  0.098  0.080  0.080
 0.678  1.479  0.363  0.182  0.098  0.081  0.081
 0.680  1.479  0.363  0.182  0.098  0.081  0.081
 0.682  1.478  0.362  0.181  0.098  0.081  0.081
 0.684  1.478  0.362  0.181  0.099  0.081  0.081
 0.686  1.478  0.360  0.181  0.099  0.082  0.082
 0.688  1.478  0.360  0.181  0.099  0.082  0.082
 0.690  1.476  0.359  0.180  0.099  0.083  0.083
 0.692  1.476  0.359  0.180  0.100  0.083  0.083
 0.694  1.476  0.358  0.180  0.100  0.083  0.083
 0.696  1.475  0.358  0.180  0.100  0.083  0.083
 0.698  1.475  0.356  0.180  0.101  0.083  0.083
 0.700  1.474  0.356  0.179  0.101  0.084  0.084
 0.702  1.474  0.355  0.179  0.101  0.084  0.084
 0.704  1.474  0.355  0.179  0.101  0.084  0.084
 0.706  1.472  0.353  0.179  0.102  0.085  0.085
 0.708  1.472  0.353  0.179  0.102  0.085  0.085
 0.710  1.471  0.352  0.179  0.102  0.086  0.086
 0.712  1.471  0.352  0.179  0.103  0.086  0.086
 0.714  1.470  0.350  0.178  0.103  0.086  0.086
 0.716  1.470  0.350  0.178  0.103  0.087  0.087
 0.718  1.470  0.349  0.178  0.104  0.088  0.088
 0.720  1.468  0.349  0.178  0.104  0.089  0.089
 0.722  1.468  0.348  0.178  0.104  0.089  0.089
 0.724  1.467  0.348  0.178  0.104  0.090  0.090
 0.726  1.467  0.348  0.178  0.104  0.091  0.091
 0.728  1.467  0.346  0.178  0.104  0.091  0.091
 0.730  1.467  0.346  0.178  0.105  0.093  0.093
 0.732  1.467  0.346  0.178  0.105  0.094  0.094
 0.734  1.467  0.346  0.178  0.105  0.095  0.095
 0.736  1.467  0.346  0.178  0.106  0.096  0.096
 0.738  1.467  0.346  0.178  0.106  0.097  0.097
 0.740  1.467  0.346  0.178  0.106  0.099  0.099
 0.742  1.467  0.346  0.176  0.106  0.100  0.100
 0.744  1.467  0.346  0.176  0.107  0.101  0.101
 0.746  1.467  0.348  0.176  0.107  0.103  0.103
 0.748  1.468  0.348  0.176  0.107  0.104  0.104
 0.750  1.468  0.348  0.176  0.108  0.106  0.106
 0.752  1.468  0.349  0.176  0.108  0.108  0.108
 0.754  1.470  0.349  0.176  0.108  0.110  0.110
 0.756  1.470  0.350  0.176  0.109  0.111  0.111
 0.758  1.471  0.350  0.176  0.109  0.114  0.114
 0.760  1.471  0.352  0.176  0.109  0.116  0.116
 0.762  1.472  0.352  0.176  0.110  0.118  0.118
 0.764  1.474  0.353  0.176  0.110  0.120  0.120
 0.766  1.475  0.355  0.176  0.110  0.122  0.122
 0.768  1.475  0.356  0.176  0.110  0.124  0.124
 0.770  1.476  0.356  0.176  0.110  0.126  0.126
 0.772  1.478  0.358  0.176  0.110  0.129  0.129
 0.774  1.479  0.359  0.176  0.110  0.131  0.131
 0.776  1.480  0.360  0.176  0.111  0.134  0.134
 0.778  1.482  0.362  0.176  0.111  0.136  0.136
 0.780  1.483  0.363  0.175  0.111  0.139  0.139
 0.782  1.484  0.366  0.175  0.111  0.141  0.141
 0.784  1.487  0.368  0.175  0.111  0.144  0.144
 0.786  1.488  0.369  0.176  0.112  0.146  0.146
 0.788  1.490  0.370  0.176  0.112  0.149  0.149
 0.790  1.492  0.373  0.176  0.113  0.152  0.152
 0.792  1.493  0.375  0.176  0.114  0.154  0.154
 0.794  1.495  0.378  0.178  0.115  0.157  0.157
 0.796  1.497  0.379  0.179  0.116  0.159  0.159
 0.798  1.500  0.382  0.179  0.117  0.162  0.162
 0.800  1.501  0.383  0.181  0.117  0.164  0.164
 0.802  1.504  0.386  0.182  0.119  0.167  0.167
 0.804  1.507  0.389  0.183  0.121  0.169  0.169
 0.806  1.509  0.391  0.185  0.122  0.172  0.172
 0.808  1.512  0.393  0.186  0.124  0.174  0.174
