# IsPeriodic    : True
# Period        : 0.630371 days
# Normalization : <g_mag>=0
# 
# Phase u_mag  g_mag  r_mag  i_mag  z_mag  y_mag
 0.000  0.409 -0.607 -0.507 -0.485 -0.514 -0.514
 0.002  0.409 -0.607 -0.507 -0.485 -0.513 -0.513
 0.004  0.410 -0.606 -0.507 -0.485 -0.512 -0.512
 0.006  0.411 -0.606 -0.507 -0.485 -0.511 -0.511
 0.008  0.412 -0.605 -0.506 -0.484 -0.509 -0.509
 0.010  0.414 -0.604 -0.506 -0.483 -0.507 -0.507
 0.012  0.417 -0.603 -0.505 -0.482 -0.505 -0.505
 0.014  0.419 -0.602 -0.505 -0.481 -0.502 -0.502
 0.016  0.422 -0.600 -0.504 -0.480 -0.499 -0.499
 0.018  0.424 -0.598 -0.503 -0.478 -0.497 -0.497
 0.020  0.427 -0.596 -0.503 -0.477 -0.493 -0.493
 0.022  0.431 -0.594 -0.502 -0.476 -0.490 -0.490
 0.024  0.435 -0.592 -0.501 -0.474 -0.487 -0.487
 0.026  0.438 -0.588 -0.500 -0.472 -0.484 -0.484
 0.028  0.441 -0.585 -0.498 -0.471 -0.481 -0.481
 0.030  0.446 -0.582 -0.497 -0.469 -0.478 -0.478
 0.032  0.450 -0.579 -0.496 -0.467 -0.475 -0.475
 0.034  0.454 -0.575 -0.494 -0.465 -0.472 -0.472
 0.036  0.459 -0.571 -0.493 -0.464 -0.470 -0.470
 0.038  0.464 -0.568 -0.491 -0.462 -0.467 -0.467
 0.040  0.469 -0.563 -0.489 -0.460 -0.464 -0.464
 0.042  0.474 -0.559 -0.488 -0.458 -0.462 -0.462
 0.044  0.479 -0.554 -0.486 -0.456 -0.459 -0.459
 0.046  0.485 -0.549 -0.484 -0.455 -0.457 -0.457
 0.048  0.490 -0.544 -0.482 -0.453 -0.454 -0.454
 0.050  0.497 -0.539 -0.480 -0.450 -0.451 -0.451
 0.052  0.503 -0.533 -0.477 -0.448 -0.449 -0.449
 0.054  0.510 -0.527 -0.475 -0.447 -0.446 -0.446
 0.056  0.516 -0.521 -0.473 -0.444 -0.443 -0.443
 0.058  0.523 -0.516 -0.470 -0.442 -0.441 -0.441
 0.060  0.530 -0.510 -0.468 -0.440 -0.438 -0.438
 0.062  0.537 -0.504 -0.465 -0.438 -0.436 -0.436
 0.064  0.544 -0.498 -0.462 -0.436 -0.433 -0.433
 0.066  0.552 -0.492 -0.460 -0.434 -0.430 -0.430
 0.068  0.561 -0.487 -0.457 -0.431 -0.428 -0.428
 0.070  0.568 -0.480 -0.453 -0.429 -0.426 -0.426
 0.072  0.577 -0.475 -0.450 -0.427 -0.423 -0.423
 0.074  0.584 -0.469 -0.447 -0.425 -0.421 -0.421
 0.076  0.593 -0.464 -0.444 -0.422 -0.419 -0.419
 0.078  0.601 -0.458 -0.441 -0.420 -0.416 -0.416
 0.080  0.609 -0.453 -0.438 -0.417 -0.414 -0.414
 0.082  0.618 -0.447 -0.434 -0.415 -0.411 -0.411
 0.084  0.625 -0.442 -0.431 -0.413 -0.410 -0.410
 0.086  0.633 -0.437 -0.428 -0.410 -0.407 -0.407
 0.088  0.641 -0.432 -0.425 -0.408 -0.405 -0.405
 0.090  0.648 -0.425 -0.422 -0.405 -0.403 -0.403
 0.092  0.656 -0.420 -0.419 -0.402 -0.400 -0.400
 0.094  0.663 -0.415 -0.416 -0.400 -0.398 -0.398
 0.096  0.670 -0.410 -0.413 -0.397 -0.396 -0.396
 0.098  0.677 -0.405 -0.410 -0.395 -0.394 -0.394
 0.100  0.684 -0.400 -0.407 -0.393 -0.392 -0.392
 0.102  0.690 -0.395 -0.405 -0.390 -0.389 -0.389
 0.104  0.697 -0.390 -0.402 -0.388 -0.388 -0.388
 0.106  0.703 -0.385 -0.400 -0.386 -0.385 -0.385
 0.108  0.710 -0.381 -0.397 -0.383 -0.383 -0.383
 0.110  0.715 -0.375 -0.395 -0.381 -0.381 -0.381
 0.112  0.722 -0.370 -0.392 -0.379 -0.379 -0.379
 0.114  0.727 -0.365 -0.389 -0.377 -0.377 -0.377
 0.116  0.734 -0.361 -0.387 -0.375 -0.375 -0.375
 0.118  0.739 -0.356 -0.385 -0.373 -0.373 -0.373
 0.120  0.745 -0.352 -0.382 -0.371 -0.372 -0.372
 0.122  0.750 -0.347 -0.380 -0.369 -0.370 -0.370
 0.124  0.755 -0.343 -0.378 -0.366 -0.367 -0.367
 0.126  0.761 -0.338 -0.376 -0.365 -0.366 -0.366
 0.128  0.765 -0.334 -0.374 -0.363 -0.364 -0.364
 0.130  0.771 -0.329 -0.371 -0.361 -0.362 -0.362
 0.132  0.775 -0.325 -0.369 -0.359 -0.360 -0.360
 0.134  0.779 -0.320 -0.367 -0.357 -0.359 -0.359
 0.136  0.784 -0.315 -0.365 -0.356 -0.357 -0.357
 0.138  0.788 -0.311 -0.364 -0.354 -0.355 -0.355
 0.140  0.792 -0.307 -0.362 -0.352 -0.353 -0.353
 0.142  0.797 -0.302 -0.359 -0.350 -0.351 -0.351
 0.144  0.800 -0.298 -0.358 -0.348 -0.350 -0.350
 0.146  0.804 -0.294 -0.356 -0.347 -0.348 -0.348
 0.148  0.808 -0.290 -0.354 -0.345 -0.347 -0.347
 0.150  0.812 -0.285 -0.352 -0.344 -0.345 -0.345
 0.152  0.816 -0.281 -0.350 -0.342 -0.343 -0.343
 0.154  0.819 -0.277 -0.349 -0.341 -0.342 -0.342
 0.156  0.824 -0.273 -0.347 -0.340 -0.340 -0.340
 0.158  0.827 -0.268 -0.345 -0.338 -0.339 -0.339
 0.160  0.831 -0.263 -0.343 -0.337 -0.337 -0.337
 0.162  0.834 -0.259 -0.341 -0.336 -0.336 -0.336
 0.164  0.839 -0.255 -0.339 -0.334 -0.334 -0.334
 0.166  0.842 -0.251 -0.338 -0.332 -0.332 -0.332
 0.168  0.846 -0.247 -0.335 -0.331 -0.331 -0.331
 0.170  0.851 -0.243 -0.333 -0.329 -0.329 -0.329
 0.172  0.854 -0.239 -0.331 -0.328 -0.328 -0.328
 0.174  0.858 -0.235 -0.329 -0.327 -0.326 -0.326
 0.176  0.863 -0.231 -0.327 -0.325 -0.324 -0.324
 0.178  0.866 -0.226 -0.325 -0.324 -0.323 -0.323
 0.180  0.870 -0.222 -0.322 -0.322 -0.321 -0.321
 0.182  0.874 -0.218 -0.320 -0.321 -0.319 -0.319
 0.184  0.878 -0.213 -0.318 -0.319 -0.318 -0.318
 0.186  0.882 -0.209 -0.315 -0.318 -0.316 -0.316
 0.188  0.886 -0.205 -0.313 -0.316 -0.314 -0.314
 0.190  0.891 -0.201 -0.311 -0.315 -0.313 -0.313
 0.192  0.894 -0.197 -0.308 -0.313 -0.311 -0.311
 0.194  0.898 -0.194 -0.306 -0.311 -0.309 -0.309
 0.196  0.903 -0.190 -0.303 -0.310 -0.308 -0.308
 0.198  0.907 -0.186 -0.301 -0.308 -0.306 -0.306
 0.200  0.910 -0.182 -0.298 -0.306 -0.304 -0.304
 0.202  0.915 -0.178 -0.295 -0.305 -0.303 -0.303
 0.204  0.919 -0.174 -0.292 -0.303 -0.301 -0.301
 0.206  0.923 -0.170 -0.290 -0.302 -0.299 -0.299
 0.208  0.928 -0.166 -0.288 -0.300 -0.298 -0.298
 0.210  0.931 -0.161 -0.285 -0.298 -0.296 -0.296
 0.212  0.935 -0.158 -0.282 -0.296 -0.295 -0.295
 0.214  0.939 -0.154 -0.279 -0.294 -0.293 -0.293
 0.216  0.944 -0.150 -0.276 -0.292 -0.291 -0.291
 0.218  0.948 -0.146 -0.273 -0.291 -0.290 -0.290
 0.220  0.952 -0.143 -0.271 -0.289 -0.288 -0.288
 0.222  0.957 -0.139 -0.268 -0.287 -0.287 -0.287
 0.224  0.960 -0.135 -0.265 -0.285 -0.285 -0.285
 0.226  0.964 -0.132 -0.261 -0.283 -0.283 -0.283
 0.228  0.969 -0.128 -0.259 -0.281 -0.281 -0.281
 0.230  0.973 -0.124 -0.256 -0.280 -0.280 -0.280
 0.232  0.976 -0.121 -0.253 -0.278 -0.278 -0.278
 0.234  0.981 -0.117 -0.250 -0.276 -0.276 -0.276
 0.236  0.984 -0.114 -0.247 -0.274 -0.275 -0.275
 0.238  0.988 -0.110 -0.245 -0.272 -0.273 -0.273
 0.240  0.992 -0.106 -0.241 -0.270 -0.271 -0.271
 0.242  0.996 -0.102 -0.238 -0.268 -0.270 -0.270
 0.244  1.000 -0.099 -0.235 -0.266 -0.268 -0.268
 0.246  1.003 -0.095 -0.233 -0.264 -0.267 -0.267
 0.248  1.007 -0.092 -0.230 -0.263 -0.265 -0.265
 0.250  1.011 -0.088 -0.227 -0.261 -0.264 -0.264
 0.252  1.014 -0.085 -0.224 -0.259 -0.262 -0.262
 0.254  1.018 -0.081 -0.221 -0.257 -0.261 -0.261
 0.256  1.022 -0.078 -0.218 -0.255 -0.259 -0.259
 0.258  1.025 -0.075 -0.215 -0.254 -0.258 -0.258
 0.260  1.028 -0.071 -0.212 -0.252 -0.256 -0.256
 0.262  1.033 -0.068 -0.209 -0.250 -0.255 -0.255
 0.264  1.036 -0.065 -0.206 -0.248 -0.253 -0.253
 0.266  1.039 -0.061 -0.204 -0.246 -0.252 -0.252
 0.268  1.042 -0.058 -0.201 -0.244 -0.250 -0.250
 0.270  1.046 -0.054 -0.197 -0.243 -0.249 -0.249
 0.272  1.049 -0.051 -0.194 -0.241 -0.247 -0.247
 0.274  1.052 -0.047 -0.192 -0.240 -0.246 -0.246
 0.276  1.055 -0.044 -0.189 -0.238 -0.245 -0.245
 0.278  1.059 -0.041 -0.186 -0.236 -0.243 -0.243
 0.280  1.062 -0.038 -0.183 -0.234 -0.242 -0.242
 0.282  1.065 -0.034 -0.180 -0.233 -0.241 -0.241
 0.284  1.068 -0.031 -0.177 -0.231 -0.239 -0.239
 0.286  1.072 -0.028 -0.174 -0.229 -0.238 -0.238
 0.288  1.075 -0.025 -0.171 -0.227 -0.236 -0.236
 0.290  1.078 -0.022 -0.168 -0.226 -0.235 -0.235
 0.292  1.080 -0.019 -0.166 -0.224 -0.234 -0.234
 0.294  1.083 -0.015 -0.163 -0.223 -0.233 -0.233
 0.296  1.087 -0.012 -0.160 -0.221 -0.231 -0.231
 0.298  1.090 -0.009 -0.157 -0.220 -0.230 -0.230
 0.300  1.093 -0.006 -0.154 -0.218 -0.229 -0.229
 0.302  1.095 -0.003 -0.151 -0.217 -0.228 -0.228
 0.304  1.099  0.001 -0.149 -0.215 -0.227 -0.227
 0.306  1.102  0.005 -0.146 -0.213 -0.225 -0.225
 0.308  1.105  0.008 -0.143 -0.212 -0.224 -0.224
 0.310  1.108  0.011 -0.141 -0.210 -0.222 -0.222
 0.312  1.110  0.014 -0.138 -0.209 -0.221 -0.221
 0.314  1.114  0.017 -0.135 -0.207 -0.220 -0.220
 0.316  1.117  0.020 -0.133 -0.206 -0.219 -0.219
 0.318  1.120  0.023 -0.130 -0.204 -0.217 -0.217
 0.320  1.123  0.026 -0.128 -0.202 -0.216 -0.216
 0.322  1.126  0.030 -0.125 -0.201 -0.215 -0.215
 0.324  1.129  0.033 -0.123 -0.199 -0.214 -0.214
 0.326  1.132  0.036 -0.121 -0.197 -0.212 -0.212
 0.328  1.135  0.039 -0.119 -0.196 -0.211 -0.211
 0.330  1.138  0.042 -0.116 -0.194 -0.209 -0.209
 0.332  1.141  0.045 -0.114 -0.193 -0.208 -0.208
 0.334  1.144  0.048 -0.112 -0.191 -0.207 -0.207
 0.336  1.147  0.051 -0.110 -0.189 -0.205 -0.205
 0.338  1.149  0.055 -0.108 -0.188 -0.204 -0.204
 0.340  1.153  0.058 -0.106 -0.186 -0.203 -0.203
 0.342  1.156  0.061 -0.103 -0.184 -0.201 -0.201
 0.344  1.159  0.064 -0.101 -0.183 -0.200 -0.200
 0.346  1.162  0.067 -0.099 -0.181 -0.198 -0.198
 0.348  1.165  0.070 -0.097 -0.179 -0.197 -0.197
 0.350  1.168  0.073 -0.096 -0.178 -0.196 -0.196
 0.352  1.171  0.076 -0.094 -0.176 -0.195 -0.195
 0.354  1.174  0.079 -0.091 -0.175 -0.193 -0.193
 0.356  1.177  0.082 -0.090 -0.173 -0.192 -0.192
 0.358  1.180  0.085 -0.088 -0.172 -0.190 -0.190
 0.360  1.183  0.088 -0.087 -0.170 -0.189 -0.189
 0.362  1.185  0.091 -0.084 -0.168 -0.187 -0.187
 0.364  1.188  0.094 -0.083 -0.166 -0.186 -0.186
 0.366  1.192  0.097 -0.081 -0.165 -0.184 -0.184
 0.368  1.195  0.100 -0.079 -0.163 -0.183 -0.183
 0.370  1.197  0.103 -0.078 -0.161 -0.182 -0.182
 0.372  1.200  0.107 -0.076 -0.159 -0.180 -0.180
 0.374  1.204  0.109 -0.075 -0.158 -0.179 -0.179
 0.376  1.206  0.112 -0.072 -0.156 -0.178 -0.178
 0.378  1.209  0.115 -0.071 -0.155 -0.176 -0.176
 0.380  1.212  0.118 -0.069 -0.153 -0.175 -0.175
 0.382  1.214  0.121 -0.067 -0.152 -0.173 -0.173
 0.384  1.218  0.123 -0.066 -0.150 -0.171 -0.171
 0.386  1.220  0.126 -0.064 -0.148 -0.170 -0.170
 0.388  1.223  0.129 -0.063 -0.147 -0.168 -0.168
 0.390  1.226  0.132 -0.060 -0.145 -0.167 -0.167
 0.392  1.228  0.135 -0.059 -0.143 -0.165 -0.165
 0.394  1.232  0.137 -0.057 -0.141 -0.164 -0.164
 0.396  1.234  0.140 -0.055 -0.140 -0.162 -0.162
 0.398  1.237  0.143 -0.054 -0.138 -0.161 -0.161
 0.400  1.239  0.145 -0.052 -0.136 -0.160 -0.160
 0.402  1.243  0.148 -0.051 -0.135 -0.158 -0.158
 0.404  1.245  0.151 -0.048 -0.133 -0.157 -0.157
 0.406  1.248  0.153 -0.047 -0.132 -0.155 -0.155
 0.408  1.250  0.156 -0.046 -0.130 -0.154 -0.154
 0.410  1.253  0.160 -0.043 -0.128 -0.152 -0.152
 0.412  1.256  0.162 -0.042 -0.127 -0.151 -0.151
 0.414  1.259  0.165 -0.040 -0.125 -0.149 -0.149
 0.416  1.261  0.167 -0.039 -0.124 -0.148 -0.148
 0.418  1.264  0.170 -0.036 -0.122 -0.146 -0.146
 0.420  1.266  0.173 -0.035 -0.121 -0.145 -0.145
 0.422  1.270  0.175 -0.034 -0.119 -0.143 -0.143
 0.424  1.272  0.177 -0.031 -0.118 -0.141 -0.141
 0.426  1.274  0.180 -0.030 -0.116 -0.140 -0.140
 0.428  1.277  0.182 -0.028 -0.114 -0.138 -0.138
 0.430  1.279  0.185 -0.027 -0.113 -0.137 -0.137
 0.432  1.282  0.187 -0.025 -0.111 -0.135 -0.135
 0.434  1.285  0.189 -0.023 -0.110 -0.134 -0.134
 0.436  1.287  0.191 -0.022 -0.108 -0.132 -0.132
 0.438  1.289  0.194 -0.020 -0.106 -0.130 -0.130
 0.440  1.292  0.196 -0.018 -0.105 -0.129 -0.129
 0.442  1.295  0.198 -0.017 -0.103 -0.127 -0.127
 0.444  1.297  0.200 -0.015 -0.102 -0.126 -0.126
 0.446  1.299  0.202 -0.013 -0.100 -0.124 -0.124
 0.448  1.301  0.204 -0.012 -0.099 -0.122 -0.122
 0.450  1.304  0.206 -0.010 -0.097 -0.121 -0.121
 0.452  1.306  0.208 -0.008 -0.096 -0.119 -0.119
 0.454  1.309  0.210 -0.007 -0.094 -0.118 -0.118
 0.456  1.311  0.212 -0.005 -0.093 -0.116 -0.116
 0.458  1.313  0.215 -0.004 -0.091 -0.115 -0.115
 0.460  1.315  0.217 -0.002 -0.090 -0.113 -0.113
 0.462  1.317  0.219 -0.000 -0.088 -0.112 -0.112
 0.464  1.319  0.220  0.001 -0.087 -0.110 -0.110
 0.466  1.322  0.222  0.002 -0.085 -0.109 -0.109
 0.468  1.324  0.224  0.004 -0.084 -0.108 -0.108
 0.470  1.326  0.226  0.005 -0.082 -0.107 -0.107
 0.472  1.328  0.227  0.007 -0.081 -0.105 -0.105
 0.474  1.330  0.229  0.009 -0.080 -0.104 -0.104
 0.476  1.331  0.230  0.010 -0.078 -0.102 -0.102
 0.478  1.334  0.232  0.012 -0.077 -0.101 -0.101
 0.480  1.336  0.233  0.013 -0.076 -0.100 -0.100
 0.482  1.338  0.235  0.014 -0.074 -0.099 -0.099
 0.484  1.339  0.236  0.016 -0.073 -0.097 -0.097
 0.486  1.341  0.238  0.017 -0.072 -0.096 -0.096
 0.488  1.343  0.239  0.019 -0.071 -0.095 -0.095
 0.490  1.345  0.241  0.020 -0.070 -0.094 -0.094
 0.492  1.346  0.242  0.021 -0.068 -0.093 -0.093
 0.494  1.349  0.243  0.023 -0.067 -0.092 -0.092
 0.496  1.351  0.245  0.024 -0.066 -0.091 -0.091
 0.498  1.352  0.246  0.026 -0.065 -0.089 -0.089
 0.500  1.354  0.247  0.027 -0.064 -0.088 -0.088
 0.502  1.355  0.248  0.028 -0.062 -0.088 -0.088
 0.504  1.357  0.249  0.029 -0.061 -0.086 -0.086
 0.506  1.358  0.251  0.031 -0.060 -0.085 -0.085
 0.508  1.361  0.252  0.032 -0.059 -0.085 -0.085
 0.510  1.362  0.253  0.033 -0.057 -0.083 -0.083
 0.512  1.363  0.254  0.035 -0.056 -0.082 -0.082
 0.514  1.365  0.255  0.036 -0.056 -0.082 -0.082
 0.516  1.366  0.256  0.037 -0.054 -0.080 -0.080
 0.518  1.367  0.257  0.038 -0.053 -0.080 -0.080
 0.520  1.368  0.258  0.040 -0.052 -0.078 -0.078
 0.522  1.369  0.259  0.040 -0.051 -0.078 -0.078
 0.524  1.370  0.260  0.042 -0.050 -0.077 -0.077
 0.526  1.371  0.261  0.043 -0.049 -0.076 -0.076
 0.528  1.372  0.262  0.044 -0.048 -0.075 -0.075
 0.530  1.374  0.263  0.045 -0.047 -0.074 -0.074
 0.532  1.375  0.264  0.047 -0.047 -0.073 -0.073
 0.534  1.376  0.265  0.047 -0.045 -0.072 -0.072
 0.536  1.377  0.267  0.049 -0.044 -0.072 -0.072
 0.538  1.378  0.267  0.050 -0.043 -0.071 -0.071
 0.540  1.378  0.268  0.051 -0.042 -0.070 -0.070
 0.542  1.379  0.269  0.052 -0.042 -0.069 -0.069
 0.544  1.380  0.270  0.053 -0.040 -0.068 -0.068
 0.546  1.380  0.270  0.055 -0.040 -0.067 -0.067
 0.548  1.381  0.271  0.055 -0.039 -0.066 -0.066
 0.550  1.381  0.272  0.056 -0.038 -0.066 -0.066
 0.552  1.382  0.272  0.057 -0.037 -0.064 -0.064
 0.554  1.382  0.273  0.058 -0.036 -0.064 -0.064
 0.556  1.383  0.274  0.059 -0.036 -0.063 -0.063
 0.558  1.383  0.274  0.060 -0.035 -0.062 -0.062
 0.560  1.383  0.275  0.061 -0.034 -0.061 -0.061
 0.562  1.384  0.275  0.062 -0.033 -0.061 -0.061
 0.564  1.384  0.276  0.063 -0.033 -0.059 -0.059
 0.566  1.384  0.276  0.064 -0.032 -0.059 -0.059
 0.568  1.384  0.277  0.064 -0.031 -0.058 -0.058
 0.570  1.384  0.277  0.066 -0.030 -0.057 -0.057
 0.572  1.384  0.278  0.067 -0.030 -0.056 -0.056
 0.574  1.384  0.278  0.067 -0.029 -0.056 -0.056
 0.576  1.384  0.278  0.068 -0.028 -0.055 -0.055
 0.578  1.384  0.279  0.069 -0.028 -0.054 -0.054
 0.580  1.384  0.279  0.070 -0.026 -0.053 -0.053
 0.582  1.384  0.280  0.071 -0.026 -0.053 -0.053
 0.584  1.384  0.280  0.071 -0.025 -0.052 -0.052
 0.586  1.384  0.280  0.073 -0.025 -0.052 -0.052
 0.588  1.384  0.281  0.074 -0.024 -0.050 -0.050
 0.590  1.384  0.281  0.074 -0.023 -0.050 -0.050
 0.592  1.384  0.281  0.075 -0.023 -0.049 -0.049
 0.594  1.384  0.281  0.076 -0.022 -0.048 -0.048
 0.596  1.384  0.282  0.077 -0.022 -0.048 -0.048
 0.598  1.384  0.282  0.079 -0.021 -0.047 -0.047
 0.600  1.384  0.282  0.079 -0.020 -0.046 -0.046
 0.602  1.384  0.282  0.080 -0.020 -0.045 -0.045
 0.604  1.384  0.282  0.081 -0.019 -0.045 -0.045
 0.606  1.384  0.283  0.082 -0.019 -0.044 -0.044
 0.608  1.384  0.283  0.083 -0.018 -0.044 -0.044
 0.610  1.384  0.283  0.084 -0.017 -0.043 -0.043
 0.612  1.384  0.283  0.086 -0.017 -0.042 -0.042
 0.614  1.383  0.283  0.086 -0.016 -0.042 -0.042
 0.616  1.383  0.283  0.088 -0.016 -0.041 -0.041
 0.618  1.383  0.283  0.088 -0.016 -0.041 -0.041
 0.620  1.383  0.283  0.090 -0.015 -0.040 -0.040
 0.622  1.383  0.283  0.091 -0.014 -0.039 -0.039
 0.624  1.383  0.283  0.092 -0.014 -0.039 -0.039
 0.626  1.383  0.283  0.093 -0.013 -0.038 -0.038
 0.628  1.383  0.283  0.094 -0.013 -0.037 -0.037
 0.630  1.383  0.283  0.095 -0.012 -0.037 -0.037
 0.632  1.383  0.283  0.097 -0.011 -0.036 -0.036
 0.634  1.383  0.283  0.098 -0.011 -0.036 -0.036
 0.636  1.383  0.283  0.099 -0.010 -0.035 -0.035
 0.638  1.383  0.284  0.100 -0.009 -0.034 -0.034
 0.640  1.383  0.284  0.101 -0.009 -0.034 -0.034
 0.642  1.383  0.284  0.103 -0.008 -0.034 -0.034
 0.644  1.383  0.284  0.104 -0.008 -0.033 -0.033
 0.646  1.383  0.285  0.105 -0.008 -0.033 -0.033
 0.648  1.382  0.285  0.107 -0.007 -0.032 -0.032
 0.650  1.382  0.286  0.108 -0.006 -0.031 -0.031
 0.652  1.382  0.286  0.110 -0.006 -0.031 -0.031
 0.654  1.382  0.287  0.111 -0.005 -0.030 -0.030
 0.656  1.382  0.287  0.112 -0.005 -0.030 -0.030
 0.658  1.382  0.288  0.114 -0.005 -0.029 -0.029
 0.660  1.382  0.289  0.115 -0.004 -0.029 -0.029
 0.662  1.382  0.289  0.117 -0.003 -0.028 -0.028
 0.664  1.381  0.290  0.119 -0.003 -0.028 -0.028
 0.666  1.381  0.291  0.120 -0.002 -0.028 -0.028
 0.668  1.381  0.292  0.122 -0.001 -0.027 -0.027
 0.670  1.381  0.293  0.124 -0.000 -0.027 -0.027
 0.672  1.381  0.294  0.126  0.001 -0.026 -0.026
 0.674  1.380  0.295  0.128  0.002 -0.026 -0.026
 0.676  1.380  0.296  0.130  0.003 -0.026 -0.026
 0.678  1.380  0.297  0.132  0.004 -0.026 -0.026
 0.680  1.380  0.298  0.134  0.006 -0.025 -0.025
 0.682  1.379  0.299  0.136  0.008 -0.025 -0.025
 0.684  1.379  0.301  0.138  0.009 -0.025 -0.025
 0.686  1.379  0.302  0.141  0.011 -0.025 -0.025
 0.688  1.379  0.303  0.143  0.012 -0.025 -0.025
 0.690  1.378  0.305  0.146  0.014 -0.024 -0.024
 0.692  1.378  0.306  0.148  0.016 -0.024 -0.024
 0.694  1.378  0.308  0.150  0.018 -0.024 -0.024
 0.696  1.377  0.309  0.153  0.020 -0.023 -0.023
 0.698  1.377  0.311  0.155  0.023 -0.023 -0.023
 0.700  1.376  0.312  0.158  0.025 -0.023 -0.023
 0.702  1.376  0.314  0.161  0.027 -0.023 -0.023
 0.704  1.376  0.315  0.164  0.029 -0.023 -0.023
 0.706  1.375  0.317  0.167  0.032 -0.023 -0.023
 0.708  1.375  0.319  0.170  0.035 -0.023 -0.023
 0.710  1.374  0.322  0.172  0.038 -0.023 -0.023
 0.712  1.374  0.324  0.175  0.041 -0.023 -0.023
 0.714  1.372  0.326  0.179  0.044 -0.023 -0.023
 0.716  1.372  0.328  0.182  0.047 -0.023 -0.023
 0.718  1.372  0.330  0.184  0.051 -0.023 -0.023
 0.720  1.371  0.332  0.187  0.054 -0.023 -0.023
 0.722  1.371  0.334  0.190  0.057 -0.023 -0.023
 0.724  1.370  0.337  0.192  0.061 -0.023 -0.023
 0.726  1.370  0.339  0.194  0.064 -0.023 -0.023
 0.728  1.370  0.341  0.196  0.068 -0.023 -0.023
 0.730  1.370  0.343  0.197  0.071 -0.023 -0.023
 0.732  1.370  0.346  0.198  0.075 -0.023 -0.023
 0.734  1.370  0.348  0.198  0.079 -0.022 -0.022
 0.736  1.370  0.350  0.198  0.082 -0.022 -0.022
 0.738  1.370  0.353  0.198  0.086 -0.022 -0.022
 0.740  1.370  0.355  0.197  0.089 -0.020 -0.020
 0.742  1.370  0.358  0.196  0.093 -0.020 -0.020
 0.744  1.370  0.360  0.194  0.096 -0.018 -0.018
 0.746  1.370  0.363  0.192  0.099 -0.017 -0.017
 0.748  1.371  0.366  0.190  0.101 -0.016 -0.016
 0.750  1.371  0.368  0.188  0.104 -0.015 -0.015
 0.752  1.371  0.371  0.184  0.106 -0.013 -0.013
 0.754  1.372  0.376  0.182  0.109 -0.012 -0.012
 0.756  1.372  0.379  0.178  0.111 -0.010 -0.010
 0.758  1.374  0.382  0.174  0.113 -0.007 -0.007
 0.760  1.374  0.385  0.170  0.114 -0.006 -0.006
 0.762  1.375  0.388  0.165  0.116 -0.003 -0.003
 0.764  1.376  0.392  0.160  0.117 -0.001 -0.001
 0.766  1.377  0.395  0.155  0.118  0.002  0.002
 0.768  1.377  0.397  0.148  0.119  0.004  0.004
 0.770  1.378  0.400  0.142  0.120  0.007  0.007
 0.772  1.379  0.403  0.135  0.120  0.010  0.010
 0.774  1.380  0.405  0.128  0.121  0.013  0.013
 0.776  1.381  0.407  0.120  0.122  0.017  0.017
 0.778  1.382  0.409  0.112  0.122  0.020  0.020
 0.780  1.383  0.410  0.104  0.122  0.024  0.024
 0.782  1.384  0.411  0.095  0.122  0.027  0.027
 0.784  1.387  0.412  0.086  0.121  0.031  0.031
 0.786  1.388  0.412  0.077  0.121  0.035  0.035
 0.788  1.389  0.412  0.068  0.120  0.039  0.039
 0.790  1.391  0.411  0.058  0.120  0.043  0.043
 0.792  1.392  0.410  0.048  0.119  0.048  0.048
 0.794  1.393  0.408  0.039  0.118  0.053  0.053
 0.796  1.395  0.406  0.029  0.117  0.057  0.057
 0.798  1.397  0.404  0.019  0.115  0.061  0.061
 0.800  1.398  0.401  0.009  0.114  0.065  0.065
 0.802  1.401  0.397 -0.000  0.112  0.070  0.070
 0.804  1.403  0.393 -0.010  0.110  0.074  0.074
 0.806  1.405  0.389 -0.020  0.108  0.078  0.078
 0.808  1.407  0.384 -0.030  0.105  0.081  0.081
