# IsPeriodic    : True
# Period        : 0.722990 days
# Normalization : <g_mag>=0
# 
# Phase u_mag  g_mag  r_mag  i_mag  z_mag  y_mag
 0.000  0.730 -0.423 -0.472 -0.462 -0.466 -0.466
 0.002  0.730 -0.423 -0.472 -0.462 -0.466 -0.466
 0.004  0.730 -0.423 -0.471 -0.462 -0.466 -0.466
 0.006  0.730 -0.422 -0.471 -0.462 -0.465 -0.465
 0.008  0.731 -0.422 -0.471 -0.462 -0.465 -0.465
 0.010  0.732 -0.421 -0.470 -0.462 -0.464 -0.464
 0.012  0.734 -0.421 -0.470 -0.462 -0.463 -0.463
 0.014  0.735 -0.419 -0.469 -0.461 -0.463 -0.463
 0.016  0.737 -0.418 -0.468 -0.461 -0.462 -0.462
 0.018  0.739 -0.418 -0.467 -0.461 -0.461 -0.461
 0.020  0.741 -0.416 -0.467 -0.460 -0.460 -0.460
 0.022  0.743 -0.415 -0.466 -0.460 -0.459 -0.459
 0.024  0.745 -0.413 -0.465 -0.459 -0.458 -0.458
 0.026  0.747 -0.412 -0.463 -0.459 -0.457 -0.457
 0.028  0.749 -0.411 -0.462 -0.458 -0.456 -0.456
 0.030  0.752 -0.408 -0.461 -0.457 -0.454 -0.454
 0.032  0.754 -0.406 -0.460 -0.457 -0.453 -0.453
 0.034  0.756 -0.405 -0.459 -0.456 -0.452 -0.452
 0.036  0.759 -0.403 -0.457 -0.455 -0.451 -0.451
 0.038  0.761 -0.400 -0.455 -0.454 -0.450 -0.450
 0.040  0.764 -0.398 -0.454 -0.453 -0.448 -0.448
 0.042  0.766 -0.395 -0.452 -0.452 -0.447 -0.447
 0.044  0.769 -0.393 -0.451 -0.451 -0.446 -0.446
 0.046  0.772 -0.390 -0.449 -0.450 -0.445 -0.445
 0.048  0.775 -0.387 -0.447 -0.449 -0.444 -0.444
 0.050  0.778 -0.384 -0.445 -0.448 -0.443 -0.443
 0.052  0.781 -0.381 -0.444 -0.446 -0.442 -0.442
 0.054  0.784 -0.378 -0.442 -0.445 -0.441 -0.441
 0.056  0.787 -0.374 -0.440 -0.444 -0.439 -0.439
 0.058  0.791 -0.371 -0.438 -0.443 -0.438 -0.438
 0.060  0.794 -0.367 -0.435 -0.441 -0.437 -0.437
 0.062  0.797 -0.363 -0.433 -0.439 -0.436 -0.436
 0.064  0.801 -0.360 -0.431 -0.438 -0.435 -0.435
 0.066  0.805 -0.356 -0.429 -0.437 -0.434 -0.434
 0.068  0.808 -0.352 -0.426 -0.435 -0.433 -0.433
 0.070  0.812 -0.347 -0.424 -0.433 -0.432 -0.432
 0.072  0.816 -0.344 -0.421 -0.432 -0.431 -0.431
 0.074  0.820 -0.340 -0.419 -0.430 -0.430 -0.430
 0.076  0.824 -0.335 -0.416 -0.428 -0.429 -0.429
 0.078  0.828 -0.331 -0.413 -0.427 -0.428 -0.428
 0.080  0.832 -0.327 -0.411 -0.425 -0.427 -0.427
 0.082  0.837 -0.322 -0.408 -0.423 -0.426 -0.426
 0.084  0.840 -0.319 -0.405 -0.422 -0.425 -0.425
 0.086  0.844 -0.314 -0.403 -0.420 -0.424 -0.424
 0.088  0.849 -0.310 -0.400 -0.419 -0.423 -0.423
 0.090  0.853 -0.307 -0.398 -0.417 -0.422 -0.422
 0.092  0.856 -0.303 -0.396 -0.416 -0.421 -0.421
 0.094  0.861 -0.299 -0.393 -0.414 -0.420 -0.420
 0.096  0.864 -0.295 -0.391 -0.413 -0.419 -0.419
 0.098  0.868 -0.291 -0.389 -0.411 -0.418 -0.418
 0.100  0.872 -0.288 -0.386 -0.410 -0.417 -0.417
 0.102  0.876 -0.284 -0.384 -0.409 -0.416 -0.416
 0.104  0.880 -0.281 -0.382 -0.407 -0.415 -0.415
 0.106  0.883 -0.278 -0.380 -0.406 -0.414 -0.414
 0.108  0.887 -0.274 -0.378 -0.405 -0.413 -0.413
 0.110  0.890 -0.271 -0.376 -0.404 -0.412 -0.412
 0.112  0.894 -0.267 -0.374 -0.402 -0.411 -0.411
 0.114  0.897 -0.264 -0.372 -0.401 -0.410 -0.410
 0.116  0.901 -0.261 -0.371 -0.400 -0.409 -0.409
 0.118  0.904 -0.258 -0.368 -0.399 -0.408 -0.408
 0.120  0.907 -0.254 -0.367 -0.398 -0.408 -0.408
 0.122  0.911 -0.251 -0.365 -0.397 -0.406 -0.406
 0.124  0.913 -0.248 -0.363 -0.396 -0.406 -0.406
 0.126  0.917 -0.246 -0.362 -0.395 -0.405 -0.405
 0.128  0.920 -0.243 -0.360 -0.394 -0.404 -0.404
 0.130  0.922 -0.240 -0.359 -0.393 -0.403 -0.403
 0.132  0.926 -0.237 -0.357 -0.392 -0.402 -0.402
 0.134  0.929 -0.234 -0.356 -0.391 -0.401 -0.401
 0.136  0.932 -0.231 -0.355 -0.391 -0.400 -0.400
 0.138  0.934 -0.229 -0.353 -0.389 -0.399 -0.399
 0.140  0.937 -0.226 -0.352 -0.389 -0.398 -0.398
 0.142  0.939 -0.223 -0.351 -0.388 -0.398 -0.398
 0.144  0.942 -0.221 -0.350 -0.387 -0.397 -0.397
 0.146  0.945 -0.218 -0.349 -0.386 -0.396 -0.396
 0.148  0.948 -0.215 -0.348 -0.386 -0.395 -0.395
 0.150  0.950 -0.213 -0.347 -0.385 -0.394 -0.394
 0.152  0.953 -0.210 -0.345 -0.384 -0.393 -0.393
 0.154  0.955 -0.208 -0.344 -0.384 -0.392 -0.392
 0.156  0.958 -0.205 -0.343 -0.382 -0.392 -0.392
 0.158  0.960 -0.203 -0.342 -0.382 -0.391 -0.391
 0.160  0.963 -0.200 -0.341 -0.381 -0.390 -0.390
 0.162  0.965 -0.197 -0.340 -0.380 -0.389 -0.389
 0.164  0.967 -0.195 -0.339 -0.379 -0.388 -0.388
 0.166  0.970 -0.192 -0.338 -0.378 -0.387 -0.387
 0.168  0.972 -0.189 -0.336 -0.378 -0.386 -0.386
 0.170  0.975 -0.186 -0.335 -0.377 -0.386 -0.386
 0.172  0.977 -0.183 -0.334 -0.376 -0.385 -0.385
 0.174  0.979 -0.180 -0.333 -0.375 -0.384 -0.384
 0.176  0.982 -0.177 -0.331 -0.374 -0.383 -0.383
 0.178  0.984 -0.175 -0.330 -0.373 -0.382 -0.382
 0.180  0.987 -0.172 -0.328 -0.372 -0.381 -0.381
 0.182  0.989 -0.169 -0.327 -0.371 -0.381 -0.381
 0.184  0.992 -0.166 -0.325 -0.371 -0.380 -0.380
 0.186  0.994 -0.163 -0.324 -0.369 -0.379 -0.379
 0.188  0.997 -0.160 -0.322 -0.369 -0.378 -0.378
 0.190  0.999 -0.157 -0.321 -0.368 -0.377 -0.377
 0.192  1.002 -0.154 -0.319 -0.367 -0.377 -0.377
 0.194  1.005 -0.151 -0.317 -0.366 -0.376 -0.376
 0.196  1.007 -0.148 -0.316 -0.365 -0.375 -0.375
 0.198  1.010 -0.144 -0.314 -0.364 -0.374 -0.374
 0.200  1.012 -0.142 -0.312 -0.363 -0.373 -0.373
 0.202  1.015 -0.139 -0.311 -0.362 -0.372 -0.372
 0.204  1.017 -0.135 -0.309 -0.361 -0.372 -0.372
 0.206  1.020 -0.132 -0.307 -0.360 -0.371 -0.371
 0.208  1.022 -0.129 -0.305 -0.359 -0.370 -0.370
 0.210  1.025 -0.126 -0.303 -0.357 -0.369 -0.369
 0.212  1.027 -0.122 -0.301 -0.357 -0.368 -0.368
 0.214  1.030 -0.119 -0.299 -0.355 -0.368 -0.368
 0.216  1.033 -0.116 -0.297 -0.354 -0.367 -0.367
 0.218  1.036 -0.113 -0.295 -0.353 -0.366 -0.366
 0.220  1.038 -0.109 -0.293 -0.352 -0.365 -0.365
 0.222  1.041 -0.106 -0.291 -0.351 -0.365 -0.365
 0.224  1.044 -0.104 -0.289 -0.350 -0.364 -0.364
 0.226  1.046 -0.100 -0.287 -0.349 -0.363 -0.363
 0.228  1.048 -0.097 -0.286 -0.348 -0.362 -0.362
 0.230  1.051 -0.094 -0.284 -0.347 -0.361 -0.361
 0.232  1.054 -0.091 -0.281 -0.346 -0.360 -0.360
 0.234  1.056 -0.088 -0.279 -0.344 -0.360 -0.360
 0.236  1.059 -0.085 -0.277 -0.344 -0.359 -0.359
 0.238  1.062 -0.082 -0.275 -0.343 -0.358 -0.358
 0.240  1.064 -0.079 -0.274 -0.341 -0.357 -0.357
 0.242  1.067 -0.076 -0.272 -0.341 -0.357 -0.357
 0.244  1.069 -0.074 -0.270 -0.339 -0.356 -0.356
 0.246  1.072 -0.071 -0.268 -0.338 -0.355 -0.355
 0.248  1.074 -0.068 -0.266 -0.337 -0.354 -0.354
 0.250  1.077 -0.066 -0.265 -0.336 -0.353 -0.353
 0.252  1.079 -0.063 -0.263 -0.335 -0.352 -0.352
 0.254  1.082 -0.061 -0.261 -0.334 -0.351 -0.351
 0.256  1.084 -0.058 -0.260 -0.333 -0.351 -0.351
 0.258  1.086 -0.055 -0.258 -0.332 -0.350 -0.350
 0.260  1.089 -0.053 -0.256 -0.331 -0.349 -0.349
 0.262  1.091 -0.050 -0.255 -0.330 -0.348 -0.348
 0.264  1.093 -0.048 -0.253 -0.329 -0.347 -0.347
 0.266  1.096 -0.045 -0.251 -0.328 -0.346 -0.346
 0.268  1.098 -0.043 -0.250 -0.327 -0.345 -0.345
 0.270  1.101 -0.040 -0.248 -0.325 -0.344 -0.344
 0.272  1.103 -0.038 -0.247 -0.325 -0.343 -0.343
 0.274  1.105 -0.036 -0.245 -0.323 -0.342 -0.342
 0.276  1.108 -0.033 -0.244 -0.322 -0.341 -0.341
 0.278  1.110 -0.031 -0.242 -0.321 -0.340 -0.340
 0.280  1.112 -0.029 -0.241 -0.320 -0.339 -0.339
 0.282  1.114 -0.027 -0.240 -0.319 -0.338 -0.338
 0.284  1.117 -0.025 -0.238 -0.318 -0.337 -0.337
 0.286  1.119 -0.023 -0.237 -0.317 -0.336 -0.336
 0.288  1.121 -0.020 -0.235 -0.316 -0.335 -0.335
 0.290  1.123 -0.018 -0.234 -0.315 -0.334 -0.334
 0.292  1.125 -0.016 -0.233 -0.314 -0.333 -0.333
 0.294  1.127 -0.014 -0.231 -0.313 -0.332 -0.332
 0.296  1.129 -0.012 -0.230 -0.312 -0.331 -0.331
 0.298  1.131 -0.010 -0.229 -0.311 -0.330 -0.330
 0.300  1.134 -0.007 -0.227 -0.310 -0.329 -0.329
 0.302  1.136 -0.005 -0.226 -0.309 -0.328 -0.328
 0.304  1.138 -0.003 -0.225 -0.307 -0.327 -0.327
 0.306  1.140 -0.001 -0.223 -0.306 -0.326 -0.326
 0.308  1.142  0.001 -0.222 -0.305 -0.324 -0.324
 0.310  1.144  0.003 -0.221 -0.304 -0.323 -0.323
 0.312  1.146  0.005 -0.219 -0.303 -0.322 -0.322
 0.314  1.148  0.008 -0.218 -0.302 -0.321 -0.321
 0.316  1.150  0.010 -0.216 -0.300 -0.320 -0.320
 0.318  1.153  0.012 -0.215 -0.299 -0.319 -0.319
 0.320  1.155  0.014 -0.213 -0.298 -0.318 -0.318
 0.322  1.156  0.017 -0.212 -0.297 -0.317 -0.317
 0.324  1.158  0.019 -0.210 -0.296 -0.315 -0.315
 0.326  1.160  0.021 -0.209 -0.294 -0.314 -0.314
 0.328  1.162  0.023 -0.207 -0.293 -0.313 -0.313
 0.330  1.165  0.026 -0.206 -0.292 -0.312 -0.312
 0.332  1.166  0.028 -0.204 -0.291 -0.311 -0.311
 0.334  1.168  0.031 -0.203 -0.289 -0.310 -0.310
 0.336  1.170  0.033 -0.201 -0.288 -0.309 -0.309
 0.338  1.172  0.035 -0.200 -0.287 -0.308 -0.308
 0.340  1.174  0.037 -0.198 -0.286 -0.307 -0.307
 0.342  1.176  0.040 -0.197 -0.284 -0.306 -0.306
 0.344  1.177  0.042 -0.195 -0.283 -0.305 -0.305
 0.346  1.179  0.044 -0.193 -0.282 -0.304 -0.304
 0.348  1.181  0.047 -0.191 -0.280 -0.303 -0.303
 0.350  1.183  0.049 -0.190 -0.279 -0.302 -0.302
 0.352  1.185  0.051 -0.188 -0.278 -0.301 -0.301
 0.354  1.186  0.054 -0.187 -0.277 -0.300 -0.300
 0.356  1.188  0.056 -0.185 -0.275 -0.299 -0.299
 0.358  1.190  0.059 -0.183 -0.274 -0.299 -0.299
 0.360  1.192  0.061 -0.182 -0.273 -0.297 -0.297
 0.362  1.193  0.064 -0.180 -0.271 -0.297 -0.297
 0.364  1.196  0.066 -0.178 -0.270 -0.296 -0.296
 0.366  1.197  0.069 -0.176 -0.268 -0.295 -0.295
 0.368  1.199  0.071 -0.175 -0.267 -0.294 -0.294
 0.370  1.200  0.073 -0.173 -0.266 -0.293 -0.293
 0.372  1.203  0.075 -0.172 -0.264 -0.292 -0.292
 0.374  1.204  0.077 -0.170 -0.263 -0.291 -0.291
 0.376  1.206  0.079 -0.168 -0.262 -0.290 -0.290
 0.378  1.207  0.081 -0.167 -0.261 -0.290 -0.290
 0.380  1.210  0.084 -0.165 -0.260 -0.289 -0.289
 0.382  1.211  0.086 -0.163 -0.258 -0.288 -0.288
 0.384  1.213  0.088 -0.162 -0.257 -0.287 -0.287
 0.386  1.215  0.090 -0.160 -0.256 -0.286 -0.286
 0.388  1.217  0.092 -0.159 -0.255 -0.285 -0.285
 0.390  1.218  0.094 -0.157 -0.253 -0.284 -0.284
 0.392  1.220  0.096 -0.156 -0.252 -0.284 -0.284
 0.394  1.222  0.098 -0.154 -0.251 -0.282 -0.282
 0.396  1.224  0.100 -0.153 -0.250 -0.282 -0.282
 0.398  1.225  0.102 -0.151 -0.249 -0.281 -0.281
 0.400  1.227  0.104 -0.150 -0.248 -0.280 -0.280
 0.402  1.229  0.106 -0.148 -0.247 -0.279 -0.279
 0.404  1.231  0.108 -0.147 -0.246 -0.278 -0.278
 0.406  1.233  0.109 -0.145 -0.244 -0.277 -0.277
 0.408  1.234  0.112 -0.144 -0.243 -0.276 -0.276
 0.410  1.236  0.113 -0.143 -0.243 -0.275 -0.275
 0.412  1.238  0.114 -0.141 -0.241 -0.274 -0.274
 0.414  1.240  0.117 -0.140 -0.240 -0.273 -0.273
 0.416  1.242  0.118 -0.138 -0.239 -0.272 -0.272
 0.418  1.244  0.120 -0.137 -0.238 -0.271 -0.271
 0.420  1.245  0.122 -0.136 -0.237 -0.270 -0.270
 0.422  1.248  0.123 -0.134 -0.236 -0.269 -0.269
 0.424  1.250  0.125 -0.133 -0.235 -0.267 -0.267
 0.426  1.251  0.127 -0.132 -0.234 -0.267 -0.267
 0.428  1.253  0.128 -0.130 -0.233 -0.266 -0.266
 0.430  1.255  0.130 -0.129 -0.232 -0.264 -0.264
 0.432  1.257  0.131 -0.128 -0.231 -0.263 -0.263
 0.434  1.259  0.132 -0.127 -0.230 -0.262 -0.262
 0.436  1.261  0.134 -0.125 -0.230 -0.261 -0.261
 0.438  1.263  0.135 -0.124 -0.228 -0.260 -0.260
 0.440  1.264  0.137 -0.123 -0.228 -0.258 -0.258
 0.442  1.267  0.138 -0.122 -0.227 -0.257 -0.257
 0.444  1.269  0.140 -0.120 -0.226 -0.256 -0.256
 0.446  1.270  0.141 -0.119 -0.225 -0.255 -0.255
 0.448  1.272  0.142 -0.118 -0.224 -0.254 -0.254
 0.450  1.274  0.144 -0.117 -0.223 -0.253 -0.253
 0.452  1.276  0.145 -0.116 -0.222 -0.251 -0.251
 0.454  1.277  0.147 -0.115 -0.221 -0.250 -0.250
 0.456  1.279  0.148 -0.114 -0.221 -0.249 -0.249
 0.458  1.281  0.150 -0.113 -0.220 -0.248 -0.248
 0.460  1.282  0.151 -0.112 -0.219 -0.247 -0.247
 0.462  1.284  0.152 -0.111 -0.218 -0.246 -0.246
 0.464  1.286  0.154 -0.110 -0.217 -0.245 -0.245
 0.466  1.287  0.155 -0.108 -0.216 -0.243 -0.243
 0.468  1.288  0.156 -0.107 -0.216 -0.242 -0.242
 0.470  1.290  0.157 -0.106 -0.215 -0.241 -0.241
 0.472  1.291  0.159 -0.105 -0.214 -0.240 -0.240
 0.474  1.293  0.160 -0.104 -0.213 -0.239 -0.239
 0.476  1.294  0.162 -0.103 -0.212 -0.238 -0.238
 0.478  1.295  0.163 -0.103 -0.212 -0.237 -0.237
 0.480  1.297  0.164 -0.102 -0.211 -0.236 -0.236
 0.482  1.298  0.165 -0.101 -0.210 -0.236 -0.236
 0.484  1.299  0.167 -0.100 -0.209 -0.234 -0.234
 0.486  1.300  0.168 -0.099 -0.209 -0.234 -0.234
 0.488  1.302  0.169 -0.098 -0.208 -0.233 -0.233
 0.490  1.302  0.170 -0.098 -0.207 -0.232 -0.232
 0.492  1.304  0.171 -0.097 -0.207 -0.231 -0.231
 0.494  1.305  0.173 -0.096 -0.206 -0.230 -0.230
 0.496  1.306  0.173 -0.095 -0.205 -0.230 -0.230
 0.498  1.307  0.175 -0.095 -0.204 -0.229 -0.229
 0.500  1.308  0.176 -0.094 -0.203 -0.228 -0.228
 0.502  1.309  0.177 -0.093 -0.203 -0.227 -0.227
 0.504  1.310  0.178 -0.093 -0.202 -0.227 -0.227
 0.506  1.310  0.179 -0.092 -0.202 -0.226 -0.226
 0.508  1.312  0.180 -0.091 -0.201 -0.225 -0.225
 0.510  1.312  0.181 -0.091 -0.200 -0.224 -0.224
 0.512  1.313  0.182 -0.090 -0.200 -0.224 -0.224
 0.514  1.314  0.183 -0.090 -0.199 -0.223 -0.223
 0.516  1.314  0.184 -0.089 -0.198 -0.223 -0.223
 0.518  1.315  0.185 -0.088 -0.198 -0.222 -0.222
 0.520  1.316  0.185 -0.088 -0.197 -0.221 -0.221
 0.522  1.317  0.186 -0.087 -0.196 -0.221 -0.221
 0.524  1.317  0.187 -0.087 -0.196 -0.221 -0.221
 0.526  1.318  0.188 -0.086 -0.195 -0.220 -0.220
 0.528  1.319  0.188 -0.085 -0.194 -0.219 -0.219
 0.530  1.319  0.189 -0.085 -0.194 -0.219 -0.219
 0.532  1.320  0.190 -0.084 -0.193 -0.218 -0.218
 0.534  1.321  0.190 -0.084 -0.192 -0.218 -0.218
 0.536  1.321  0.191 -0.083 -0.192 -0.217 -0.217
 0.538  1.322  0.192 -0.083 -0.191 -0.216 -0.216
 0.540  1.322  0.192 -0.082 -0.190 -0.216 -0.216
 0.542  1.323  0.193 -0.081 -0.190 -0.216 -0.216
 0.544  1.324  0.193 -0.081 -0.189 -0.215 -0.215
 0.546  1.324  0.193 -0.080 -0.188 -0.215 -0.215
 0.548  1.324  0.194 -0.080 -0.188 -0.214 -0.214
 0.550  1.325  0.194 -0.079 -0.187 -0.214 -0.214
 0.552  1.326  0.195 -0.079 -0.187 -0.213 -0.213
 0.554  1.326  0.195 -0.078 -0.186 -0.212 -0.212
 0.556  1.326  0.195 -0.078 -0.185 -0.212 -0.212
 0.558  1.327  0.196 -0.077 -0.185 -0.211 -0.211
 0.560  1.327  0.196 -0.077 -0.184 -0.211 -0.211
 0.562  1.328  0.196 -0.076 -0.184 -0.210 -0.210
 0.564  1.329  0.196 -0.076 -0.183 -0.209 -0.209
 0.566  1.329  0.196 -0.075 -0.182 -0.209 -0.209
 0.568  1.329  0.196 -0.075 -0.182 -0.208 -0.208
 0.570  1.329  0.196 -0.074 -0.181 -0.208 -0.208
 0.572  1.330  0.196 -0.074 -0.180 -0.207 -0.207
 0.574  1.330  0.196 -0.073 -0.180 -0.207 -0.207
 0.576  1.331  0.196 -0.073 -0.179 -0.206 -0.206
 0.578  1.331  0.196 -0.072 -0.178 -0.206 -0.206
 0.580  1.331  0.196 -0.072 -0.178 -0.205 -0.205
 0.582  1.331  0.196 -0.071 -0.177 -0.205 -0.205
 0.584  1.331  0.196 -0.071 -0.177 -0.204 -0.204
 0.586  1.332  0.196 -0.070 -0.176 -0.203 -0.203
 0.588  1.332  0.196 -0.070 -0.175 -0.203 -0.203
 0.590  1.332  0.196 -0.069 -0.174 -0.202 -0.202
 0.592  1.333  0.196 -0.069 -0.173 -0.202 -0.202
 0.594  1.333  0.196 -0.068 -0.173 -0.201 -0.201
 0.596  1.333  0.196 -0.067 -0.172 -0.200 -0.200
 0.598  1.333  0.197 -0.067 -0.171 -0.200 -0.200
 0.600  1.333  0.197 -0.066 -0.171 -0.199 -0.199
 0.602  1.334  0.197 -0.066 -0.170 -0.199 -0.199
 0.604  1.334  0.197 -0.065 -0.169 -0.198 -0.198
 0.606  1.335  0.198 -0.065 -0.168 -0.197 -0.197
 0.608  1.335  0.198 -0.064 -0.167 -0.197 -0.197
 0.610  1.335  0.198 -0.064 -0.166 -0.196 -0.196
 0.612  1.336  0.198 -0.063 -0.166 -0.196 -0.196
 0.614  1.336  0.198 -0.062 -0.165 -0.195 -0.195
 0.616  1.336  0.198 -0.062 -0.164 -0.194 -0.194
 0.618  1.336  0.198 -0.061 -0.163 -0.193 -0.193
 0.620  1.337  0.199 -0.060 -0.162 -0.193 -0.193
 0.622  1.337  0.199 -0.060 -0.161 -0.192 -0.192
 0.624  1.338  0.199 -0.059 -0.160 -0.191 -0.191
 0.626  1.338  0.200 -0.059 -0.159 -0.191 -0.191
 0.628  1.338  0.200 -0.058 -0.159 -0.190 -0.190
 0.630  1.338  0.200 -0.057 -0.157 -0.189 -0.189
 0.632  1.338  0.201 -0.057 -0.157 -0.188 -0.188
 0.634  1.339  0.201 -0.056 -0.155 -0.188 -0.188
 0.636  1.339  0.201 -0.055 -0.155 -0.187 -0.187
 0.638  1.340  0.201 -0.055 -0.153 -0.186 -0.186
 0.640  1.340  0.201 -0.054 -0.153 -0.185 -0.185
 0.642  1.340  0.202 -0.053 -0.152 -0.184 -0.184
 0.644  1.340  0.202 -0.053 -0.150 -0.184 -0.184
 0.646  1.341  0.203 -0.052 -0.150 -0.183 -0.183
 0.648  1.341  0.203 -0.051 -0.148 -0.182 -0.182
 0.650  1.341  0.203 -0.051 -0.147 -0.181 -0.181
 0.652  1.342  0.204 -0.050 -0.146 -0.180 -0.180
 0.654  1.342  0.205 -0.049 -0.145 -0.179 -0.179
 0.656  1.343  0.206 -0.048 -0.144 -0.178 -0.178
 0.658  1.343  0.206 -0.047 -0.143 -0.178 -0.178
 0.660  1.343  0.206 -0.046 -0.142 -0.176 -0.176
 0.662  1.344  0.207 -0.045 -0.140 -0.176 -0.176
 0.664  1.344  0.208 -0.044 -0.139 -0.175 -0.175
 0.666  1.345  0.209 -0.043 -0.138 -0.174 -0.174
 0.668  1.345  0.210 -0.042 -0.137 -0.173 -0.173
 0.670  1.345  0.211 -0.041 -0.136 -0.172 -0.172
 0.672  1.345  0.211 -0.040 -0.134 -0.171 -0.171
 0.674  1.346  0.212 -0.039 -0.133 -0.170 -0.170
 0.676  1.347  0.213 -0.038 -0.132 -0.169 -0.169
 0.678  1.347  0.214 -0.036 -0.130 -0.167 -0.167
 0.680  1.348  0.216 -0.035 -0.129 -0.166 -0.166
 0.682  1.348  0.216 -0.034 -0.128 -0.165 -0.165
 0.684  1.348  0.218 -0.032 -0.127 -0.164 -0.164
 0.686  1.349  0.218 -0.031 -0.125 -0.162 -0.162
 0.688  1.350  0.220 -0.029 -0.124 -0.161 -0.161
 0.690  1.350  0.221 -0.028 -0.122 -0.160 -0.160
 0.692  1.350  0.223 -0.026 -0.121 -0.158 -0.158
 0.694  1.351  0.223 -0.024 -0.119 -0.157 -0.157
 0.696  1.351  0.225 -0.023 -0.118 -0.155 -0.155
 0.698  1.352  0.226 -0.020 -0.116 -0.154 -0.154
 0.700  1.352  0.228 -0.019 -0.115 -0.152 -0.152
 0.702  1.353  0.230 -0.017 -0.113 -0.151 -0.151
 0.704  1.354  0.231 -0.015 -0.112 -0.149 -0.149
 0.706  1.354  0.233 -0.013 -0.110 -0.148 -0.148
 0.708  1.355  0.234 -0.011 -0.109 -0.146 -0.146
 0.710  1.355  0.236 -0.009 -0.107 -0.144 -0.144
 0.712  1.356  0.238 -0.007 -0.106 -0.143 -0.143
 0.714  1.357  0.239 -0.005 -0.104 -0.141 -0.141
 0.716  1.357  0.241 -0.003 -0.103 -0.139 -0.139
 0.718  1.357  0.243 -0.001 -0.101 -0.137 -0.137
 0.720  1.358  0.244  0.001 -0.100 -0.135 -0.135
 0.722  1.359  0.246  0.003 -0.098 -0.133 -0.133
 0.724  1.359  0.248  0.006 -0.097 -0.131 -0.131
 0.726  1.360  0.249  0.008 -0.095 -0.129 -0.129
 0.728  1.361  0.251  0.010 -0.094 -0.127 -0.127
 0.730  1.362  0.253  0.011 -0.093 -0.125 -0.125
 0.732  1.363  0.254  0.013 -0.091 -0.123 -0.123
 0.734  1.364  0.256  0.015 -0.090 -0.121 -0.121
 0.736  1.364  0.258  0.017 -0.089 -0.119 -0.119
 0.738  1.366  0.259  0.018 -0.087 -0.117 -0.117
 0.740  1.367  0.261  0.020 -0.086 -0.115 -0.115
 0.742  1.368  0.262  0.021 -0.085 -0.113 -0.113
 0.744  1.369  0.264  0.022 -0.084 -0.111 -0.111
 0.746  1.371  0.266  0.023 -0.083 -0.109 -0.109
 0.748  1.372  0.267  0.025 -0.082 -0.107 -0.107
 0.750  1.374  0.269  0.026 -0.082 -0.106 -0.106
 0.752  1.375  0.270  0.026 -0.080 -0.104 -0.104
 0.754  1.376  0.272  0.027 -0.080 -0.103 -0.103
 0.756  1.378  0.273  0.028 -0.079 -0.101 -0.101
 0.758  1.379  0.274  0.029 -0.078 -0.100 -0.100
 0.760  1.381  0.275  0.029 -0.078 -0.099 -0.099
 0.762  1.383  0.277  0.030 -0.077 -0.098 -0.098
 0.764  1.385  0.278  0.030 -0.077 -0.097 -0.097
 0.766  1.387  0.279  0.031 -0.076 -0.096 -0.096
 0.768  1.388  0.281  0.031 -0.075 -0.095 -0.095
 0.770  1.390  0.282  0.031 -0.075 -0.094 -0.094
 0.772  1.393  0.284  0.031 -0.074 -0.094 -0.094
 0.774  1.395  0.285  0.031 -0.074 -0.093 -0.093
 0.776  1.397  0.287  0.031 -0.073 -0.092 -0.092
 0.778  1.400  0.288  0.031 -0.073 -0.092 -0.092
 0.780  1.402  0.289  0.031 -0.072 -0.092 -0.092
 0.782  1.405  0.291  0.031 -0.072 -0.091 -0.091
 0.784  1.407  0.292  0.030 -0.072 -0.091 -0.091
 0.786  1.410  0.293  0.030 -0.072 -0.091 -0.091
 0.788  1.412  0.294  0.029 -0.072 -0.091 -0.091
 0.790  1.415  0.294  0.028 -0.072 -0.091 -0.091
 0.792  1.418  0.294  0.028 -0.073 -0.091 -0.091
 0.794  1.420  0.294  0.027 -0.073 -0.091 -0.091
 0.796  1.423  0.294  0.025 -0.074 -0.091 -0.091
 0.798  1.425  0.293  0.024 -0.075 -0.092 -0.092
 0.800  1.427  0.292  0.022 -0.076 -0.092 -0.092
 0.802  1.429  0.290  0.021 -0.077 -0.093 -0.093
 0.804  1.431  0.289  0.019 -0.079 -0.094 -0.094
 0.806  1.432  0.287  0.016 -0.081 -0.094 -0.094
 0.808  1.433  0.284  0.014 -0.083 -0.095 -0.095
