# IsPeriodic    : True
# Period        : 0.552133 days
# Normalization : <g_mag>=0
# 
# Phase u_mag  g_mag  r_mag  i_mag  z_mag  y_mag
 0.000  0.330 -0.816 -0.684 -0.586 -0.511 -0.511
 0.002  0.330 -0.816 -0.684 -0.586 -0.510 -0.510
 0.004  0.330 -0.816 -0.683 -0.585 -0.510 -0.510
 0.006  0.331 -0.815 -0.682 -0.585 -0.508 -0.508
 0.008  0.332 -0.813 -0.681 -0.583 -0.506 -0.506
 0.010  0.335 -0.812 -0.680 -0.582 -0.503 -0.503
 0.012  0.336 -0.811 -0.678 -0.580 -0.501 -0.501
 0.014  0.339 -0.810 -0.676 -0.578 -0.498 -0.498
 0.016  0.341 -0.807 -0.673 -0.575 -0.495 -0.495
 0.018  0.345 -0.805 -0.671 -0.572 -0.492 -0.492
 0.020  0.349 -0.802 -0.668 -0.570 -0.488 -0.488
 0.022  0.351 -0.800 -0.666 -0.567 -0.485 -0.485
 0.024  0.355 -0.796 -0.664 -0.565 -0.481 -0.481
 0.026  0.360 -0.794 -0.661 -0.562 -0.478 -0.478
 0.028  0.364 -0.790 -0.657 -0.559 -0.474 -0.474
 0.030  0.368 -0.785 -0.654 -0.556 -0.471 -0.471
 0.032  0.373 -0.781 -0.651 -0.553 -0.468 -0.468
 0.034  0.378 -0.776 -0.649 -0.551 -0.465 -0.465
 0.036  0.383 -0.771 -0.645 -0.548 -0.462 -0.462
 0.038  0.388 -0.766 -0.641 -0.545 -0.460 -0.460
 0.040  0.393 -0.761 -0.637 -0.543 -0.456 -0.456
 0.042  0.399 -0.755 -0.633 -0.540 -0.453 -0.453
 0.044  0.405 -0.749 -0.630 -0.537 -0.451 -0.451
 0.046  0.411 -0.742 -0.626 -0.534 -0.448 -0.448
 0.048  0.418 -0.736 -0.622 -0.531 -0.445 -0.445
 0.050  0.424 -0.729 -0.617 -0.528 -0.442 -0.442
 0.052  0.432 -0.721 -0.613 -0.524 -0.439 -0.439
 0.054  0.439 -0.714 -0.608 -0.521 -0.437 -0.437
 0.056  0.447 -0.705 -0.603 -0.517 -0.433 -0.433
 0.058  0.454 -0.697 -0.599 -0.513 -0.430 -0.430
 0.060  0.462 -0.689 -0.593 -0.509 -0.428 -0.428
 0.062  0.470 -0.680 -0.588 -0.506 -0.425 -0.425
 0.064  0.479 -0.671 -0.582 -0.502 -0.422 -0.422
 0.066  0.487 -0.662 -0.577 -0.498 -0.419 -0.419
 0.068  0.497 -0.652 -0.571 -0.494 -0.416 -0.416
 0.070  0.506 -0.644 -0.566 -0.490 -0.414 -0.414
 0.072  0.514 -0.634 -0.560 -0.487 -0.411 -0.411
 0.074  0.524 -0.625 -0.554 -0.483 -0.408 -0.408
 0.076  0.533 -0.615 -0.549 -0.478 -0.406 -0.406
 0.078  0.543 -0.605 -0.543 -0.474 -0.403 -0.403
 0.080  0.552 -0.596 -0.536 -0.471 -0.401 -0.401
 0.082  0.562 -0.586 -0.531 -0.467 -0.398 -0.398
 0.084  0.571 -0.578 -0.525 -0.462 -0.396 -0.396
 0.086  0.580 -0.569 -0.519 -0.458 -0.393 -0.393
 0.088  0.588 -0.560 -0.514 -0.455 -0.391 -0.391
 0.090  0.597 -0.551 -0.509 -0.451 -0.389 -0.389
 0.092  0.606 -0.544 -0.503 -0.447 -0.386 -0.386
 0.094  0.615 -0.535 -0.499 -0.443 -0.383 -0.383
 0.096  0.622 -0.528 -0.493 -0.440 -0.381 -0.381
 0.098  0.631 -0.520 -0.488 -0.436 -0.378 -0.378
 0.100  0.639 -0.513 -0.483 -0.433 -0.376 -0.376
 0.102  0.646 -0.505 -0.479 -0.430 -0.374 -0.374
 0.104  0.654 -0.498 -0.474 -0.426 -0.372 -0.372
 0.106  0.661 -0.490 -0.469 -0.423 -0.369 -0.369
 0.108  0.669 -0.484 -0.465 -0.419 -0.367 -0.367
 0.110  0.676 -0.476 -0.460 -0.416 -0.365 -0.365
 0.112  0.684 -0.470 -0.455 -0.413 -0.362 -0.362
 0.114  0.690 -0.464 -0.450 -0.410 -0.360 -0.360
 0.116  0.698 -0.456 -0.447 -0.407 -0.358 -0.358
 0.118  0.704 -0.450 -0.442 -0.404 -0.356 -0.356
 0.120  0.711 -0.444 -0.438 -0.401 -0.354 -0.354
 0.122  0.718 -0.438 -0.434 -0.398 -0.352 -0.352
 0.124  0.724 -0.433 -0.430 -0.395 -0.349 -0.349
 0.126  0.730 -0.426 -0.426 -0.392 -0.347 -0.347
 0.128  0.736 -0.421 -0.422 -0.389 -0.345 -0.345
 0.130  0.743 -0.416 -0.418 -0.387 -0.343 -0.343
 0.132  0.748 -0.412 -0.416 -0.384 -0.341 -0.341
 0.134  0.754 -0.407 -0.412 -0.382 -0.340 -0.340
 0.136  0.759 -0.402 -0.408 -0.379 -0.338 -0.338
 0.138  0.765 -0.397 -0.405 -0.376 -0.336 -0.336
 0.140  0.770 -0.393 -0.401 -0.374 -0.334 -0.334
 0.142  0.775 -0.388 -0.399 -0.372 -0.332 -0.332
 0.144  0.780 -0.383 -0.396 -0.369 -0.330 -0.330
 0.146  0.785 -0.379 -0.392 -0.367 -0.328 -0.328
 0.148  0.790 -0.374 -0.389 -0.365 -0.326 -0.326
 0.150  0.795 -0.370 -0.386 -0.363 -0.324 -0.324
 0.152  0.800 -0.365 -0.383 -0.361 -0.323 -0.323
 0.154  0.805 -0.362 -0.380 -0.359 -0.321 -0.321
 0.156  0.810 -0.357 -0.377 -0.357 -0.319 -0.319
 0.158  0.815 -0.352 -0.374 -0.354 -0.318 -0.318
 0.160  0.820 -0.348 -0.370 -0.352 -0.316 -0.316
 0.162  0.824 -0.343 -0.367 -0.350 -0.314 -0.314
 0.164  0.829 -0.338 -0.365 -0.348 -0.312 -0.312
 0.166  0.834 -0.334 -0.362 -0.346 -0.310 -0.310
 0.168  0.839 -0.329 -0.358 -0.344 -0.309 -0.309
 0.170  0.844 -0.324 -0.355 -0.342 -0.307 -0.307
 0.172  0.849 -0.319 -0.352 -0.340 -0.306 -0.306
 0.174  0.854 -0.314 -0.350 -0.338 -0.303 -0.303
 0.176  0.858 -0.310 -0.346 -0.335 -0.301 -0.301
 0.178  0.863 -0.305 -0.343 -0.333 -0.300 -0.300
 0.180  0.868 -0.300 -0.340 -0.331 -0.298 -0.298
 0.182  0.873 -0.295 -0.336 -0.328 -0.296 -0.296
 0.184  0.878 -0.290 -0.334 -0.326 -0.295 -0.295
 0.186  0.883 -0.285 -0.331 -0.325 -0.293 -0.293
 0.188  0.888 -0.280 -0.327 -0.322 -0.291 -0.291
 0.190  0.892 -0.275 -0.324 -0.320 -0.289 -0.289
 0.192  0.897 -0.270 -0.321 -0.318 -0.287 -0.287
 0.194  0.902 -0.265 -0.318 -0.316 -0.285 -0.285
 0.196  0.907 -0.260 -0.315 -0.313 -0.284 -0.284
 0.198  0.912 -0.255 -0.311 -0.311 -0.282 -0.282
 0.200  0.917 -0.250 -0.308 -0.309 -0.280 -0.280
 0.202  0.921 -0.245 -0.305 -0.306 -0.279 -0.279
 0.204  0.926 -0.240 -0.301 -0.304 -0.276 -0.276
 0.206  0.931 -0.235 -0.299 -0.303 -0.274 -0.274
 0.208  0.936 -0.230 -0.296 -0.300 -0.273 -0.273
 0.210  0.940 -0.225 -0.292 -0.298 -0.271 -0.271
 0.212  0.945 -0.220 -0.289 -0.296 -0.269 -0.269
 0.214  0.950 -0.214 -0.285 -0.293 -0.268 -0.268
 0.216  0.955 -0.209 -0.283 -0.291 -0.266 -0.266
 0.218  0.960 -0.204 -0.280 -0.289 -0.264 -0.264
 0.220  0.963 -0.199 -0.276 -0.287 -0.262 -0.262
 0.222  0.969 -0.194 -0.273 -0.284 -0.260 -0.260
 0.224  0.974 -0.189 -0.269 -0.282 -0.258 -0.258
 0.226  0.977 -0.184 -0.267 -0.280 -0.256 -0.256
 0.228  0.982 -0.179 -0.264 -0.278 -0.254 -0.254
 0.230  0.987 -0.174 -0.261 -0.275 -0.253 -0.253
 0.232  0.991 -0.169 -0.257 -0.273 -0.251 -0.251
 0.234  0.996 -0.164 -0.254 -0.271 -0.249 -0.249
 0.236  1.000 -0.159 -0.251 -0.268 -0.247 -0.247
 0.238  1.005 -0.156 -0.249 -0.267 -0.245 -0.245
 0.240  1.009 -0.151 -0.246 -0.265 -0.243 -0.243
 0.242  1.014 -0.146 -0.242 -0.262 -0.242 -0.242
 0.244  1.017 -0.142 -0.239 -0.260 -0.240 -0.240
 0.246  1.021 -0.137 -0.236 -0.258 -0.239 -0.239
 0.248  1.026 -0.132 -0.234 -0.256 -0.237 -0.237
 0.250  1.030 -0.128 -0.231 -0.254 -0.235 -0.235
 0.252  1.034 -0.123 -0.228 -0.252 -0.233 -0.233
 0.254  1.039 -0.119 -0.225 -0.249 -0.232 -0.232
 0.256  1.043 -0.114 -0.222 -0.248 -0.230 -0.230
 0.258  1.046 -0.111 -0.219 -0.246 -0.229 -0.229
 0.260  1.050 -0.106 -0.217 -0.243 -0.226 -0.226
 0.262  1.054 -0.102 -0.214 -0.242 -0.225 -0.225
 0.264  1.059 -0.097 -0.211 -0.240 -0.223 -0.223
 0.266  1.063 -0.093 -0.208 -0.237 -0.222 -0.222
 0.268  1.066 -0.089 -0.206 -0.236 -0.220 -0.220
 0.270  1.070 -0.086 -0.203 -0.233 -0.218 -0.218
 0.272  1.074 -0.081 -0.201 -0.231 -0.217 -0.217
 0.274  1.078 -0.077 -0.198 -0.230 -0.216 -0.216
 0.276  1.081 -0.073 -0.196 -0.227 -0.214 -0.214
 0.278  1.085 -0.069 -0.193 -0.226 -0.212 -0.212
 0.280  1.089 -0.066 -0.190 -0.224 -0.211 -0.211
 0.282  1.093 -0.062 -0.187 -0.222 -0.210 -0.210
 0.284  1.095 -0.058 -0.185 -0.220 -0.208 -0.208
 0.286  1.099 -0.054 -0.183 -0.218 -0.206 -0.206
 0.288  1.103 -0.051 -0.180 -0.216 -0.205 -0.205
 0.290  1.107 -0.047 -0.178 -0.214 -0.204 -0.204
 0.292  1.110 -0.043 -0.175 -0.212 -0.202 -0.202
 0.294  1.114 -0.038 -0.173 -0.211 -0.201 -0.201
 0.296  1.117 -0.034 -0.170 -0.208 -0.199 -0.199
 0.298  1.120 -0.031 -0.168 -0.207 -0.198 -0.198
 0.300  1.124 -0.027 -0.166 -0.205 -0.197 -0.197
 0.302  1.128 -0.023 -0.163 -0.203 -0.195 -0.195
 0.304  1.130 -0.020 -0.161 -0.202 -0.194 -0.194
 0.306  1.134 -0.016 -0.158 -0.199 -0.193 -0.193
 0.308  1.138 -0.012 -0.155 -0.198 -0.191 -0.191
 0.310  1.142 -0.008 -0.153 -0.195 -0.189 -0.189
 0.312  1.144 -0.005 -0.151 -0.194 -0.188 -0.188
 0.314  1.148 -0.001 -0.149 -0.192 -0.187 -0.187
 0.316  1.152  0.003 -0.146 -0.190 -0.185 -0.185
 0.318  1.155  0.007 -0.143 -0.188 -0.184 -0.184
 0.320  1.158  0.010 -0.141 -0.186 -0.183 -0.183
 0.322  1.162  0.014 -0.138 -0.185 -0.181 -0.181
 0.324  1.165  0.018 -0.136 -0.183 -0.180 -0.180
 0.326  1.168  0.022 -0.134 -0.181 -0.178 -0.178
 0.328  1.172  0.025 -0.131 -0.179 -0.177 -0.177
 0.330  1.176  0.029 -0.129 -0.177 -0.175 -0.175
 0.332  1.179  0.033 -0.126 -0.175 -0.174 -0.174
 0.334  1.182  0.037 -0.124 -0.173 -0.172 -0.172
 0.336  1.186  0.040 -0.121 -0.171 -0.170 -0.170
 0.338  1.189  0.044 -0.119 -0.170 -0.169 -0.169
 0.340  1.192  0.048 -0.117 -0.167 -0.168 -0.168
 0.342  1.196  0.052 -0.114 -0.166 -0.166 -0.166
 0.344  1.198  0.055 -0.112 -0.164 -0.165 -0.165
 0.346  1.202  0.059 -0.109 -0.162 -0.163 -0.163
 0.348  1.206  0.063 -0.106 -0.160 -0.162 -0.162
 0.350  1.208  0.067 -0.104 -0.158 -0.160 -0.160
 0.352  1.212  0.070 -0.102 -0.156 -0.159 -0.159
 0.354  1.216  0.074 -0.100 -0.154 -0.157 -0.157
 0.356  1.218  0.078 -0.097 -0.152 -0.156 -0.156
 0.358  1.222  0.082 -0.094 -0.151 -0.154 -0.154
 0.360  1.224  0.085 -0.092 -0.148 -0.152 -0.152
 0.362  1.228  0.089 -0.089 -0.147 -0.151 -0.151
 0.364  1.232  0.093 -0.087 -0.145 -0.149 -0.149
 0.366  1.234  0.097 -0.085 -0.143 -0.147 -0.147
 0.368  1.238  0.100 -0.082 -0.141 -0.146 -0.146
 0.370  1.241  0.104 -0.080 -0.139 -0.145 -0.145
 0.372  1.245  0.108 -0.077 -0.137 -0.143 -0.143
 0.374  1.247  0.112 -0.075 -0.135 -0.141 -0.141
 0.376  1.251  0.115 -0.072 -0.134 -0.140 -0.140
 0.378  1.253  0.118 -0.069 -0.132 -0.138 -0.138
 0.380  1.257  0.122 -0.068 -0.130 -0.137 -0.137
 0.382  1.260  0.125 -0.065 -0.128 -0.135 -0.135
 0.384  1.263  0.129 -0.063 -0.126 -0.133 -0.133
 0.386  1.266  0.133 -0.060 -0.124 -0.132 -0.132
 0.388  1.270  0.137 -0.058 -0.122 -0.130 -0.130
 0.390  1.272  0.139 -0.055 -0.120 -0.129 -0.129
 0.392  1.276  0.143 -0.053 -0.119 -0.127 -0.127
 0.394  1.278  0.147 -0.051 -0.116 -0.125 -0.125
 0.396  1.282  0.150 -0.048 -0.115 -0.123 -0.123
 0.398  1.285  0.153 -0.046 -0.113 -0.122 -0.122
 0.400  1.288  0.157 -0.043 -0.111 -0.120 -0.120
 0.402  1.291  0.160 -0.041 -0.110 -0.118 -0.118
 0.404  1.295  0.164 -0.038 -0.107 -0.117 -0.117
 0.406  1.297  0.167 -0.036 -0.106 -0.115 -0.115
 0.408  1.300  0.170 -0.034 -0.103 -0.114 -0.114
 0.410  1.303  0.174 -0.032 -0.102 -0.112 -0.112
 0.412  1.306  0.176 -0.029 -0.100 -0.110 -0.110
 0.414  1.308  0.180 -0.027 -0.098 -0.108 -0.108
 0.416  1.312  0.183 -0.024 -0.097 -0.107 -0.107
 0.418  1.315  0.186 -0.022 -0.094 -0.105 -0.105
 0.420  1.319  0.190 -0.020 -0.093 -0.104 -0.104
 0.422  1.321  0.193 -0.018 -0.091 -0.102 -0.102
 0.424  1.324  0.196 -0.015 -0.089 -0.100 -0.100
 0.426  1.327  0.199 -0.013 -0.088 -0.098 -0.098
 0.428  1.330  0.203 -0.010 -0.086 -0.096 -0.096
 0.430  1.332  0.205 -0.008 -0.084 -0.095 -0.095
 0.432  1.335  0.209 -0.005 -0.082 -0.093 -0.093
 0.434  1.339  0.211 -0.003 -0.080 -0.091 -0.091
 0.436  1.341  0.215 -0.001 -0.078 -0.089 -0.089
 0.438  1.344  0.218  0.001 -0.077 -0.087 -0.087
 0.440  1.346  0.221  0.004 -0.075 -0.086 -0.086
 0.442  1.350  0.224  0.006 -0.073 -0.084 -0.084
 0.444  1.352  0.226  0.008 -0.072 -0.083 -0.083
 0.446  1.355  0.229  0.011 -0.069 -0.081 -0.081
 0.448  1.357  0.233  0.013 -0.068 -0.079 -0.079
 0.450  1.360  0.235  0.015 -0.066 -0.077 -0.077
 0.452  1.362  0.238  0.017 -0.065 -0.075 -0.075
 0.454  1.365  0.240  0.019 -0.062 -0.074 -0.074
 0.456  1.367  0.244  0.021 -0.061 -0.072 -0.072
 0.458  1.370  0.246  0.024 -0.059 -0.070 -0.070
 0.460  1.372  0.249  0.026 -0.057 -0.069 -0.069
 0.462  1.375  0.251  0.028 -0.056 -0.068 -0.068
 0.464  1.377  0.254  0.030 -0.054 -0.066 -0.066
 0.466  1.380  0.256  0.031 -0.053 -0.064 -0.064
 0.468  1.383  0.259  0.034 -0.051 -0.063 -0.063
 0.470  1.385  0.261  0.036 -0.049 -0.062 -0.062
 0.472  1.388  0.264  0.038 -0.047 -0.060 -0.060
 0.474  1.390  0.265  0.040 -0.046 -0.058 -0.058
 0.476  1.393  0.268  0.042 -0.044 -0.057 -0.057
 0.478  1.394  0.270  0.044 -0.043 -0.056 -0.056
 0.480  1.396  0.273  0.046 -0.040 -0.054 -0.054
 0.482  1.399  0.275  0.047 -0.039 -0.053 -0.053
 0.484  1.401  0.278  0.049 -0.037 -0.052 -0.052
 0.486  1.403  0.279  0.051 -0.036 -0.050 -0.050
 0.488  1.405  0.281  0.053 -0.034 -0.049 -0.049
 0.490  1.408  0.284  0.055 -0.033 -0.048 -0.048
 0.492  1.409  0.285  0.057 -0.031 -0.046 -0.046
 0.494  1.411  0.288  0.059 -0.030 -0.045 -0.045
 0.496  1.414  0.289  0.061 -0.027 -0.044 -0.044
 0.498  1.415  0.291  0.063 -0.026 -0.043 -0.043
 0.500  1.418  0.293  0.063 -0.024 -0.041 -0.041
 0.502  1.419  0.295  0.065 -0.023 -0.041 -0.041
 0.504  1.421  0.296  0.067 -0.021 -0.039 -0.039
 0.506  1.423  0.299  0.069 -0.020 -0.038 -0.038
 0.508  1.425  0.300  0.070 -0.018 -0.037 -0.037
 0.510  1.426  0.303  0.072 -0.017 -0.036 -0.036
 0.512  1.429  0.304  0.074 -0.015 -0.035 -0.035
 0.514  1.430  0.305  0.075 -0.014 -0.034 -0.034
 0.516  1.431  0.306  0.077 -0.012 -0.033 -0.033
 0.518  1.433  0.309  0.079 -0.012 -0.032 -0.032
 0.520  1.435  0.310  0.079 -0.010 -0.031 -0.031
 0.522  1.436  0.311  0.081 -0.008 -0.030 -0.030
 0.524  1.438  0.313  0.082 -0.007 -0.029 -0.029
 0.526  1.439  0.314  0.084 -0.006 -0.028 -0.028
 0.528  1.440  0.315  0.085 -0.005 -0.027 -0.027
 0.530  1.441  0.316  0.086 -0.004 -0.026 -0.026
 0.532  1.443  0.318  0.088 -0.002 -0.025 -0.025
 0.534  1.444  0.319  0.089 -0.002 -0.024 -0.024
 0.536  1.445  0.320  0.090 -0.000 -0.023 -0.023
 0.538  1.446  0.321  0.091  0.001 -0.022 -0.022
 0.540  1.448  0.321  0.093  0.002 -0.021 -0.021
 0.542  1.449  0.323  0.094  0.003 -0.020 -0.020
 0.544  1.450  0.324  0.095  0.004 -0.019 -0.019
 0.546  1.452  0.325  0.096  0.005 -0.018 -0.018
 0.548  1.453  0.325  0.096  0.006 -0.017 -0.017
 0.550  1.453  0.326  0.097  0.007 -0.016 -0.016
 0.552  1.454  0.326  0.098  0.007 -0.015 -0.015
 0.554  1.455  0.328  0.099  0.008 -0.014 -0.014
 0.556  1.455  0.329  0.100  0.009 -0.014 -0.014
 0.558  1.457  0.329  0.101  0.010 -0.012 -0.012
 0.560  1.457  0.329  0.102  0.011 -0.012 -0.012
 0.562  1.458  0.330  0.103  0.011 -0.011 -0.011
 0.564  1.458  0.330  0.103  0.012 -0.010 -0.010
 0.566  1.459  0.331  0.104  0.013 -0.009 -0.009
 0.568  1.459  0.331  0.105  0.014 -0.008 -0.008
 0.570  1.460  0.331  0.106  0.014 -0.007 -0.007
 0.572  1.460  0.333  0.106  0.014 -0.006 -0.006
 0.574  1.460  0.333  0.107  0.015 -0.006 -0.006
 0.576  1.462  0.333  0.108  0.016 -0.005 -0.005
 0.578  1.462  0.333  0.108  0.016 -0.004 -0.004
 0.580  1.462  0.333  0.109  0.017 -0.003 -0.003
 0.582  1.462  0.334  0.109  0.017 -0.002 -0.002
 0.584  1.463  0.334  0.110  0.017 -0.002 -0.002
 0.586  1.463  0.334  0.110  0.018 -0.001 -0.001
 0.588  1.463  0.334  0.111  0.018  0.000  0.000
 0.590  1.463  0.334  0.111  0.019  0.001  0.001
 0.592  1.463  0.334  0.112  0.019  0.002  0.002
 0.594  1.464  0.334  0.112  0.020  0.002  0.002
 0.596  1.464  0.334  0.112  0.020  0.003  0.003
 0.598  1.464  0.334  0.113  0.020  0.004  0.004
 0.600  1.464  0.334  0.113  0.020  0.005  0.005
 0.602  1.464  0.334  0.113  0.021  0.006  0.006
 0.604  1.464  0.334  0.113  0.021  0.007  0.007
 0.606  1.464  0.334  0.113  0.022  0.007  0.007
 0.608  1.464  0.334  0.113  0.022  0.008  0.008
 0.610  1.464  0.334  0.113  0.023  0.009  0.009
 0.612  1.464  0.334  0.114  0.023  0.009  0.009
 0.614  1.464  0.334  0.114  0.023  0.010  0.010
 0.616  1.464  0.334  0.114  0.023  0.011  0.011
 0.618  1.464  0.334  0.114  0.024  0.011  0.011
 0.620  1.464  0.334  0.114  0.024  0.012  0.012
 0.622  1.464  0.333  0.114  0.024  0.013  0.013
 0.624  1.464  0.333  0.114  0.025  0.013  0.013
 0.626  1.463  0.333  0.115  0.025  0.014  0.014
 0.628  1.463  0.333  0.115  0.026  0.015  0.015
 0.630  1.463  0.333  0.115  0.026  0.015  0.015
 0.632  1.463  0.331  0.115  0.026  0.016  0.016
 0.634  1.463  0.331  0.115  0.026  0.017  0.017
 0.636  1.462  0.331  0.114  0.026  0.017  0.017
 0.638  1.462  0.331  0.114  0.027  0.018  0.018
 0.640  1.462  0.330  0.114  0.027  0.019  0.019
 0.642  1.462  0.330  0.114  0.027  0.019  0.019
 0.644  1.460  0.330  0.114  0.028  0.019  0.019
 0.646  1.460  0.329  0.114  0.028  0.020  0.020
 0.648  1.460  0.329  0.114  0.028  0.021  0.021
 0.650  1.459  0.328  0.114  0.029  0.021  0.021
 0.652  1.459  0.328  0.113  0.029  0.022  0.022
 0.654  1.459  0.326  0.113  0.029  0.023  0.023
 0.656  1.459  0.326  0.113  0.029  0.023  0.023
 0.658  1.458  0.325  0.113  0.030  0.023  0.023
 0.660  1.458  0.325  0.113  0.030  0.024  0.024
 0.662  1.458  0.324  0.113  0.030  0.025  0.025
 0.664  1.457  0.324  0.113  0.030  0.025  0.025
 0.666  1.457  0.323  0.113  0.030  0.025  0.025
 0.668  1.457  0.323  0.113  0.030  0.026  0.026
 0.670  1.455  0.321  0.112  0.030  0.026  0.026
 0.672  1.455  0.320  0.112  0.031  0.027  0.027
 0.674  1.455  0.320  0.112  0.031  0.027  0.027
 0.676  1.454  0.319  0.111  0.031  0.027  0.027
 0.678  1.454  0.319  0.111  0.031  0.027  0.027
 0.680  1.454  0.318  0.111  0.031  0.028  0.028
 0.682  1.454  0.316  0.110  0.032  0.028  0.028
 0.684  1.453  0.315  0.110  0.032  0.028  0.028
 0.686  1.453  0.315  0.110  0.032  0.029  0.029
 0.688  1.453  0.314  0.109  0.032  0.029  0.029
 0.690  1.452  0.313  0.109  0.032  0.029  0.029
 0.692  1.452  0.311  0.109  0.033  0.029  0.029
 0.694  1.452  0.310  0.108  0.033  0.029  0.029
 0.696  1.450  0.309  0.108  0.033  0.030  0.030
 0.698  1.450  0.308  0.107  0.033  0.030  0.030
 0.700  1.450  0.306  0.107  0.033  0.030  0.030
 0.702  1.449  0.306  0.107  0.033  0.030  0.030
 0.704  1.449  0.305  0.106  0.033  0.031  0.031
 0.706  1.449  0.304  0.106  0.033  0.031  0.031
 0.708  1.449  0.303  0.105  0.033  0.031  0.031
 0.710  1.448  0.301  0.105  0.033  0.031  0.031
 0.712  1.448  0.300  0.104  0.033  0.031  0.031
 0.714  1.448  0.299  0.104  0.033  0.031  0.031
 0.716  1.446  0.298  0.103  0.033  0.030  0.030
 0.718  1.446  0.296  0.103  0.033  0.030  0.030
 0.720  1.446  0.296  0.103  0.034  0.030  0.030
 0.722  1.446  0.295  0.102  0.034  0.030  0.030
 0.724  1.445  0.294  0.102  0.034  0.030  0.030
 0.726  1.445  0.294  0.102  0.034  0.030  0.030
 0.728  1.445  0.294  0.102  0.035  0.030  0.030
 0.730  1.445  0.293  0.102  0.035  0.030  0.030
 0.732  1.444  0.293  0.102  0.035  0.031  0.031
 0.734  1.444  0.293  0.102  0.036  0.032  0.032
 0.736  1.444  0.293  0.102  0.036  0.032  0.032
 0.738  1.444  0.294  0.103  0.036  0.032  0.032
 0.740  1.443  0.294  0.103  0.037  0.034  0.034
 0.742  1.443  0.294  0.104  0.038  0.034  0.034
 0.744  1.443  0.295  0.105  0.039  0.036  0.036
 0.746  1.443  0.296  0.105  0.039  0.037  0.037
 0.748  1.443  0.296  0.106  0.040  0.038  0.038
 0.750  1.443  0.298  0.107  0.041  0.040  0.040
 0.752  1.441  0.299  0.108  0.042  0.042  0.042
 0.754  1.441  0.300  0.109  0.042  0.043  0.043
 0.756  1.441  0.301  0.110  0.043  0.045  0.045
 0.758  1.441  0.304  0.112  0.045  0.048  0.048
 0.760  1.441  0.305  0.113  0.045  0.050  0.050
 0.762  1.441  0.306  0.113  0.047  0.052  0.052
 0.764  1.441  0.309  0.115  0.048  0.055  0.055
 0.766  1.441  0.310  0.116  0.049  0.058  0.058
 0.768  1.441  0.313  0.118  0.050  0.061  0.061
 0.770  1.441  0.315  0.120  0.052  0.064  0.064
 0.772  1.441  0.318  0.122  0.053  0.067  0.067
 0.774  1.441  0.320  0.124  0.055  0.071  0.071
 0.776  1.440  0.323  0.126  0.056  0.075  0.075
 0.778  1.440  0.326  0.128  0.058  0.078  0.078
 0.780  1.440  0.329  0.129  0.059  0.082  0.082
 0.782  1.440  0.331  0.131  0.061  0.086  0.086
 0.784  1.440  0.335  0.134  0.063  0.090  0.090
 0.786  1.440  0.338  0.136  0.064  0.095  0.095
 0.788  1.440  0.341  0.139  0.066  0.099  0.099
 0.790  1.441  0.344  0.141  0.068  0.104  0.104
 0.792  1.441  0.348  0.144  0.070  0.109  0.109
 0.794  1.443  0.350  0.146  0.072  0.114  0.114
 0.796  1.443  0.354  0.148  0.074  0.119  0.119
 0.798  1.444  0.356  0.151  0.076  0.123  0.123
 0.800  1.445  0.360  0.154  0.077  0.128  0.128
 0.802  1.446  0.363  0.156  0.080  0.133  0.133
 0.804  1.448  0.366  0.159  0.082  0.138  0.138
 0.806  1.449  0.369  0.162  0.084  0.142  0.142
 0.808  1.452  0.371  0.164  0.087  0.146  0.146
