# IsPeriodic    : True
# Period        : 0.604476 days
# Normalization : <g_mag>=0
# 
# Phase u_mag  g_mag  r_mag  i_mag  z_mag  y_mag
 0.000  0.851 -0.453 -0.419 -0.375 -0.356 -0.356
 0.002  0.851 -0.453 -0.419 -0.375 -0.356 -0.356
 0.004  0.852 -0.453 -0.419 -0.375 -0.356 -0.356
 0.006  0.853 -0.452 -0.419 -0.375 -0.356 -0.356
 0.008  0.853 -0.452 -0.418 -0.375 -0.356 -0.356
 0.010  0.854 -0.451 -0.418 -0.375 -0.355 -0.355
 0.012  0.855 -0.450 -0.417 -0.374 -0.355 -0.355
 0.014  0.856 -0.450 -0.417 -0.374 -0.355 -0.355
 0.016  0.858 -0.448 -0.416 -0.374 -0.354 -0.354
 0.018  0.859 -0.447 -0.415 -0.373 -0.354 -0.354
 0.020  0.861 -0.445 -0.414 -0.373 -0.353 -0.353
 0.022  0.863 -0.444 -0.413 -0.372 -0.353 -0.353
 0.024  0.865 -0.442 -0.412 -0.371 -0.353 -0.353
 0.026  0.866 -0.441 -0.411 -0.371 -0.352 -0.352
 0.028  0.868 -0.439 -0.410 -0.370 -0.351 -0.351
 0.030  0.870 -0.436 -0.409 -0.369 -0.351 -0.351
 0.032  0.872 -0.434 -0.408 -0.368 -0.351 -0.351
 0.034  0.874 -0.431 -0.407 -0.367 -0.350 -0.350
 0.036  0.876 -0.428 -0.405 -0.366 -0.349 -0.349
 0.038  0.878 -0.425 -0.404 -0.365 -0.349 -0.349
 0.040  0.880 -0.423 -0.402 -0.364 -0.348 -0.348
 0.042  0.882 -0.419 -0.401 -0.363 -0.347 -0.347
 0.044  0.885 -0.416 -0.400 -0.362 -0.347 -0.347
 0.046  0.887 -0.412 -0.398 -0.361 -0.346 -0.346
 0.048  0.889 -0.409 -0.396 -0.360 -0.345 -0.345
 0.050  0.891 -0.405 -0.394 -0.359 -0.344 -0.344
 0.052  0.893 -0.400 -0.393 -0.357 -0.344 -0.344
 0.054  0.896 -0.396 -0.391 -0.356 -0.343 -0.343
 0.056  0.898 -0.391 -0.389 -0.355 -0.342 -0.342
 0.058  0.901 -0.387 -0.387 -0.354 -0.341 -0.341
 0.060  0.903 -0.382 -0.385 -0.353 -0.340 -0.340
 0.062  0.905 -0.378 -0.383 -0.351 -0.340 -0.340
 0.064  0.908 -0.373 -0.380 -0.350 -0.338 -0.338
 0.066  0.911 -0.368 -0.379 -0.349 -0.337 -0.337
 0.068  0.913 -0.362 -0.376 -0.348 -0.337 -0.337
 0.070  0.916 -0.357 -0.374 -0.347 -0.335 -0.335
 0.072  0.919 -0.352 -0.371 -0.345 -0.335 -0.335
 0.074  0.921 -0.347 -0.369 -0.344 -0.333 -0.333
 0.076  0.924 -0.342 -0.366 -0.343 -0.333 -0.333
 0.078  0.927 -0.336 -0.364 -0.342 -0.331 -0.331
 0.080  0.930 -0.331 -0.361 -0.341 -0.331 -0.331
 0.082  0.933 -0.326 -0.359 -0.340 -0.329 -0.329
 0.084  0.936 -0.321 -0.356 -0.339 -0.329 -0.329
 0.086  0.939 -0.316 -0.354 -0.338 -0.327 -0.327
 0.088  0.942 -0.311 -0.351 -0.337 -0.326 -0.326
 0.090  0.945 -0.306 -0.349 -0.336 -0.326 -0.326
 0.092  0.947 -0.302 -0.347 -0.335 -0.324 -0.324
 0.094  0.951 -0.297 -0.345 -0.334 -0.324 -0.324
 0.096  0.953 -0.293 -0.342 -0.333 -0.323 -0.323
 0.098  0.956 -0.289 -0.340 -0.332 -0.322 -0.322
 0.100  0.959 -0.285 -0.338 -0.331 -0.321 -0.321
 0.102  0.962 -0.280 -0.336 -0.330 -0.320 -0.320
 0.104  0.965 -0.276 -0.334 -0.329 -0.319 -0.319
 0.106  0.968 -0.272 -0.332 -0.328 -0.318 -0.318
 0.108  0.971 -0.269 -0.330 -0.327 -0.317 -0.317
 0.110  0.974 -0.265 -0.328 -0.326 -0.316 -0.316
 0.112  0.976 -0.261 -0.327 -0.325 -0.315 -0.315
 0.114  0.979 -0.258 -0.325 -0.325 -0.315 -0.315
 0.116  0.982 -0.253 -0.323 -0.324 -0.314 -0.314
 0.118  0.984 -0.250 -0.321 -0.323 -0.313 -0.313
 0.120  0.987 -0.247 -0.320 -0.322 -0.312 -0.312
 0.122  0.989 -0.243 -0.318 -0.321 -0.311 -0.311
 0.124  0.992 -0.240 -0.317 -0.320 -0.311 -0.311
 0.126  0.994 -0.237 -0.315 -0.319 -0.310 -0.310
 0.128  0.997 -0.234 -0.314 -0.318 -0.309 -0.309
 0.130  0.999 -0.231 -0.312 -0.318 -0.308 -0.308
 0.132  1.002 -0.229 -0.311 -0.317 -0.307 -0.307
 0.134  1.004 -0.226 -0.310 -0.316 -0.307 -0.307
 0.136  1.007 -0.223 -0.308 -0.315 -0.306 -0.306
 0.138  1.009 -0.220 -0.307 -0.314 -0.305 -0.305
 0.140  1.011 -0.218 -0.306 -0.313 -0.304 -0.304
 0.142  1.013 -0.215 -0.305 -0.312 -0.304 -0.304
 0.144  1.016 -0.213 -0.304 -0.311 -0.303 -0.303
 0.146  1.018 -0.210 -0.303 -0.310 -0.302 -0.302
 0.148  1.020 -0.208 -0.302 -0.309 -0.302 -0.302
 0.150  1.023 -0.206 -0.301 -0.308 -0.301 -0.301
 0.152  1.025 -0.203 -0.299 -0.307 -0.300 -0.300
 0.154  1.027 -0.201 -0.298 -0.306 -0.300 -0.300
 0.156  1.029 -0.198 -0.297 -0.305 -0.299 -0.299
 0.158  1.031 -0.195 -0.297 -0.304 -0.298 -0.298
 0.160  1.033 -0.193 -0.296 -0.303 -0.298 -0.298
 0.162  1.035 -0.190 -0.295 -0.302 -0.297 -0.297
 0.164  1.037 -0.188 -0.293 -0.301 -0.296 -0.296
 0.166  1.040 -0.186 -0.292 -0.300 -0.295 -0.295
 0.168  1.042 -0.183 -0.291 -0.299 -0.295 -0.295
 0.170  1.044 -0.180 -0.290 -0.298 -0.294 -0.294
 0.172  1.046 -0.177 -0.288 -0.297 -0.293 -0.293
 0.174  1.048 -0.174 -0.287 -0.296 -0.293 -0.293
 0.176  1.050 -0.172 -0.286 -0.295 -0.292 -0.292
 0.178  1.052 -0.170 -0.285 -0.294 -0.291 -0.291
 0.180  1.054 -0.167 -0.283 -0.293 -0.291 -0.291
 0.182  1.057 -0.164 -0.282 -0.292 -0.290 -0.290
 0.184  1.059 -0.161 -0.280 -0.291 -0.289 -0.289
 0.186  1.061 -0.158 -0.279 -0.290 -0.288 -0.288
 0.188  1.064 -0.156 -0.277 -0.289 -0.288 -0.288
 0.190  1.066 -0.153 -0.276 -0.288 -0.287 -0.287
 0.192  1.068 -0.150 -0.274 -0.287 -0.286 -0.286
 0.194  1.070 -0.147 -0.273 -0.285 -0.286 -0.286
 0.196  1.073 -0.145 -0.271 -0.284 -0.285 -0.285
 0.198  1.075 -0.142 -0.270 -0.283 -0.284 -0.284
 0.200  1.077 -0.139 -0.268 -0.282 -0.284 -0.284
 0.202  1.080 -0.136 -0.266 -0.281 -0.283 -0.283
 0.204  1.082 -0.134 -0.265 -0.280 -0.282 -0.282
 0.206  1.084 -0.131 -0.263 -0.279 -0.281 -0.281
 0.208  1.087 -0.128 -0.261 -0.278 -0.281 -0.281
 0.210  1.089 -0.125 -0.259 -0.277 -0.280 -0.280
 0.212  1.092 -0.122 -0.257 -0.276 -0.279 -0.279
 0.214  1.094 -0.119 -0.256 -0.275 -0.279 -0.279
 0.216  1.097 -0.116 -0.254 -0.274 -0.278 -0.278
 0.218  1.099 -0.113 -0.252 -0.273 -0.277 -0.277
 0.220  1.101 -0.111 -0.250 -0.272 -0.276 -0.276
 0.222  1.104 -0.108 -0.248 -0.271 -0.276 -0.276
 0.224  1.107 -0.105 -0.246 -0.270 -0.275 -0.275
 0.226  1.109 -0.102 -0.244 -0.269 -0.274 -0.274
 0.228  1.112 -0.100 -0.243 -0.269 -0.274 -0.274
 0.230  1.114 -0.097 -0.241 -0.268 -0.273 -0.273
 0.232  1.117 -0.094 -0.239 -0.267 -0.272 -0.272
 0.234  1.119 -0.091 -0.237 -0.266 -0.271 -0.271
 0.236  1.122 -0.088 -0.235 -0.265 -0.271 -0.271
 0.238  1.124 -0.086 -0.233 -0.264 -0.270 -0.270
 0.240  1.126 -0.084 -0.232 -0.263 -0.269 -0.269
 0.242  1.129 -0.081 -0.230 -0.262 -0.269 -0.269
 0.244  1.131 -0.079 -0.228 -0.261 -0.268 -0.268
 0.246  1.134 -0.076 -0.226 -0.261 -0.267 -0.267
 0.248  1.136 -0.073 -0.225 -0.260 -0.267 -0.267
 0.250  1.139 -0.071 -0.223 -0.259 -0.266 -0.266
 0.252  1.141 -0.068 -0.221 -0.258 -0.265 -0.265
 0.254  1.143 -0.066 -0.220 -0.258 -0.265 -0.265
 0.256  1.145 -0.064 -0.218 -0.257 -0.264 -0.264
 0.258  1.147 -0.061 -0.216 -0.256 -0.263 -0.263
 0.260  1.149 -0.059 -0.215 -0.255 -0.263 -0.263
 0.262  1.151 -0.057 -0.214 -0.254 -0.262 -0.262
 0.264  1.154 -0.054 -0.212 -0.254 -0.261 -0.261
 0.266  1.156 -0.052 -0.210 -0.253 -0.260 -0.260
 0.268  1.158 -0.050 -0.209 -0.252 -0.260 -0.260
 0.270  1.160 -0.048 -0.207 -0.251 -0.259 -0.259
 0.272  1.162 -0.045 -0.206 -0.250 -0.258 -0.258
 0.274  1.164 -0.043 -0.204 -0.250 -0.258 -0.258
 0.276  1.166 -0.041 -0.203 -0.249 -0.257 -0.257
 0.278  1.168 -0.039 -0.202 -0.248 -0.256 -0.256
 0.280  1.170 -0.036 -0.201 -0.247 -0.255 -0.255
 0.282  1.172 -0.034 -0.199 -0.246 -0.255 -0.255
 0.284  1.174 -0.032 -0.198 -0.245 -0.254 -0.254
 0.286  1.176 -0.030 -0.196 -0.244 -0.253 -0.253
 0.288  1.178 -0.028 -0.195 -0.243 -0.253 -0.253
 0.290  1.180 -0.026 -0.194 -0.242 -0.252 -0.252
 0.292  1.181 -0.024 -0.193 -0.241 -0.251 -0.251
 0.294  1.183 -0.021 -0.191 -0.240 -0.250 -0.250
 0.296  1.185 -0.019 -0.190 -0.239 -0.250 -0.250
 0.298  1.187 -0.017 -0.189 -0.238 -0.249 -0.249
 0.300  1.188 -0.015 -0.187 -0.236 -0.248 -0.248
 0.302  1.190 -0.013 -0.186 -0.235 -0.247 -0.247
 0.304  1.191 -0.011 -0.185 -0.234 -0.247 -0.247
 0.306  1.193 -0.009 -0.184 -0.233 -0.246 -0.246
 0.308  1.195 -0.007 -0.183 -0.232 -0.245 -0.245
 0.310  1.196 -0.005 -0.181 -0.230 -0.245 -0.245
 0.312  1.198 -0.003 -0.180 -0.229 -0.244 -0.244
 0.314  1.200 -0.000 -0.178 -0.228 -0.243 -0.243
 0.316  1.202  0.002 -0.177 -0.227 -0.243 -0.243
 0.318  1.203  0.004 -0.175 -0.225 -0.242 -0.242
 0.320  1.205  0.006 -0.174 -0.224 -0.241 -0.241
 0.322  1.206  0.008 -0.173 -0.223 -0.240 -0.240
 0.324  1.208  0.010 -0.171 -0.221 -0.240 -0.240
 0.326  1.210  0.012 -0.170 -0.220 -0.239 -0.239
 0.328  1.211  0.014 -0.168 -0.218 -0.238 -0.238
 0.330  1.213  0.016 -0.167 -0.217 -0.237 -0.237
 0.332  1.215  0.018 -0.165 -0.216 -0.236 -0.236
 0.334  1.216  0.020 -0.164 -0.214 -0.236 -0.236
 0.336  1.218  0.022 -0.163 -0.213 -0.235 -0.235
 0.338  1.220  0.025 -0.161 -0.211 -0.234 -0.234
 0.340  1.221  0.027 -0.160 -0.210 -0.234 -0.234
 0.342  1.223  0.029 -0.158 -0.208 -0.233 -0.233
 0.344  1.224  0.031 -0.157 -0.207 -0.232 -0.232
 0.346  1.227  0.033 -0.155 -0.206 -0.231 -0.231
 0.348  1.228  0.035 -0.153 -0.204 -0.231 -0.231
 0.350  1.230  0.037 -0.152 -0.203 -0.230 -0.230
 0.352  1.231  0.039 -0.151 -0.201 -0.229 -0.229
 0.354  1.233  0.041 -0.149 -0.200 -0.228 -0.228
 0.356  1.235  0.043 -0.147 -0.199 -0.228 -0.228
 0.358  1.236  0.045 -0.146 -0.198 -0.227 -0.227
 0.360  1.238  0.047 -0.144 -0.197 -0.226 -0.226
 0.362  1.239  0.049 -0.143 -0.195 -0.225 -0.225
 0.364  1.242  0.052 -0.141 -0.194 -0.225 -0.225
 0.366  1.243  0.054 -0.139 -0.193 -0.224 -0.224
 0.368  1.245  0.056 -0.138 -0.192 -0.223 -0.223
 0.370  1.246  0.058 -0.136 -0.191 -0.222 -0.222
 0.372  1.248  0.060 -0.135 -0.190 -0.222 -0.222
 0.374  1.250  0.062 -0.133 -0.189 -0.221 -0.221
 0.376  1.251  0.064 -0.132 -0.187 -0.220 -0.220
 0.378  1.253  0.065 -0.130 -0.186 -0.219 -0.219
 0.380  1.254  0.068 -0.129 -0.185 -0.219 -0.219
 0.382  1.256  0.070 -0.127 -0.184 -0.218 -0.218
 0.384  1.258  0.072 -0.125 -0.183 -0.217 -0.217
 0.386  1.260  0.074 -0.124 -0.182 -0.216 -0.216
 0.388  1.261  0.076 -0.122 -0.181 -0.216 -0.216
 0.390  1.263  0.077 -0.121 -0.181 -0.215 -0.215
 0.392  1.264  0.079 -0.120 -0.180 -0.214 -0.214
 0.394  1.265  0.081 -0.118 -0.179 -0.213 -0.213
 0.396  1.267  0.083 -0.117 -0.178 -0.213 -0.213
 0.398  1.269  0.085 -0.115 -0.177 -0.212 -0.212
 0.400  1.270  0.087 -0.114 -0.176 -0.211 -0.211
 0.402  1.272  0.089 -0.112 -0.176 -0.210 -0.210
 0.404  1.273  0.091 -0.111 -0.175 -0.210 -0.210
 0.406  1.275  0.092 -0.110 -0.174 -0.209 -0.209
 0.408  1.277  0.095 -0.108 -0.173 -0.208 -0.208
 0.410  1.278  0.097 -0.107 -0.172 -0.208 -0.208
 0.412  1.279  0.098 -0.106 -0.172 -0.207 -0.207
 0.414  1.281  0.100 -0.104 -0.171 -0.206 -0.206
 0.416  1.283  0.101 -0.103 -0.170 -0.205 -0.205
 0.418  1.284  0.104 -0.102 -0.169 -0.205 -0.205
 0.420  1.285  0.106 -0.101 -0.169 -0.204 -0.204
 0.422  1.287  0.107 -0.099 -0.168 -0.203 -0.203
 0.424  1.288  0.109 -0.098 -0.167 -0.202 -0.202
 0.426  1.290  0.110 -0.097 -0.166 -0.202 -0.202
 0.428  1.291  0.113 -0.095 -0.165 -0.201 -0.201
 0.430  1.293  0.114 -0.094 -0.165 -0.200 -0.200
 0.432  1.294  0.116 -0.093 -0.164 -0.199 -0.199
 0.434  1.295  0.117 -0.092 -0.163 -0.199 -0.199
 0.436  1.297  0.119 -0.091 -0.162 -0.198 -0.198
 0.438  1.298  0.121 -0.090 -0.161 -0.197 -0.197
 0.440  1.300  0.123 -0.088 -0.161 -0.197 -0.197
 0.442  1.301  0.124 -0.087 -0.160 -0.196 -0.196
 0.444  1.302  0.126 -0.086 -0.159 -0.195 -0.195
 0.446  1.304  0.127 -0.085 -0.158 -0.194 -0.194
 0.448  1.305  0.129 -0.084 -0.157 -0.194 -0.194
 0.450  1.306  0.131 -0.082 -0.157 -0.193 -0.193
 0.452  1.308  0.132 -0.081 -0.156 -0.192 -0.192
 0.454  1.309  0.133 -0.081 -0.155 -0.192 -0.192
 0.456  1.310  0.135 -0.080 -0.154 -0.191 -0.191
 0.458  1.311  0.137 -0.079 -0.153 -0.190 -0.190
 0.460  1.312  0.138 -0.078 -0.152 -0.190 -0.190
 0.462  1.313  0.140 -0.077 -0.152 -0.189 -0.189
 0.464  1.315  0.141 -0.076 -0.151 -0.189 -0.189
 0.466  1.316  0.142 -0.075 -0.150 -0.188 -0.188
 0.468  1.317  0.144 -0.074 -0.149 -0.187 -0.187
 0.470  1.318  0.145 -0.073 -0.148 -0.187 -0.187
 0.472  1.319  0.147 -0.072 -0.147 -0.186 -0.186
 0.474  1.320  0.147 -0.071 -0.146 -0.186 -0.186
 0.476  1.321  0.149 -0.070 -0.146 -0.185 -0.185
 0.478  1.322  0.150 -0.070 -0.145 -0.184 -0.184
 0.480  1.323  0.151 -0.069 -0.144 -0.184 -0.184
 0.482  1.324  0.153 -0.068 -0.143 -0.183 -0.183
 0.484  1.325  0.154 -0.067 -0.142 -0.183 -0.183
 0.486  1.326  0.155 -0.066 -0.141 -0.182 -0.182
 0.488  1.326  0.156 -0.065 -0.141 -0.181 -0.181
 0.490  1.327  0.158 -0.065 -0.140 -0.181 -0.181
 0.492  1.328  0.158 -0.064 -0.139 -0.180 -0.180
 0.494  1.328  0.160 -0.063 -0.138 -0.180 -0.180
 0.496  1.329  0.160 -0.062 -0.138 -0.179 -0.179
 0.498  1.330  0.162 -0.062 -0.137 -0.179 -0.179
 0.500  1.330  0.162 -0.061 -0.136 -0.178 -0.178
 0.502  1.332  0.164 -0.060 -0.135 -0.178 -0.178
 0.504  1.332  0.165 -0.060 -0.135 -0.177 -0.177
 0.506  1.333  0.166 -0.060 -0.134 -0.177 -0.177
 0.508  1.333  0.167 -0.059 -0.133 -0.176 -0.176
 0.510  1.334  0.168 -0.058 -0.133 -0.176 -0.176
 0.512  1.334  0.169 -0.058 -0.132 -0.175 -0.175
 0.514  1.335  0.169 -0.057 -0.132 -0.175 -0.175
 0.516  1.335  0.170 -0.056 -0.131 -0.174 -0.174
 0.518  1.336  0.171 -0.056 -0.130 -0.174 -0.174
 0.520  1.336  0.172 -0.055 -0.130 -0.173 -0.173
 0.522  1.337  0.173 -0.055 -0.129 -0.173 -0.173
 0.524  1.337  0.174 -0.054 -0.129 -0.172 -0.172
 0.526  1.338  0.174 -0.053 -0.128 -0.172 -0.172
 0.528  1.338  0.175 -0.053 -0.127 -0.171 -0.171
 0.530  1.338  0.176 -0.052 -0.127 -0.170 -0.170
 0.532  1.339  0.176 -0.052 -0.126 -0.170 -0.170
 0.534  1.340  0.177 -0.051 -0.126 -0.170 -0.170
 0.536  1.340  0.178 -0.051 -0.126 -0.169 -0.169
 0.538  1.341  0.178 -0.050 -0.125 -0.168 -0.168
 0.540  1.341  0.178 -0.050 -0.125 -0.168 -0.168
 0.542  1.341  0.179 -0.049 -0.124 -0.167 -0.167
 0.544  1.342  0.180 -0.049 -0.124 -0.167 -0.167
 0.546  1.342  0.181 -0.048 -0.123 -0.166 -0.166
 0.548  1.343  0.181 -0.048 -0.123 -0.166 -0.166
 0.550  1.343  0.181 -0.047 -0.122 -0.165 -0.165
 0.552  1.343  0.181 -0.047 -0.122 -0.165 -0.165
 0.554  1.344  0.182 -0.046 -0.122 -0.164 -0.164
 0.556  1.344  0.183 -0.046 -0.121 -0.164 -0.164
 0.558  1.345  0.183 -0.045 -0.121 -0.163 -0.163
 0.560  1.345  0.183 -0.045 -0.120 -0.162 -0.162
 0.562  1.345  0.183 -0.044 -0.120 -0.162 -0.162
 0.564  1.346  0.183 -0.044 -0.119 -0.161 -0.161
 0.566  1.346  0.184 -0.043 -0.119 -0.161 -0.161
 0.568  1.346  0.184 -0.043 -0.118 -0.160 -0.160
 0.570  1.347  0.184 -0.042 -0.118 -0.160 -0.160
 0.572  1.348  0.185 -0.042 -0.117 -0.159 -0.159
 0.574  1.348  0.185 -0.041 -0.117 -0.159 -0.159
 0.576  1.348  0.185 -0.041 -0.116 -0.158 -0.158
 0.578  1.349  0.185 -0.040 -0.115 -0.157 -0.157
 0.580  1.349  0.185 -0.040 -0.115 -0.157 -0.157
 0.582  1.349  0.185 -0.040 -0.114 -0.157 -0.157
 0.584  1.350  0.185 -0.039 -0.114 -0.156 -0.156
 0.586  1.350  0.185 -0.039 -0.113 -0.155 -0.155
 0.588  1.350  0.185 -0.038 -0.112 -0.155 -0.155
 0.590  1.351  0.185 -0.038 -0.112 -0.154 -0.154
 0.592  1.351  0.185 -0.037 -0.111 -0.154 -0.154
 0.594  1.351  0.185 -0.036 -0.110 -0.153 -0.153
 0.596  1.352  0.185 -0.036 -0.110 -0.153 -0.153
 0.598  1.352  0.185 -0.035 -0.109 -0.153 -0.153
 0.600  1.352  0.185 -0.035 -0.108 -0.152 -0.152
 0.602  1.353  0.185 -0.034 -0.107 -0.152 -0.152
 0.604  1.353  0.185 -0.034 -0.107 -0.151 -0.151
 0.606  1.353  0.185 -0.033 -0.106 -0.151 -0.151
 0.608  1.353  0.185 -0.033 -0.105 -0.150 -0.150
 0.610  1.354  0.185 -0.032 -0.104 -0.150 -0.150
 0.612  1.354  0.185 -0.031 -0.104 -0.149 -0.149
 0.614  1.354  0.185 -0.031 -0.103 -0.149 -0.149
 0.616  1.354  0.185 -0.030 -0.102 -0.149 -0.149
 0.618  1.355  0.185 -0.030 -0.101 -0.148 -0.148
 0.620  1.355  0.185 -0.029 -0.100 -0.148 -0.148
 0.622  1.355  0.185 -0.029 -0.100 -0.148 -0.148
 0.624  1.356  0.185 -0.028 -0.099 -0.147 -0.147
 0.626  1.356  0.185 -0.028 -0.098 -0.147 -0.147
 0.628  1.356  0.185 -0.027 -0.097 -0.146 -0.146
 0.630  1.356  0.185 -0.026 -0.096 -0.146 -0.146
 0.632  1.356  0.184 -0.026 -0.096 -0.146 -0.146
 0.634  1.356  0.184 -0.025 -0.095 -0.146 -0.146
 0.636  1.356  0.184 -0.024 -0.094 -0.145 -0.145
 0.638  1.357  0.184 -0.024 -0.093 -0.145 -0.145
 0.640  1.357  0.183 -0.023 -0.093 -0.145 -0.145
 0.642  1.357  0.183 -0.022 -0.092 -0.144 -0.144
 0.644  1.357  0.183 -0.022 -0.091 -0.144 -0.144
 0.646  1.357  0.183 -0.021 -0.090 -0.144 -0.144
 0.648  1.357  0.183 -0.020 -0.090 -0.144 -0.144
 0.650  1.357  0.182 -0.020 -0.089 -0.143 -0.143
 0.652  1.357  0.182 -0.019 -0.088 -0.143 -0.143
 0.654  1.357  0.181 -0.019 -0.088 -0.142 -0.142
 0.656  1.357  0.181 -0.018 -0.087 -0.142 -0.142
 0.658  1.357  0.181 -0.017 -0.086 -0.142 -0.142
 0.660  1.357  0.181 -0.016 -0.086 -0.142 -0.142
 0.662  1.357  0.180 -0.015 -0.085 -0.141 -0.141
 0.664  1.358  0.180 -0.014 -0.084 -0.141 -0.141
 0.666  1.358  0.179 -0.013 -0.084 -0.140 -0.140
 0.668  1.358  0.179 -0.012 -0.083 -0.140 -0.140
 0.670  1.358  0.178 -0.011 -0.082 -0.139 -0.139
 0.672  1.358  0.178 -0.010 -0.082 -0.139 -0.139
 0.674  1.358  0.178 -0.009 -0.081 -0.138 -0.138
 0.676  1.358  0.177 -0.008 -0.081 -0.138 -0.138
 0.678  1.359  0.177 -0.006 -0.080 -0.137 -0.137
 0.680  1.359  0.176 -0.005 -0.080 -0.137 -0.137
 0.682  1.359  0.176 -0.004 -0.079 -0.137 -0.137
 0.684  1.359  0.175 -0.002 -0.078 -0.136 -0.136
 0.686  1.360  0.175 -0.001 -0.078 -0.135 -0.135
 0.688  1.360  0.174  0.001 -0.077 -0.135 -0.135
 0.690  1.360  0.174  0.002 -0.077 -0.134 -0.134
 0.692  1.361  0.173  0.004 -0.076 -0.134 -0.134
 0.694  1.361  0.172  0.005 -0.076 -0.133 -0.133
 0.696  1.361  0.171  0.007 -0.075 -0.133 -0.133
 0.698  1.362  0.171  0.009 -0.074 -0.132 -0.132
 0.700  1.362  0.170  0.010 -0.074 -0.131 -0.131
 0.702  1.362  0.170  0.012 -0.073 -0.131 -0.131
 0.704  1.363  0.169  0.013 -0.073 -0.130 -0.130
 0.706  1.364  0.169  0.015 -0.072 -0.129 -0.129
 0.708  1.364  0.168  0.017 -0.071 -0.128 -0.128
 0.710  1.365  0.167  0.019 -0.071 -0.128 -0.128
 0.712  1.365  0.167  0.021 -0.070 -0.127 -0.127
 0.714  1.366  0.166  0.023 -0.069 -0.126 -0.126
 0.716  1.367  0.165  0.025 -0.068 -0.126 -0.126
 0.718  1.367  0.165  0.027 -0.068 -0.125 -0.125
 0.720  1.368  0.165  0.029 -0.067 -0.124 -0.124
 0.722  1.369  0.164  0.031 -0.066 -0.123 -0.123
 0.724  1.369  0.163  0.033 -0.065 -0.122 -0.122
 0.726  1.370  0.163  0.035 -0.064 -0.122 -0.122
 0.728  1.371  0.163  0.037 -0.063 -0.120 -0.120
 0.730  1.372  0.162  0.039 -0.063 -0.120 -0.120
 0.732  1.372  0.162  0.041 -0.062 -0.119 -0.119
 0.734  1.373  0.162  0.042 -0.061 -0.118 -0.118
 0.736  1.374  0.162  0.044 -0.060 -0.117 -0.117
 0.738  1.374  0.163  0.045 -0.059 -0.116 -0.116
 0.740  1.375  0.163  0.047 -0.058 -0.115 -0.115
 0.742  1.376  0.163  0.048 -0.057 -0.113 -0.113
 0.744  1.376  0.164  0.049 -0.056 -0.112 -0.112
 0.746  1.377  0.165  0.050 -0.055 -0.111 -0.111
 0.748  1.377  0.165  0.052 -0.054 -0.110 -0.110
 0.750  1.378  0.165  0.053 -0.053 -0.109 -0.109
 0.752  1.378  0.166  0.053 -0.052 -0.108 -0.108
 0.754  1.379  0.167  0.054 -0.051 -0.107 -0.107
 0.756  1.380  0.167  0.054 -0.049 -0.105 -0.105
 0.758  1.380  0.169  0.055 -0.048 -0.104 -0.104
 0.760  1.381  0.169  0.056 -0.047 -0.103 -0.103
 0.762  1.381  0.170  0.056 -0.046 -0.102 -0.102
 0.764  1.381  0.171  0.057 -0.045 -0.100 -0.100
 0.766  1.382  0.172  0.057 -0.044 -0.099 -0.099
 0.768  1.382  0.174  0.057 -0.043 -0.098 -0.098
 0.770  1.382  0.175  0.058 -0.043 -0.096 -0.096
 0.772  1.383  0.176  0.058 -0.042 -0.095 -0.095
 0.774  1.383  0.178  0.058 -0.042 -0.093 -0.093
 0.776  1.383  0.179  0.058 -0.042 -0.092 -0.092
 0.778  1.383  0.181  0.058 -0.042 -0.090 -0.090
 0.780  1.383  0.183  0.057 -0.042 -0.089 -0.089
 0.782  1.383  0.184  0.057 -0.043 -0.087 -0.087
 0.784  1.384  0.186  0.057 -0.043 -0.085 -0.085
 0.786  1.384  0.187  0.056 -0.044 -0.084 -0.084
 0.788  1.384  0.190  0.056 -0.045 -0.082 -0.082
 0.790  1.384  0.191  0.055 -0.046 -0.081 -0.081
 0.792  1.384  0.193  0.054 -0.047 -0.080 -0.080
 0.794  1.384  0.194  0.053 -0.049 -0.078 -0.078
 0.796  1.384  0.196  0.052 -0.050 -0.077 -0.077
 0.798  1.384  0.198  0.051 -0.052 -0.076 -0.076
 0.800  1.384  0.200  0.049 -0.054 -0.074 -0.074
 0.802  1.384  0.201  0.048 -0.056 -0.073 -0.073
 0.804  1.384  0.203  0.046 -0.058 -0.072 -0.072
 0.806  1.383  0.205  0.043 -0.061 -0.071 -0.071
 0.808  1.382  0.206  0.042 -0.063 -0.071 -0.071
