# IsPeriodic    : True
# Period        : 0.550573 days
# Normalization : <g_mag>=0
# 
# Phase u_mag  g_mag  r_mag  i_mag  z_mag  y_mag
 0.000  0.440 -0.687 -0.523 -0.419 -0.488 -0.488
 0.002  0.440 -0.687 -0.523 -0.419 -0.488 -0.488
 0.004  0.443 -0.687 -0.522 -0.419 -0.487 -0.487
 0.006  0.445 -0.686 -0.522 -0.419 -0.486 -0.486
 0.008  0.448 -0.684 -0.521 -0.418 -0.485 -0.485
 0.010  0.453 -0.682 -0.520 -0.418 -0.482 -0.482
 0.012  0.457 -0.681 -0.520 -0.417 -0.481 -0.481
 0.014  0.464 -0.678 -0.519 -0.416 -0.478 -0.478
 0.016  0.469 -0.676 -0.518 -0.416 -0.475 -0.475
 0.018  0.477 -0.673 -0.518 -0.415 -0.473 -0.473
 0.020  0.484 -0.669 -0.516 -0.414 -0.470 -0.470
 0.022  0.492 -0.666 -0.515 -0.413 -0.467 -0.467
 0.024  0.498 -0.663 -0.514 -0.411 -0.464 -0.464
 0.026  0.506 -0.660 -0.512 -0.410 -0.461 -0.461
 0.028  0.514 -0.656 -0.511 -0.409 -0.458 -0.458
 0.030  0.520 -0.652 -0.509 -0.408 -0.456 -0.456
 0.032  0.528 -0.648 -0.507 -0.406 -0.453 -0.453
 0.034  0.535 -0.645 -0.506 -0.405 -0.451 -0.451
 0.036  0.542 -0.641 -0.504 -0.404 -0.448 -0.448
 0.038  0.548 -0.637 -0.501 -0.402 -0.446 -0.446
 0.040  0.555 -0.632 -0.499 -0.401 -0.443 -0.443
 0.042  0.563 -0.628 -0.497 -0.400 -0.441 -0.441
 0.044  0.569 -0.623 -0.494 -0.398 -0.439 -0.439
 0.046  0.576 -0.619 -0.492 -0.397 -0.437 -0.437
 0.048  0.583 -0.613 -0.489 -0.396 -0.434 -0.434
 0.050  0.589 -0.608 -0.486 -0.394 -0.432 -0.432
 0.052  0.596 -0.603 -0.483 -0.393 -0.429 -0.429
 0.054  0.603 -0.597 -0.480 -0.391 -0.427 -0.427
 0.056  0.610 -0.591 -0.477 -0.390 -0.424 -0.424
 0.058  0.617 -0.586 -0.474 -0.389 -0.422 -0.422
 0.060  0.624 -0.579 -0.470 -0.387 -0.420 -0.420
 0.062  0.630 -0.573 -0.467 -0.386 -0.418 -0.418
 0.064  0.637 -0.567 -0.463 -0.384 -0.415 -0.415
 0.066  0.644 -0.560 -0.460 -0.382 -0.413 -0.413
 0.068  0.650 -0.553 -0.456 -0.381 -0.410 -0.410
 0.070  0.657 -0.547 -0.452 -0.380 -0.408 -0.408
 0.072  0.664 -0.539 -0.449 -0.378 -0.406 -0.406
 0.074  0.670 -0.533 -0.446 -0.377 -0.404 -0.404
 0.076  0.677 -0.525 -0.442 -0.375 -0.402 -0.402
 0.078  0.684 -0.518 -0.438 -0.373 -0.400 -0.400
 0.080  0.690 -0.512 -0.435 -0.372 -0.398 -0.398
 0.082  0.696 -0.504 -0.431 -0.370 -0.395 -0.395
 0.084  0.703 -0.497 -0.427 -0.368 -0.394 -0.394
 0.086  0.709 -0.490 -0.425 -0.366 -0.392 -0.392
 0.088  0.716 -0.484 -0.421 -0.365 -0.389 -0.389
 0.090  0.722 -0.477 -0.418 -0.363 -0.388 -0.388
 0.092  0.728 -0.470 -0.414 -0.362 -0.385 -0.385
 0.094  0.735 -0.464 -0.411 -0.360 -0.383 -0.383
 0.096  0.740 -0.458 -0.408 -0.358 -0.381 -0.381
 0.098  0.747 -0.451 -0.405 -0.356 -0.379 -0.379
 0.100  0.753 -0.445 -0.402 -0.355 -0.378 -0.378
 0.102  0.759 -0.440 -0.399 -0.353 -0.375 -0.375
 0.104  0.765 -0.433 -0.396 -0.351 -0.374 -0.374
 0.106  0.770 -0.428 -0.393 -0.350 -0.371 -0.371
 0.108  0.777 -0.422 -0.390 -0.348 -0.370 -0.370
 0.110  0.783 -0.416 -0.387 -0.346 -0.368 -0.368
 0.112  0.788 -0.411 -0.385 -0.344 -0.366 -0.366
 0.114  0.794 -0.405 -0.382 -0.343 -0.364 -0.364
 0.116  0.799 -0.399 -0.379 -0.341 -0.363 -0.363
 0.118  0.805 -0.394 -0.376 -0.339 -0.361 -0.361
 0.120  0.810 -0.389 -0.374 -0.338 -0.359 -0.359
 0.122  0.816 -0.385 -0.371 -0.336 -0.358 -0.358
 0.124  0.820 -0.379 -0.368 -0.334 -0.355 -0.355
 0.126  0.826 -0.374 -0.366 -0.333 -0.354 -0.354
 0.128  0.832 -0.370 -0.364 -0.331 -0.352 -0.352
 0.130  0.836 -0.364 -0.361 -0.329 -0.350 -0.350
 0.132  0.842 -0.360 -0.359 -0.328 -0.349 -0.349
 0.134  0.846 -0.356 -0.356 -0.326 -0.347 -0.347
 0.136  0.852 -0.352 -0.353 -0.324 -0.346 -0.346
 0.138  0.856 -0.347 -0.351 -0.323 -0.344 -0.344
 0.140  0.862 -0.343 -0.349 -0.321 -0.342 -0.342
 0.142  0.866 -0.339 -0.347 -0.319 -0.341 -0.341
 0.144  0.870 -0.335 -0.345 -0.318 -0.339 -0.339
 0.146  0.875 -0.331 -0.343 -0.316 -0.338 -0.338
 0.148  0.879 -0.327 -0.340 -0.314 -0.336 -0.336
 0.150  0.884 -0.323 -0.337 -0.312 -0.335 -0.335
 0.152  0.888 -0.319 -0.335 -0.311 -0.334 -0.334
 0.154  0.893 -0.315 -0.333 -0.309 -0.332 -0.332
 0.156  0.897 -0.311 -0.331 -0.308 -0.330 -0.330
 0.158  0.902 -0.307 -0.329 -0.306 -0.329 -0.329
 0.160  0.906 -0.303 -0.326 -0.305 -0.327 -0.327
 0.162  0.909 -0.300 -0.323 -0.302 -0.326 -0.326
 0.164  0.914 -0.296 -0.321 -0.301 -0.325 -0.325
 0.166  0.918 -0.291 -0.319 -0.299 -0.323 -0.323
 0.168  0.923 -0.287 -0.317 -0.298 -0.322 -0.322
 0.170  0.926 -0.284 -0.315 -0.296 -0.320 -0.320
 0.172  0.930 -0.280 -0.312 -0.294 -0.319 -0.319
 0.174  0.935 -0.275 -0.310 -0.293 -0.317 -0.317
 0.176  0.939 -0.271 -0.307 -0.291 -0.316 -0.316
 0.178  0.943 -0.267 -0.305 -0.290 -0.315 -0.315
 0.180  0.947 -0.263 -0.303 -0.288 -0.313 -0.313
 0.182  0.952 -0.259 -0.301 -0.287 -0.311 -0.311
 0.184  0.955 -0.254 -0.298 -0.285 -0.310 -0.310
 0.186  0.959 -0.250 -0.296 -0.283 -0.308 -0.308
 0.188  0.964 -0.246 -0.293 -0.282 -0.307 -0.307
 0.190  0.967 -0.242 -0.291 -0.281 -0.306 -0.306
 0.192  0.972 -0.237 -0.289 -0.279 -0.304 -0.304
 0.194  0.975 -0.233 -0.286 -0.278 -0.302 -0.302
 0.196  0.979 -0.229 -0.284 -0.276 -0.301 -0.301
 0.198  0.984 -0.225 -0.282 -0.274 -0.300 -0.300
 0.200  0.987 -0.220 -0.280 -0.273 -0.298 -0.298
 0.202  0.992 -0.216 -0.277 -0.272 -0.297 -0.297
 0.204  0.995 -0.212 -0.274 -0.270 -0.295 -0.295
 0.206  0.999 -0.207 -0.272 -0.269 -0.293 -0.293
 0.208  1.004 -0.202 -0.270 -0.267 -0.292 -0.292
 0.210  1.007 -0.198 -0.268 -0.266 -0.291 -0.291
 0.212  1.012 -0.194 -0.265 -0.264 -0.289 -0.289
 0.214  1.015 -0.190 -0.263 -0.263 -0.288 -0.288
 0.216  1.019 -0.184 -0.261 -0.262 -0.286 -0.286
 0.218  1.023 -0.180 -0.258 -0.260 -0.284 -0.284
 0.220  1.027 -0.176 -0.255 -0.258 -0.283 -0.283
 0.222  1.030 -0.172 -0.253 -0.257 -0.282 -0.282
 0.224  1.035 -0.167 -0.251 -0.256 -0.280 -0.280
 0.226  1.038 -0.162 -0.249 -0.255 -0.278 -0.278
 0.228  1.043 -0.158 -0.246 -0.253 -0.277 -0.277
 0.230  1.046 -0.154 -0.244 -0.252 -0.276 -0.276
 0.232  1.050 -0.149 -0.241 -0.251 -0.274 -0.274
 0.234  1.054 -0.145 -0.239 -0.249 -0.272 -0.272
 0.236  1.057 -0.141 -0.236 -0.248 -0.271 -0.271
 0.238  1.062 -0.138 -0.234 -0.247 -0.269 -0.269
 0.240  1.065 -0.134 -0.232 -0.245 -0.268 -0.268
 0.242  1.068 -0.129 -0.230 -0.244 -0.267 -0.267
 0.244  1.073 -0.125 -0.227 -0.243 -0.265 -0.265
 0.246  1.076 -0.121 -0.225 -0.242 -0.264 -0.264
 0.248  1.079 -0.118 -0.222 -0.240 -0.262 -0.262
 0.250  1.083 -0.113 -0.220 -0.238 -0.261 -0.261
 0.252  1.086 -0.110 -0.217 -0.237 -0.259 -0.259
 0.254  1.089 -0.106 -0.215 -0.236 -0.258 -0.258
 0.256  1.093 -0.102 -0.213 -0.235 -0.257 -0.257
 0.258  1.096 -0.099 -0.211 -0.233 -0.256 -0.256
 0.260  1.099 -0.094 -0.208 -0.232 -0.254 -0.254
 0.262  1.103 -0.091 -0.206 -0.230 -0.253 -0.253
 0.264  1.106 -0.088 -0.203 -0.229 -0.251 -0.251
 0.266  1.109 -0.084 -0.201 -0.228 -0.250 -0.250
 0.268  1.113 -0.081 -0.198 -0.226 -0.249 -0.249
 0.270  1.115 -0.077 -0.196 -0.225 -0.247 -0.247
 0.272  1.118 -0.074 -0.194 -0.224 -0.246 -0.246
 0.274  1.121 -0.071 -0.191 -0.222 -0.245 -0.245
 0.276  1.125 -0.067 -0.189 -0.221 -0.244 -0.244
 0.278  1.127 -0.064 -0.187 -0.219 -0.242 -0.242
 0.280  1.130 -0.061 -0.184 -0.218 -0.241 -0.241
 0.282  1.133 -0.057 -0.181 -0.217 -0.240 -0.240
 0.284  1.136 -0.054 -0.179 -0.215 -0.239 -0.239
 0.286  1.139 -0.052 -0.177 -0.214 -0.237 -0.237
 0.288  1.141 -0.049 -0.175 -0.212 -0.236 -0.236
 0.290  1.144 -0.046 -0.172 -0.211 -0.235 -0.235
 0.292  1.147 -0.043 -0.170 -0.210 -0.234 -0.234
 0.294  1.149 -0.039 -0.168 -0.208 -0.233 -0.233
 0.296  1.151 -0.036 -0.165 -0.207 -0.232 -0.232
 0.298  1.155 -0.033 -0.162 -0.205 -0.230 -0.230
 0.300  1.157 -0.031 -0.160 -0.204 -0.229 -0.229
 0.302  1.159 -0.028 -0.158 -0.202 -0.228 -0.228
 0.304  1.163 -0.025 -0.156 -0.201 -0.227 -0.227
 0.306  1.165 -0.021 -0.154 -0.199 -0.226 -0.226
 0.308  1.167 -0.018 -0.151 -0.198 -0.225 -0.225
 0.310  1.169 -0.015 -0.148 -0.197 -0.223 -0.223
 0.312  1.173 -0.013 -0.146 -0.195 -0.222 -0.222
 0.314  1.175 -0.010 -0.144 -0.193 -0.221 -0.221
 0.316  1.177 -0.007 -0.142 -0.192 -0.220 -0.220
 0.318  1.180 -0.003 -0.140 -0.191 -0.219 -0.219
 0.320  1.183 -0.000 -0.137 -0.189 -0.218 -0.218
 0.322  1.185  0.003 -0.135 -0.188 -0.216 -0.216
 0.324  1.188  0.006 -0.133 -0.186 -0.215 -0.215
 0.326  1.190  0.008 -0.131 -0.184 -0.214 -0.214
 0.328  1.194  0.011 -0.129 -0.183 -0.213 -0.213
 0.330  1.196  0.015 -0.127 -0.182 -0.211 -0.211
 0.332  1.199  0.018 -0.124 -0.180 -0.210 -0.210
 0.334  1.201  0.021 -0.122 -0.179 -0.209 -0.209
 0.336  1.204  0.024 -0.120 -0.177 -0.208 -0.208
 0.338  1.207  0.027 -0.118 -0.175 -0.206 -0.206
 0.340  1.210  0.031 -0.116 -0.174 -0.205 -0.205
 0.342  1.213  0.033 -0.113 -0.172 -0.204 -0.204
 0.344  1.216  0.036 -0.111 -0.171 -0.203 -0.203
 0.346  1.218  0.039 -0.109 -0.169 -0.201 -0.201
 0.348  1.221  0.042 -0.107 -0.167 -0.200 -0.200
 0.350  1.224  0.045 -0.105 -0.166 -0.199 -0.199
 0.352  1.227  0.049 -0.102 -0.164 -0.198 -0.198
 0.354  1.230  0.052 -0.100 -0.163 -0.196 -0.196
 0.356  1.233  0.055 -0.098 -0.161 -0.195 -0.195
 0.358  1.236  0.058 -0.096 -0.159 -0.194 -0.194
 0.360  1.239  0.060 -0.094 -0.158 -0.193 -0.193
 0.362  1.243  0.063 -0.092 -0.156 -0.191 -0.191
 0.364  1.245  0.067 -0.090 -0.155 -0.190 -0.190
 0.366  1.248  0.070 -0.088 -0.153 -0.189 -0.189
 0.368  1.251  0.073 -0.086 -0.151 -0.188 -0.188
 0.370  1.255  0.076 -0.084 -0.149 -0.186 -0.186
 0.372  1.257  0.079 -0.082 -0.148 -0.185 -0.185
 0.374  1.260  0.082 -0.080 -0.146 -0.184 -0.184
 0.376  1.264  0.085 -0.078 -0.145 -0.182 -0.182
 0.378  1.267  0.088 -0.076 -0.143 -0.181 -0.181
 0.380  1.270  0.091 -0.075 -0.141 -0.180 -0.180
 0.382  1.273  0.094 -0.072 -0.139 -0.178 -0.178
 0.384  1.276  0.097 -0.071 -0.138 -0.177 -0.177
 0.386  1.279  0.100 -0.069 -0.136 -0.176 -0.176
 0.388  1.281  0.103 -0.067 -0.135 -0.174 -0.174
 0.390  1.285  0.106 -0.065 -0.133 -0.173 -0.173
 0.392  1.288  0.109 -0.064 -0.131 -0.171 -0.171
 0.394  1.290  0.112 -0.061 -0.130 -0.170 -0.170
 0.396  1.294  0.114 -0.060 -0.128 -0.169 -0.169
 0.398  1.296  0.117 -0.058 -0.127 -0.167 -0.167
 0.400  1.299  0.121 -0.056 -0.125 -0.166 -0.166
 0.402  1.301  0.124 -0.055 -0.123 -0.165 -0.165
 0.404  1.305  0.126 -0.053 -0.122 -0.164 -0.164
 0.406  1.307  0.129 -0.052 -0.120 -0.162 -0.162
 0.408  1.310  0.132 -0.050 -0.119 -0.161 -0.161
 0.410  1.313  0.134 -0.048 -0.118 -0.159 -0.159
 0.412  1.316  0.137 -0.047 -0.116 -0.158 -0.158
 0.414  1.318  0.141 -0.045 -0.114 -0.156 -0.156
 0.416  1.320  0.144 -0.044 -0.113 -0.155 -0.155
 0.418  1.324  0.146 -0.042 -0.112 -0.154 -0.154
 0.420  1.326  0.149 -0.041 -0.110 -0.152 -0.152
 0.422  1.328  0.152 -0.039 -0.109 -0.151 -0.151
 0.424  1.330  0.154 -0.038 -0.108 -0.149 -0.149
 0.426  1.334  0.158 -0.036 -0.106 -0.148 -0.148
 0.428  1.336  0.160 -0.035 -0.104 -0.146 -0.146
 0.430  1.338  0.163 -0.034 -0.103 -0.145 -0.145
 0.432  1.340  0.166 -0.032 -0.102 -0.143 -0.143
 0.434  1.343  0.168 -0.031 -0.101 -0.142 -0.142
 0.436  1.345  0.171 -0.029 -0.099 -0.141 -0.141
 0.438  1.347  0.173 -0.028 -0.098 -0.139 -0.139
 0.440  1.349  0.177 -0.026 -0.096 -0.138 -0.138
 0.442  1.351  0.179 -0.025 -0.095 -0.136 -0.136
 0.444  1.354  0.182 -0.023 -0.094 -0.135 -0.135
 0.446  1.356  0.184 -0.022 -0.093 -0.133 -0.133
 0.448  1.358  0.186 -0.020 -0.091 -0.132 -0.132
 0.450  1.360  0.189 -0.019 -0.090 -0.131 -0.131
 0.452  1.363  0.191 -0.017 -0.089 -0.129 -0.129
 0.454  1.365  0.194 -0.016 -0.087 -0.128 -0.128
 0.456  1.367  0.196 -0.014 -0.086 -0.127 -0.127
 0.458  1.369  0.198 -0.014 -0.085 -0.125 -0.125
 0.460  1.371  0.200 -0.012 -0.084 -0.124 -0.124
 0.462  1.374  0.202 -0.011 -0.083 -0.123 -0.123
 0.464  1.375  0.204 -0.009 -0.082 -0.121 -0.121
 0.466  1.377  0.206 -0.008 -0.081 -0.120 -0.120
 0.468  1.379  0.208 -0.006 -0.079 -0.119 -0.119
 0.470  1.381  0.210 -0.005 -0.078 -0.118 -0.118
 0.472  1.383  0.213 -0.004 -0.077 -0.116 -0.116
 0.474  1.385  0.215 -0.002 -0.076 -0.115 -0.115
 0.476  1.387  0.217 -0.001 -0.075 -0.114 -0.114
 0.478  1.389  0.218  0.001 -0.074 -0.113 -0.113
 0.480  1.390  0.220  0.002 -0.073 -0.112 -0.112
 0.482  1.393  0.222  0.004 -0.072 -0.111 -0.111
 0.484  1.395  0.223  0.005 -0.070 -0.109 -0.109
 0.486  1.396  0.225  0.007 -0.069 -0.108 -0.108
 0.488  1.398  0.227  0.008 -0.068 -0.107 -0.107
 0.490  1.399  0.228  0.009 -0.067 -0.106 -0.106
 0.492  1.401  0.231  0.010 -0.066 -0.105 -0.105
 0.494  1.403  0.232  0.012 -0.065 -0.104 -0.104
 0.496  1.405  0.233  0.013 -0.064 -0.103 -0.103
 0.498  1.407  0.235  0.015 -0.063 -0.102 -0.102
 0.500  1.408  0.236  0.016 -0.063 -0.101 -0.101
 0.502  1.410  0.237  0.018 -0.061 -0.101 -0.101
 0.504  1.411  0.239  0.019 -0.060 -0.099 -0.099
 0.506  1.413  0.240  0.020 -0.059 -0.098 -0.098
 0.508  1.415  0.241  0.021 -0.058 -0.098 -0.098
 0.510  1.416  0.242  0.023 -0.058 -0.097 -0.097
 0.512  1.418  0.244  0.024 -0.057 -0.096 -0.096
 0.514  1.419  0.245  0.025 -0.056 -0.095 -0.095
 0.516  1.420  0.246  0.027 -0.055 -0.094 -0.094
 0.518  1.423  0.248  0.028 -0.054 -0.093 -0.093
 0.520  1.424  0.249  0.029 -0.053 -0.092 -0.092
 0.522  1.425  0.250  0.030 -0.052 -0.092 -0.092
 0.524  1.426  0.251  0.032 -0.051 -0.091 -0.091
 0.526  1.428  0.252  0.032 -0.050 -0.090 -0.090
 0.528  1.429  0.253  0.034 -0.050 -0.089 -0.089
 0.530  1.430  0.254  0.035 -0.049 -0.088 -0.088
 0.532  1.431  0.255  0.036 -0.048 -0.087 -0.087
 0.534  1.433  0.256  0.037 -0.047 -0.087 -0.087
 0.536  1.433  0.257  0.038 -0.046 -0.086 -0.086
 0.538  1.434  0.258  0.039 -0.046 -0.085 -0.085
 0.540  1.435  0.259  0.040 -0.045 -0.084 -0.084
 0.542  1.436  0.260  0.041 -0.044 -0.083 -0.083
 0.544  1.436  0.260  0.042 -0.043 -0.083 -0.083
 0.546  1.437  0.261  0.043 -0.042 -0.082 -0.082
 0.548  1.438  0.262  0.044 -0.042 -0.081 -0.081
 0.550  1.438  0.263  0.045 -0.041 -0.080 -0.080
 0.552  1.439  0.264  0.046 -0.040 -0.079 -0.079
 0.554  1.439  0.264  0.047 -0.039 -0.079 -0.079
 0.556  1.439  0.266  0.048 -0.039 -0.078 -0.078
 0.558  1.440  0.267  0.048 -0.038 -0.077 -0.077
 0.560  1.440  0.267  0.050 -0.037 -0.077 -0.077
 0.562  1.440  0.268  0.051 -0.037 -0.076 -0.076
 0.564  1.441  0.269  0.051 -0.036 -0.075 -0.075
 0.566  1.441  0.269  0.052 -0.036 -0.074 -0.074
 0.568  1.441  0.270  0.053 -0.034 -0.074 -0.074
 0.570  1.441  0.270  0.054 -0.034 -0.073 -0.073
 0.572  1.441  0.271  0.054 -0.033 -0.072 -0.072
 0.574  1.441  0.271  0.055 -0.033 -0.072 -0.072
 0.576  1.441  0.272  0.056 -0.032 -0.071 -0.071
 0.578  1.440  0.272  0.057 -0.031 -0.070 -0.070
 0.580  1.440  0.273  0.057 -0.031 -0.069 -0.069
 0.582  1.440  0.273  0.058 -0.030 -0.069 -0.069
 0.584  1.440  0.274  0.059 -0.030 -0.068 -0.068
 0.586  1.439  0.274  0.059 -0.029 -0.068 -0.068
 0.588  1.439  0.274  0.059 -0.029 -0.067 -0.067
 0.590  1.439  0.275  0.060 -0.028 -0.066 -0.066
 0.592  1.438  0.275  0.061 -0.028 -0.065 -0.065
 0.594  1.438  0.276  0.061 -0.027 -0.065 -0.065
 0.596  1.438  0.276  0.062 -0.027 -0.064 -0.064
 0.598  1.437  0.276  0.062 -0.025 -0.064 -0.064
 0.600  1.437  0.277  0.062 -0.025 -0.063 -0.063
 0.602  1.437  0.277  0.063 -0.024 -0.062 -0.062
 0.604  1.436  0.277  0.063 -0.024 -0.062 -0.062
 0.606  1.436  0.277  0.064 -0.023 -0.061 -0.061
 0.608  1.436  0.278  0.064 -0.022 -0.060 -0.060
 0.610  1.435  0.278  0.064 -0.022 -0.060 -0.060
 0.612  1.435  0.278  0.065 -0.021 -0.059 -0.059
 0.614  1.435  0.278  0.065 -0.021 -0.059 -0.059
 0.616  1.435  0.279  0.065 -0.020 -0.058 -0.058
 0.618  1.434  0.279  0.065 -0.019 -0.058 -0.058
 0.620  1.434  0.279  0.065 -0.018 -0.057 -0.057
 0.622  1.434  0.279  0.065 -0.018 -0.057 -0.057
 0.624  1.434  0.279  0.065 -0.016 -0.056 -0.056
 0.626  1.434  0.279  0.065 -0.016 -0.055 -0.055
 0.628  1.433  0.280  0.065 -0.015 -0.055 -0.055
 0.630  1.433  0.280  0.065 -0.014 -0.054 -0.054
 0.632  1.433  0.280  0.065 -0.013 -0.054 -0.054
 0.634  1.433  0.280  0.065 -0.012 -0.053 -0.053
 0.636  1.433  0.280  0.065 -0.011 -0.053 -0.053
 0.638  1.433  0.280  0.065 -0.011 -0.052 -0.052
 0.640  1.433  0.280  0.065 -0.010 -0.052 -0.052
 0.642  1.433  0.280  0.065 -0.009 -0.052 -0.052
 0.644  1.433  0.280  0.065 -0.007 -0.051 -0.051
 0.646  1.431  0.280  0.066 -0.006 -0.050 -0.050
 0.648  1.431  0.280  0.066 -0.006 -0.050 -0.050
 0.650  1.431  0.280  0.066 -0.005 -0.049 -0.049
 0.652  1.431  0.280  0.066 -0.004 -0.049 -0.049
 0.654  1.431  0.280  0.067 -0.003 -0.048 -0.048
 0.656  1.431  0.280  0.067 -0.002 -0.048 -0.048
 0.658  1.431  0.279  0.068 -0.001 -0.048 -0.048
 0.660  1.431  0.279  0.068  0.000 -0.047 -0.047
 0.662  1.431  0.279  0.068  0.002 -0.046 -0.046
 0.664  1.433  0.279  0.069  0.003 -0.046 -0.046
 0.666  1.433  0.278  0.070  0.004 -0.046 -0.046
 0.668  1.433  0.278  0.070  0.005 -0.045 -0.045
 0.670  1.431  0.278  0.071  0.007 -0.045 -0.045
 0.672  1.431  0.277  0.072  0.008 -0.045 -0.045
 0.674  1.431  0.277  0.073  0.009 -0.045 -0.045
 0.676  1.431  0.276  0.074  0.011 -0.044 -0.044
 0.678  1.431  0.276  0.075  0.013 -0.044 -0.044
 0.680  1.431  0.275  0.076  0.014 -0.044 -0.044
 0.682  1.431  0.275  0.077  0.016 -0.044 -0.044
 0.684  1.431  0.274  0.078  0.017 -0.044 -0.044
 0.686  1.431  0.274  0.079  0.020 -0.043 -0.043
 0.688  1.430  0.273  0.080  0.021 -0.043 -0.043
 0.690  1.430  0.272  0.081  0.023 -0.043 -0.043
 0.692  1.430  0.272  0.083  0.025 -0.043 -0.043
 0.694  1.430  0.271  0.084  0.027 -0.043 -0.043
 0.696  1.430  0.270  0.085  0.029 -0.042 -0.042
 0.698  1.430  0.269  0.087  0.031 -0.042 -0.042
 0.700  1.429  0.268  0.088  0.033 -0.042 -0.042
 0.702  1.429  0.268  0.089  0.035 -0.042 -0.042
 0.704  1.429  0.267  0.092  0.038 -0.041 -0.041
 0.706  1.429  0.266  0.093  0.040 -0.041 -0.041
 0.708  1.428  0.264  0.095  0.043 -0.041 -0.041
 0.710  1.428  0.263  0.096  0.045 -0.041 -0.041
 0.712  1.428  0.262  0.098  0.048 -0.041 -0.041
 0.714  1.427  0.261  0.100  0.051 -0.041 -0.041
 0.716  1.427  0.260  0.102  0.053 -0.042 -0.042
 0.718  1.426  0.259  0.104  0.056 -0.042 -0.042
 0.720  1.426  0.258  0.106  0.059 -0.042 -0.042
 0.722  1.426  0.257  0.108  0.062 -0.042 -0.042
 0.724  1.425  0.256  0.110  0.065 -0.042 -0.042
 0.726  1.425  0.255  0.112  0.068 -0.042 -0.042
 0.728  1.425  0.255  0.114  0.071 -0.042 -0.042
 0.730  1.424  0.254  0.117  0.074 -0.042 -0.042
 0.732  1.424  0.254  0.119  0.077 -0.041 -0.041
 0.734  1.424  0.254  0.122  0.080 -0.041 -0.041
 0.736  1.424  0.254  0.124  0.083 -0.041 -0.041
 0.738  1.424  0.254  0.127  0.086 -0.040 -0.040
 0.740  1.424  0.254  0.129  0.089 -0.039 -0.039
 0.742  1.424  0.255  0.132  0.092 -0.039 -0.039
 0.744  1.425  0.256  0.134  0.094 -0.038 -0.038
 0.746  1.426  0.256  0.137  0.097 -0.036 -0.036
 0.748  1.426  0.257  0.140  0.099 -0.035 -0.035
 0.750  1.427  0.258  0.143  0.101 -0.034 -0.034
 0.752  1.428  0.259  0.146  0.103 -0.033 -0.033
 0.754  1.430  0.261  0.149  0.105 -0.031 -0.031
 0.756  1.431  0.262  0.152  0.106 -0.030 -0.030
 0.758  1.434  0.263  0.155  0.107 -0.028 -0.028
 0.760  1.436  0.266  0.158  0.108 -0.026 -0.026
 0.762  1.438  0.268  0.161  0.109 -0.024 -0.024
 0.764  1.440  0.269  0.164  0.110 -0.021 -0.021
 0.766  1.443  0.271  0.168  0.110 -0.019 -0.019
 0.768  1.446  0.274  0.171  0.110 -0.017 -0.017
 0.770  1.449  0.276  0.174  0.110 -0.014 -0.014
 0.772  1.451  0.279  0.178  0.110 -0.011 -0.011
 0.774  1.455  0.281  0.182  0.110 -0.009 -0.009
 0.776  1.458  0.285  0.185  0.109 -0.005 -0.005
 0.778  1.461  0.288  0.189  0.108 -0.002 -0.002
 0.780  1.465  0.291  0.192  0.107  0.001  0.001
 0.782  1.469  0.295  0.196  0.106  0.004  0.004
 0.784  1.474  0.298  0.199  0.105  0.008  0.008
 0.786  1.477  0.302  0.202  0.104  0.011  0.011
 0.788  1.481  0.306  0.204  0.103  0.015  0.015
 0.790  1.487  0.309  0.206  0.101  0.019  0.019
 0.792  1.491  0.312  0.207  0.099  0.023  0.023
 0.794  1.497  0.316  0.209  0.096  0.027  0.027
 0.796  1.503  0.320  0.210  0.094  0.031  0.031
 0.798  1.508  0.323  0.210  0.092  0.035  0.035
 0.800  1.513  0.326  0.210  0.089  0.039  0.039
 0.802  1.518  0.330  0.209  0.086  0.043  0.043
 0.804  1.524  0.332  0.208  0.083  0.047  0.047
 0.806  1.528  0.335  0.207  0.079  0.050  0.050
 0.808  1.533  0.339  0.205  0.076  0.053  0.053
