# IsPeriodic    : True
# Period        : 0.513425 days
# Normalization : <g_mag>=0
# 
# Phase u_mag  g_mag  r_mag  i_mag  z_mag  y_mag
 0.000  0.291 -0.920 -0.727 -0.620 -0.546 -0.546
 0.002  0.291 -0.918 -0.727 -0.620 -0.546 -0.546
 0.004  0.292 -0.917 -0.727 -0.619 -0.545 -0.545
 0.006  0.293 -0.914 -0.726 -0.618 -0.545 -0.545
 0.008  0.295 -0.912 -0.723 -0.615 -0.544 -0.544
 0.010  0.297 -0.908 -0.722 -0.612 -0.542 -0.542
 0.012  0.300 -0.902 -0.720 -0.609 -0.541 -0.541
 0.014  0.303 -0.895 -0.718 -0.604 -0.540 -0.540
 0.016  0.307 -0.889 -0.715 -0.600 -0.538 -0.538
 0.018  0.309 -0.882 -0.712 -0.594 -0.536 -0.536
 0.020  0.313 -0.875 -0.710 -0.589 -0.534 -0.534
 0.022  0.317 -0.868 -0.707 -0.583 -0.532 -0.532
 0.024  0.322 -0.860 -0.704 -0.577 -0.530 -0.530
 0.026  0.326 -0.853 -0.700 -0.572 -0.528 -0.528
 0.028  0.330 -0.845 -0.697 -0.567 -0.525 -0.525
 0.030  0.336 -0.839 -0.694 -0.562 -0.523 -0.523
 0.032  0.341 -0.832 -0.690 -0.557 -0.521 -0.521
 0.034  0.346 -0.825 -0.687 -0.552 -0.519 -0.519
 0.036  0.352 -0.818 -0.683 -0.547 -0.516 -0.516
 0.038  0.358 -0.811 -0.680 -0.542 -0.514 -0.514
 0.040  0.364 -0.805 -0.676 -0.537 -0.512 -0.512
 0.042  0.370 -0.798 -0.672 -0.533 -0.509 -0.509
 0.044  0.377 -0.791 -0.667 -0.528 -0.506 -0.506
 0.046  0.384 -0.784 -0.663 -0.524 -0.504 -0.504
 0.048  0.390 -0.778 -0.658 -0.519 -0.501 -0.501
 0.050  0.398 -0.769 -0.654 -0.515 -0.498 -0.498
 0.052  0.406 -0.763 -0.649 -0.511 -0.495 -0.495
 0.054  0.414 -0.755 -0.644 -0.506 -0.492 -0.492
 0.056  0.422 -0.746 -0.639 -0.502 -0.488 -0.488
 0.058  0.430 -0.740 -0.634 -0.498 -0.486 -0.486
 0.060  0.439 -0.731 -0.629 -0.493 -0.482 -0.482
 0.062  0.447 -0.723 -0.623 -0.489 -0.479 -0.479
 0.064  0.457 -0.715 -0.618 -0.485 -0.475 -0.475
 0.066  0.466 -0.707 -0.611 -0.481 -0.472 -0.472
 0.068  0.477 -0.699 -0.605 -0.478 -0.468 -0.468
 0.070  0.486 -0.691 -0.599 -0.474 -0.465 -0.465
 0.072  0.497 -0.683 -0.593 -0.470 -0.460 -0.460
 0.074  0.506 -0.675 -0.587 -0.466 -0.457 -0.457
 0.076  0.517 -0.666 -0.581 -0.463 -0.453 -0.453
 0.078  0.526 -0.658 -0.575 -0.460 -0.449 -0.449
 0.080  0.537 -0.650 -0.569 -0.456 -0.446 -0.446
 0.082  0.547 -0.642 -0.561 -0.453 -0.442 -0.442
 0.084  0.556 -0.634 -0.555 -0.450 -0.438 -0.438
 0.086  0.566 -0.626 -0.549 -0.447 -0.434 -0.434
 0.088  0.575 -0.618 -0.544 -0.443 -0.431 -0.431
 0.090  0.584 -0.610 -0.538 -0.440 -0.427 -0.427
 0.092  0.594 -0.601 -0.532 -0.437 -0.424 -0.424
 0.094  0.603 -0.595 -0.526 -0.434 -0.420 -0.420
 0.096  0.611 -0.587 -0.521 -0.431 -0.417 -0.417
 0.098  0.620 -0.578 -0.516 -0.428 -0.413 -0.413
 0.100  0.628 -0.570 -0.509 -0.424 -0.410 -0.410
 0.102  0.636 -0.563 -0.504 -0.422 -0.407 -0.407
 0.104  0.644 -0.555 -0.499 -0.419 -0.404 -0.404
 0.106  0.652 -0.547 -0.494 -0.415 -0.401 -0.401
 0.108  0.660 -0.540 -0.488 -0.413 -0.398 -0.398
 0.110  0.667 -0.534 -0.483 -0.409 -0.394 -0.394
 0.112  0.675 -0.526 -0.479 -0.406 -0.392 -0.392
 0.114  0.681 -0.519 -0.474 -0.404 -0.389 -0.389
 0.116  0.689 -0.512 -0.469 -0.400 -0.386 -0.386
 0.118  0.696 -0.505 -0.464 -0.397 -0.383 -0.383
 0.120  0.703 -0.498 -0.460 -0.395 -0.380 -0.380
 0.122  0.709 -0.492 -0.454 -0.391 -0.377 -0.377
 0.124  0.716 -0.485 -0.450 -0.389 -0.375 -0.375
 0.126  0.723 -0.478 -0.445 -0.386 -0.372 -0.372
 0.128  0.728 -0.471 -0.441 -0.382 -0.370 -0.370
 0.130  0.735 -0.465 -0.437 -0.380 -0.367 -0.367
 0.132  0.740 -0.458 -0.433 -0.377 -0.364 -0.364
 0.134  0.745 -0.452 -0.429 -0.374 -0.362 -0.362
 0.136  0.751 -0.446 -0.425 -0.371 -0.360 -0.360
 0.138  0.756 -0.439 -0.421 -0.368 -0.357 -0.357
 0.140  0.761 -0.433 -0.417 -0.365 -0.355 -0.355
 0.142  0.767 -0.427 -0.413 -0.363 -0.353 -0.353
 0.144  0.771 -0.421 -0.410 -0.359 -0.351 -0.351
 0.146  0.776 -0.414 -0.406 -0.357 -0.349 -0.349
 0.148  0.781 -0.409 -0.402 -0.354 -0.347 -0.347
 0.150  0.785 -0.404 -0.398 -0.351 -0.344 -0.344
 0.152  0.790 -0.398 -0.394 -0.349 -0.342 -0.342
 0.154  0.794 -0.391 -0.391 -0.345 -0.340 -0.340
 0.156  0.800 -0.386 -0.388 -0.343 -0.338 -0.338
 0.158  0.804 -0.381 -0.384 -0.340 -0.336 -0.336
 0.160  0.809 -0.375 -0.381 -0.337 -0.334 -0.334
 0.162  0.813 -0.370 -0.377 -0.335 -0.332 -0.332
 0.164  0.818 -0.364 -0.374 -0.332 -0.330 -0.330
 0.166  0.822 -0.359 -0.371 -0.329 -0.328 -0.328
 0.168  0.828 -0.353 -0.367 -0.326 -0.326 -0.326
 0.170  0.833 -0.348 -0.364 -0.324 -0.323 -0.323
 0.172  0.837 -0.343 -0.360 -0.321 -0.321 -0.321
 0.174  0.842 -0.336 -0.357 -0.318 -0.319 -0.319
 0.176  0.848 -0.330 -0.354 -0.316 -0.317 -0.317
 0.178  0.852 -0.325 -0.349 -0.313 -0.315 -0.315
 0.180  0.857 -0.320 -0.346 -0.311 -0.313 -0.313
 0.182  0.862 -0.314 -0.343 -0.308 -0.311 -0.311
 0.184  0.866 -0.309 -0.339 -0.306 -0.309 -0.309
 0.186  0.872 -0.303 -0.336 -0.303 -0.307 -0.307
 0.188  0.877 -0.298 -0.333 -0.301 -0.304 -0.304
 0.190  0.882 -0.293 -0.329 -0.298 -0.302 -0.302
 0.192  0.886 -0.287 -0.326 -0.296 -0.301 -0.301
 0.194  0.891 -0.282 -0.323 -0.293 -0.299 -0.299
 0.196  0.897 -0.276 -0.320 -0.291 -0.297 -0.297
 0.198  0.902 -0.271 -0.316 -0.288 -0.295 -0.295
 0.200  0.906 -0.265 -0.313 -0.286 -0.293 -0.293
 0.202  0.911 -0.260 -0.310 -0.284 -0.290 -0.290
 0.204  0.917 -0.255 -0.307 -0.282 -0.288 -0.288
 0.206  0.922 -0.249 -0.304 -0.279 -0.286 -0.286
 0.208  0.927 -0.244 -0.300 -0.277 -0.284 -0.284
 0.210  0.931 -0.238 -0.296 -0.274 -0.282 -0.282
 0.212  0.937 -0.233 -0.293 -0.273 -0.280 -0.280
 0.214  0.942 -0.229 -0.290 -0.270 -0.278 -0.278
 0.216  0.947 -0.223 -0.287 -0.268 -0.276 -0.276
 0.218  0.953 -0.218 -0.284 -0.266 -0.274 -0.274
 0.220  0.958 -0.213 -0.281 -0.264 -0.271 -0.271
 0.222  0.963 -0.207 -0.277 -0.261 -0.269 -0.269
 0.224  0.967 -0.202 -0.274 -0.260 -0.267 -0.267
 0.226  0.973 -0.196 -0.271 -0.257 -0.265 -0.265
 0.228  0.978 -0.191 -0.268 -0.256 -0.264 -0.264
 0.230  0.983 -0.187 -0.265 -0.253 -0.262 -0.262
 0.232  0.987 -0.181 -0.262 -0.251 -0.260 -0.260
 0.234  0.993 -0.176 -0.259 -0.249 -0.257 -0.257
 0.236  0.997 -0.171 -0.256 -0.247 -0.255 -0.255
 0.238  1.002 -0.167 -0.253 -0.245 -0.253 -0.253
 0.240  1.007 -0.161 -0.250 -0.243 -0.252 -0.252
 0.242  1.011 -0.156 -0.247 -0.241 -0.250 -0.250
 0.244  1.016 -0.152 -0.244 -0.239 -0.248 -0.248
 0.246  1.020 -0.146 -0.240 -0.237 -0.245 -0.245
 0.248  1.024 -0.142 -0.237 -0.235 -0.244 -0.244
 0.250  1.030 -0.137 -0.234 -0.233 -0.242 -0.242
 0.252  1.034 -0.131 -0.231 -0.231 -0.240 -0.240
 0.254  1.039 -0.127 -0.229 -0.229 -0.238 -0.238
 0.256  1.043 -0.123 -0.226 -0.227 -0.236 -0.236
 0.258  1.047 -0.118 -0.223 -0.225 -0.234 -0.234
 0.260  1.051 -0.114 -0.220 -0.223 -0.233 -0.233
 0.262  1.056 -0.108 -0.217 -0.221 -0.231 -0.231
 0.264  1.060 -0.104 -0.214 -0.218 -0.229 -0.229
 0.266  1.064 -0.100 -0.211 -0.217 -0.227 -0.227
 0.268  1.068 -0.096 -0.209 -0.214 -0.226 -0.226
 0.270  1.072 -0.091 -0.206 -0.213 -0.224 -0.224
 0.272  1.076 -0.087 -0.203 -0.211 -0.222 -0.222
 0.274  1.080 -0.083 -0.200 -0.209 -0.220 -0.220
 0.276  1.084 -0.078 -0.198 -0.207 -0.219 -0.219
 0.278  1.088 -0.074 -0.195 -0.204 -0.217 -0.217
 0.280  1.092 -0.070 -0.192 -0.203 -0.215 -0.215
 0.282  1.096 -0.065 -0.189 -0.200 -0.213 -0.213
 0.284  1.100 -0.061 -0.186 -0.199 -0.212 -0.212
 0.286  1.104 -0.057 -0.183 -0.197 -0.210 -0.210
 0.288  1.108 -0.053 -0.180 -0.195 -0.208 -0.208
 0.290  1.112 -0.049 -0.178 -0.193 -0.207 -0.207
 0.292  1.115 -0.046 -0.175 -0.191 -0.205 -0.205
 0.294  1.119 -0.042 -0.172 -0.189 -0.203 -0.203
 0.296  1.123 -0.038 -0.170 -0.187 -0.202 -0.202
 0.298  1.127 -0.034 -0.167 -0.185 -0.200 -0.200
 0.300  1.131 -0.030 -0.165 -0.183 -0.198 -0.198
 0.302  1.133 -0.026 -0.162 -0.181 -0.197 -0.197
 0.304  1.137 -0.022 -0.159 -0.179 -0.195 -0.195
 0.306  1.141 -0.017 -0.157 -0.177 -0.194 -0.194
 0.308  1.145 -0.015 -0.154 -0.175 -0.192 -0.192
 0.310  1.149 -0.011 -0.151 -0.173 -0.190 -0.190
 0.312  1.152 -0.007 -0.149 -0.171 -0.189 -0.189
 0.314  1.156 -0.003 -0.146 -0.169 -0.187 -0.187
 0.316  1.160  0.001 -0.144 -0.167 -0.185 -0.185
 0.318  1.164  0.006 -0.141 -0.165 -0.184 -0.184
 0.320  1.168  0.008 -0.138 -0.163 -0.182 -0.182
 0.322  1.171  0.012 -0.135 -0.161 -0.180 -0.180
 0.324  1.175  0.016 -0.132 -0.159 -0.179 -0.179
 0.326  1.179  0.020 -0.130 -0.157 -0.177 -0.177
 0.328  1.183  0.025 -0.127 -0.155 -0.175 -0.175
 0.330  1.185  0.027 -0.124 -0.153 -0.174 -0.174
 0.332  1.189  0.031 -0.122 -0.151 -0.172 -0.172
 0.334  1.193  0.035 -0.119 -0.149 -0.171 -0.171
 0.336  1.197  0.039 -0.117 -0.147 -0.169 -0.169
 0.338  1.200  0.043 -0.114 -0.144 -0.168 -0.168
 0.340  1.204  0.046 -0.112 -0.143 -0.166 -0.166
 0.342  1.208  0.050 -0.109 -0.141 -0.164 -0.164
 0.344  1.212  0.054 -0.106 -0.139 -0.163 -0.163
 0.346  1.216  0.058 -0.104 -0.137 -0.161 -0.161
 0.348  1.219  0.061 -0.101 -0.135 -0.159 -0.159
 0.350  1.223  0.065 -0.099 -0.133 -0.158 -0.158
 0.352  1.226  0.069 -0.096 -0.130 -0.156 -0.156
 0.354  1.230  0.073 -0.094 -0.129 -0.154 -0.154
 0.356  1.233  0.076 -0.091 -0.126 -0.153 -0.153
 0.358  1.237  0.080 -0.089 -0.125 -0.151 -0.151
 0.360  1.241  0.084 -0.086 -0.122 -0.150 -0.150
 0.362  1.244  0.087 -0.084 -0.121 -0.148 -0.148
 0.364  1.248  0.091 -0.080 -0.118 -0.146 -0.146
 0.366  1.252  0.095 -0.078 -0.116 -0.145 -0.145
 0.368  1.256  0.099 -0.075 -0.114 -0.143 -0.143
 0.370  1.258  0.102 -0.073 -0.112 -0.142 -0.142
 0.372  1.262  0.106 -0.070 -0.110 -0.140 -0.140
 0.374  1.266  0.110 -0.067 -0.108 -0.138 -0.138
 0.376  1.269  0.113 -0.065 -0.106 -0.137 -0.137
 0.378  1.273  0.117 -0.062 -0.103 -0.135 -0.135
 0.380  1.277  0.121 -0.060 -0.102 -0.133 -0.133
 0.382  1.280  0.125 -0.057 -0.099 -0.132 -0.132
 0.384  1.284  0.127 -0.055 -0.097 -0.130 -0.130
 0.386  1.286  0.132 -0.052 -0.096 -0.128 -0.128
 0.388  1.290  0.136 -0.050 -0.093 -0.126 -0.126
 0.390  1.294  0.140 -0.047 -0.092 -0.125 -0.125
 0.392  1.297  0.142 -0.045 -0.089 -0.123 -0.123
 0.394  1.301  0.146 -0.042 -0.088 -0.121 -0.121
 0.396  1.304  0.151 -0.040 -0.085 -0.119 -0.119
 0.398  1.308  0.155 -0.037 -0.083 -0.118 -0.118
 0.400  1.310  0.157 -0.035 -0.081 -0.116 -0.116
 0.402  1.314  0.161 -0.032 -0.079 -0.114 -0.114
 0.404  1.317  0.165 -0.028 -0.078 -0.112 -0.112
 0.406  1.321  0.169 -0.026 -0.075 -0.111 -0.111
 0.408  1.324  0.174 -0.023 -0.074 -0.109 -0.109
 0.410  1.328  0.176 -0.021 -0.072 -0.106 -0.106
 0.412  1.330  0.180 -0.018 -0.069 -0.105 -0.105
 0.414  1.334  0.184 -0.016 -0.068 -0.103 -0.103
 0.416  1.337  0.188 -0.013 -0.066 -0.102 -0.102
 0.418  1.341  0.193 -0.011 -0.064 -0.099 -0.099
 0.420  1.343  0.195 -0.008 -0.062 -0.097 -0.097
 0.422  1.347  0.199 -0.006 -0.060 -0.096 -0.096
 0.424  1.350  0.203 -0.003 -0.058 -0.094 -0.094
 0.426  1.353  0.207  0.000 -0.056 -0.092 -0.092
 0.428  1.357  0.211  0.002 -0.055 -0.090 -0.090
 0.430  1.359  0.216  0.005 -0.053 -0.088 -0.088
 0.432  1.362  0.218  0.007 -0.051 -0.086 -0.086
 0.434  1.366  0.222  0.010 -0.049 -0.085 -0.085
 0.436  1.369  0.226  0.012 -0.047 -0.083 -0.083
 0.438  1.371  0.230  0.015 -0.046 -0.080 -0.080
 0.440  1.375  0.235  0.017 -0.043 -0.079 -0.079
 0.442  1.378  0.239  0.020 -0.042 -0.077 -0.077
 0.444  1.381  0.241  0.022 -0.040 -0.075 -0.075
 0.446  1.383  0.245  0.025 -0.038 -0.073 -0.073
 0.448  1.386  0.249  0.028 -0.037 -0.071 -0.071
 0.450  1.390  0.252  0.030 -0.034 -0.070 -0.070
 0.452  1.393  0.256  0.032 -0.032 -0.068 -0.068
 0.454  1.395  0.259  0.035 -0.031 -0.066 -0.066
 0.456  1.398  0.262  0.037 -0.029 -0.064 -0.064
 0.458  1.401  0.266  0.039 -0.028 -0.063 -0.063
 0.460  1.403  0.268  0.041 -0.026 -0.061 -0.061
 0.462  1.406  0.271  0.044 -0.024 -0.059 -0.059
 0.464  1.409  0.274  0.046 -0.022 -0.058 -0.058
 0.466  1.411  0.277  0.048 -0.020 -0.056 -0.056
 0.468  1.414  0.279  0.050 -0.018 -0.055 -0.055
 0.470  1.417  0.282  0.052 -0.017 -0.053 -0.053
 0.472  1.419  0.285  0.054 -0.015 -0.051 -0.051
 0.474  1.422  0.287  0.056 -0.014 -0.050 -0.050
 0.476  1.423  0.290  0.058 -0.012 -0.048 -0.048
 0.478  1.426  0.293  0.060 -0.010 -0.047 -0.047
 0.480  1.429  0.294  0.062 -0.009 -0.045 -0.045
 0.482  1.431  0.297  0.064 -0.006 -0.043 -0.043
 0.484  1.433  0.300  0.066 -0.004 -0.042 -0.042
 0.486  1.435  0.301  0.068 -0.003 -0.040 -0.040
 0.488  1.438  0.304  0.070 -0.001 -0.039 -0.039
 0.490  1.441  0.305  0.072  0.000 -0.038 -0.038
 0.492  1.442  0.306  0.073  0.002 -0.036 -0.036
 0.494  1.445  0.309  0.075  0.004 -0.035 -0.035
 0.496  1.447  0.310  0.078  0.005 -0.033 -0.033
 0.498  1.449  0.312  0.080  0.007 -0.032 -0.032
 0.500  1.451  0.313  0.082  0.009 -0.031 -0.031
 0.502  1.452  0.314  0.083  0.010 -0.029 -0.029
 0.504  1.455  0.316  0.085  0.012 -0.028 -0.028
 0.506  1.456  0.317  0.087  0.014 -0.026 -0.026
 0.508  1.459  0.319  0.088  0.015 -0.025 -0.025
 0.510  1.460  0.320  0.090  0.017 -0.024 -0.024
 0.512  1.462  0.321  0.091  0.019 -0.023 -0.023
 0.514  1.464  0.323  0.093  0.020 -0.022 -0.022
 0.516  1.466  0.323  0.094  0.022 -0.020 -0.020
 0.518  1.467  0.324  0.096  0.024 -0.019 -0.019
 0.520  1.468  0.325  0.097  0.025 -0.018 -0.018
 0.522  1.470  0.325  0.099  0.026 -0.017 -0.017
 0.524  1.471  0.327  0.100  0.028 -0.015 -0.015
 0.526  1.472  0.328  0.101  0.029 -0.014 -0.014
 0.528  1.474  0.329  0.103  0.031 -0.013 -0.013
 0.530  1.475  0.329  0.104  0.032 -0.012 -0.012
 0.532  1.476  0.331  0.105  0.033 -0.011 -0.011
 0.534  1.478  0.331  0.106  0.034 -0.010 -0.010
 0.536  1.479  0.332  0.108  0.036 -0.009 -0.009
 0.538  1.480  0.333  0.109  0.037 -0.007 -0.007
 0.540  1.480  0.333  0.110  0.038 -0.007 -0.007
 0.542  1.482  0.335  0.111  0.039 -0.005 -0.005
 0.544  1.483  0.336  0.112  0.040 -0.005 -0.005
 0.546  1.483  0.336  0.113  0.041 -0.004 -0.004
 0.548  1.484  0.337  0.114  0.042 -0.003 -0.003
 0.550  1.484  0.337  0.115  0.042 -0.002 -0.002
 0.552  1.486  0.339  0.116  0.043 -0.000 -0.000
 0.554  1.486  0.339  0.117  0.044  0.000  0.000
 0.556  1.487  0.340  0.118  0.045  0.001  0.001
 0.558  1.487  0.340  0.118  0.046  0.002  0.002
 0.560  1.487  0.342  0.119  0.047  0.003  0.003
 0.562  1.488  0.342  0.120  0.047  0.004  0.004
 0.564  1.488  0.343  0.121  0.047  0.004  0.004
 0.566  1.488  0.343  0.121  0.048  0.005  0.005
 0.568  1.488  0.343  0.122  0.048  0.006  0.006
 0.570  1.488  0.344  0.123  0.049  0.007  0.007
 0.572  1.488  0.344  0.123  0.049  0.008  0.008
 0.574  1.488  0.346  0.124  0.049  0.009  0.009
 0.576  1.488  0.346  0.125  0.050  0.009  0.009
 0.578  1.488  0.346  0.125  0.050  0.010  0.010
 0.580  1.488  0.347  0.126  0.050  0.011  0.011
 0.582  1.488  0.347  0.126  0.050  0.011  0.011
 0.584  1.488  0.347  0.127  0.050  0.012  0.012
 0.586  1.488  0.348  0.127  0.050  0.013  0.013
 0.588  1.488  0.348  0.128  0.050  0.014  0.014
 0.590  1.488  0.348  0.128  0.050  0.014  0.014
 0.592  1.488  0.348  0.129  0.050  0.015  0.015
 0.594  1.488  0.350  0.129  0.050  0.016  0.016
 0.596  1.488  0.350  0.129  0.050  0.016  0.016
 0.598  1.488  0.350  0.130  0.051  0.016  0.016
 0.600  1.488  0.350  0.130  0.051  0.017  0.017
 0.602  1.488  0.351  0.132  0.051  0.018  0.018
 0.604  1.488  0.351  0.132  0.051  0.019  0.019
 0.606  1.488  0.351  0.132  0.051  0.019  0.019
 0.608  1.488  0.351  0.133  0.051  0.019  0.019
 0.610  1.488  0.351  0.133  0.051  0.020  0.020
 0.612  1.488  0.352  0.133  0.052  0.021  0.021
 0.614  1.487  0.352  0.134  0.052  0.021  0.021
 0.616  1.487  0.352  0.134  0.052  0.021  0.021
 0.618  1.487  0.352  0.134  0.052  0.022  0.022
 0.620  1.487  0.352  0.135  0.052  0.023  0.023
 0.622  1.487  0.352  0.135  0.052  0.023  0.023
 0.624  1.487  0.352  0.135  0.053  0.023  0.023
 0.626  1.487  0.354  0.135  0.053  0.024  0.024
 0.628  1.487  0.354  0.136  0.053  0.024  0.024
 0.630  1.487  0.354  0.136  0.054  0.025  0.025
 0.632  1.487  0.354  0.136  0.054  0.026  0.026
 0.634  1.487  0.354  0.136  0.055  0.026  0.026
 0.636  1.487  0.354  0.136  0.055  0.026  0.026
 0.638  1.487  0.354  0.137  0.056  0.026  0.026
 0.640  1.487  0.354  0.137  0.056  0.027  0.027
 0.642  1.487  0.354  0.137  0.056  0.027  0.027
 0.644  1.487  0.354  0.137  0.057  0.028  0.028
 0.646  1.487  0.354  0.137  0.057  0.028  0.028
 0.648  1.486  0.354  0.137  0.058  0.028  0.028
 0.650  1.486  0.354  0.137  0.059  0.028  0.028
 0.652  1.486  0.354  0.137  0.060  0.029  0.029
 0.654  1.486  0.354  0.137  0.060  0.029  0.029
 0.656  1.486  0.354  0.137  0.061  0.029  0.029
 0.658  1.486  0.354  0.137  0.061  0.030  0.030
 0.660  1.486  0.354  0.137  0.062  0.030  0.030
 0.662  1.486  0.352  0.137  0.062  0.030  0.030
 0.664  1.484  0.352  0.137  0.063  0.030  0.030
 0.666  1.484  0.352  0.137  0.064  0.031  0.031
 0.668  1.484  0.352  0.137  0.064  0.031  0.031
 0.670  1.484  0.352  0.136  0.065  0.031  0.031
 0.672  1.484  0.351  0.136  0.066  0.032  0.032
 0.674  1.483  0.351  0.136  0.066  0.032  0.032
 0.676  1.483  0.351  0.136  0.066  0.033  0.033
 0.678  1.483  0.350  0.135  0.066  0.033  0.033
 0.680  1.483  0.350  0.135  0.066  0.033  0.033
 0.682  1.482  0.348  0.135  0.066  0.033  0.033
 0.684  1.482  0.348  0.134  0.066  0.034  0.034
 0.686  1.482  0.348  0.134  0.067  0.034  0.034
 0.688  1.482  0.347  0.133  0.067  0.034  0.034
 0.690  1.480  0.347  0.133  0.067  0.035  0.035
 0.692  1.480  0.346  0.132  0.067  0.035  0.035
 0.694  1.480  0.346  0.132  0.067  0.035  0.035
 0.696  1.479  0.344  0.130  0.067  0.035  0.035
 0.698  1.479  0.343  0.130  0.067  0.036  0.036
 0.700  1.478  0.343  0.129  0.067  0.036  0.036
 0.702  1.478  0.342  0.129  0.067  0.036  0.036
 0.704  1.478  0.340  0.128  0.066  0.037  0.037
 0.706  1.476  0.340  0.127  0.066  0.037  0.037
 0.708  1.476  0.339  0.126  0.066  0.037  0.037
 0.710  1.475  0.337  0.126  0.066  0.037  0.037
 0.712  1.475  0.336  0.125  0.066  0.038  0.038
 0.714  1.474  0.335  0.124  0.065  0.038  0.038
 0.716  1.474  0.335  0.123  0.064  0.038  0.038
 0.718  1.474  0.333  0.123  0.064  0.039  0.039
 0.720  1.472  0.332  0.122  0.063  0.039  0.039
 0.722  1.472  0.331  0.121  0.062  0.040  0.040
 0.724  1.471  0.329  0.121  0.061  0.040  0.040
 0.726  1.471  0.328  0.120  0.061  0.040  0.040
 0.728  1.471  0.327  0.119  0.061  0.041  0.041
 0.730  1.471  0.327  0.119  0.060  0.041  0.041
 0.732  1.471  0.325  0.119  0.060  0.042  0.042
 0.734  1.471  0.324  0.119  0.059  0.042  0.042
 0.736  1.471  0.324  0.119  0.059  0.043  0.043
 0.738  1.471  0.324  0.119  0.059  0.044  0.044
 0.740  1.471  0.323  0.119  0.058  0.044  0.044
 0.742  1.471  0.323  0.119  0.059  0.045  0.045
 0.744  1.471  0.323  0.119  0.059  0.047  0.047
 0.746  1.471  0.323  0.120  0.060  0.047  0.047
 0.748  1.472  0.323  0.120  0.060  0.048  0.048
 0.750  1.472  0.323  0.121  0.061  0.049  0.049
 0.752  1.472  0.324  0.121  0.062  0.050  0.050
 0.754  1.474  0.324  0.122  0.063  0.051  0.051
 0.756  1.474  0.324  0.123  0.065  0.052  0.052
 0.758  1.475  0.325  0.124  0.067  0.054  0.054
 0.760  1.475  0.325  0.125  0.069  0.054  0.054
 0.762  1.476  0.327  0.126  0.071  0.056  0.056
 0.764  1.478  0.328  0.127  0.074  0.057  0.057
 0.766  1.479  0.329  0.128  0.076  0.059  0.059
 0.768  1.479  0.331  0.130  0.079  0.060  0.060
 0.770  1.480  0.332  0.132  0.081  0.061  0.061
 0.772  1.482  0.333  0.134  0.084  0.063  0.063
 0.774  1.483  0.336  0.136  0.088  0.064  0.064
 0.776  1.484  0.337  0.137  0.091  0.066  0.066
 0.778  1.486  0.340  0.139  0.094  0.068  0.068
 0.780  1.487  0.342  0.141  0.098  0.069  0.069
 0.782  1.488  0.344  0.143  0.103  0.071  0.071
 0.784  1.491  0.347  0.146  0.107  0.073  0.073
 0.786  1.492  0.350  0.148  0.111  0.075  0.075
 0.788  1.494  0.351  0.150  0.116  0.076  0.076
 0.790  1.496  0.354  0.152  0.120  0.078  0.078
 0.792  1.498  0.356  0.155  0.126  0.080  0.080
 0.794  1.499  0.359  0.157  0.131  0.082  0.082
 0.796  1.502  0.363  0.160  0.136  0.084  0.084
 0.798  1.504  0.366  0.162  0.141  0.085  0.085
 0.800  1.506  0.369  0.165  0.147  0.087  0.087
 0.802  1.508  0.371  0.168  0.153  0.089  0.089
 0.804  1.511  0.374  0.171  0.159  0.092  0.092
 0.806  1.514  0.377  0.174  0.163  0.093  0.093
 0.808  1.516  0.379  0.177  0.168  0.095  0.095
