# IsPeriodic    : True
# Period        : 0.519668 days
# Normalization : <g_mag>=0
# 
# Phase u_mag  g_mag  r_mag  i_mag  z_mag  y_mag
 0.000  0.343 -0.838 -0.700 -0.597 -0.513 -0.513
 0.002  0.343 -0.838 -0.700 -0.597 -0.513 -0.513
 0.004  0.343 -0.838 -0.700 -0.596 -0.513 -0.513
 0.006  0.344 -0.837 -0.699 -0.595 -0.512 -0.512
 0.008  0.345 -0.836 -0.697 -0.594 -0.512 -0.512
 0.010  0.348 -0.833 -0.696 -0.592 -0.512 -0.512
 0.012  0.349 -0.831 -0.694 -0.591 -0.511 -0.511
 0.014  0.351 -0.828 -0.692 -0.588 -0.510 -0.510
 0.016  0.354 -0.826 -0.689 -0.586 -0.510 -0.510
 0.018  0.357 -0.823 -0.687 -0.583 -0.508 -0.508
 0.020  0.361 -0.819 -0.685 -0.581 -0.507 -0.507
 0.022  0.363 -0.815 -0.682 -0.578 -0.506 -0.506
 0.024  0.367 -0.812 -0.679 -0.575 -0.505 -0.505
 0.026  0.372 -0.808 -0.675 -0.572 -0.503 -0.503
 0.028  0.375 -0.804 -0.672 -0.569 -0.502 -0.502
 0.030  0.379 -0.800 -0.670 -0.567 -0.500 -0.500
 0.032  0.384 -0.795 -0.666 -0.564 -0.498 -0.498
 0.034  0.389 -0.790 -0.663 -0.562 -0.496 -0.496
 0.036  0.394 -0.785 -0.659 -0.559 -0.494 -0.494
 0.038  0.398 -0.780 -0.657 -0.556 -0.492 -0.492
 0.040  0.403 -0.775 -0.653 -0.553 -0.490 -0.490
 0.042  0.409 -0.768 -0.649 -0.550 -0.488 -0.488
 0.044  0.415 -0.763 -0.645 -0.547 -0.486 -0.486
 0.046  0.421 -0.757 -0.642 -0.544 -0.483 -0.483
 0.048  0.427 -0.750 -0.637 -0.541 -0.480 -0.480
 0.050  0.433 -0.744 -0.633 -0.538 -0.477 -0.477
 0.052  0.441 -0.736 -0.628 -0.535 -0.474 -0.474
 0.054  0.448 -0.729 -0.624 -0.531 -0.471 -0.471
 0.056  0.455 -0.721 -0.619 -0.528 -0.468 -0.468
 0.058  0.462 -0.713 -0.614 -0.524 -0.465 -0.465
 0.060  0.470 -0.706 -0.610 -0.520 -0.462 -0.462
 0.062  0.478 -0.698 -0.604 -0.516 -0.458 -0.458
 0.064  0.487 -0.689 -0.599 -0.513 -0.454 -0.454
 0.066  0.494 -0.680 -0.594 -0.509 -0.450 -0.450
 0.068  0.503 -0.671 -0.588 -0.505 -0.447 -0.447
 0.070  0.512 -0.662 -0.582 -0.501 -0.443 -0.443
 0.072  0.520 -0.653 -0.577 -0.497 -0.439 -0.439
 0.074  0.530 -0.645 -0.571 -0.494 -0.435 -0.435
 0.076  0.539 -0.636 -0.566 -0.489 -0.432 -0.432
 0.078  0.548 -0.625 -0.560 -0.485 -0.428 -0.428
 0.080  0.557 -0.617 -0.554 -0.482 -0.424 -0.424
 0.082  0.566 -0.608 -0.548 -0.478 -0.420 -0.420
 0.084  0.575 -0.599 -0.542 -0.473 -0.416 -0.416
 0.086  0.583 -0.590 -0.536 -0.469 -0.412 -0.412
 0.088  0.592 -0.581 -0.532 -0.466 -0.409 -0.409
 0.090  0.600 -0.572 -0.526 -0.462 -0.405 -0.405
 0.092  0.609 -0.563 -0.521 -0.458 -0.402 -0.402
 0.094  0.617 -0.555 -0.515 -0.454 -0.398 -0.398
 0.096  0.624 -0.546 -0.510 -0.451 -0.396 -0.396
 0.098  0.633 -0.539 -0.506 -0.447 -0.392 -0.392
 0.100  0.640 -0.531 -0.500 -0.444 -0.389 -0.389
 0.102  0.647 -0.523 -0.495 -0.441 -0.386 -0.386
 0.104  0.655 -0.516 -0.491 -0.437 -0.383 -0.383
 0.106  0.662 -0.508 -0.486 -0.434 -0.380 -0.380
 0.108  0.669 -0.500 -0.480 -0.430 -0.378 -0.378
 0.110  0.676 -0.494 -0.476 -0.427 -0.375 -0.375
 0.112  0.684 -0.486 -0.472 -0.424 -0.372 -0.372
 0.114  0.690 -0.479 -0.467 -0.421 -0.370 -0.370
 0.116  0.697 -0.472 -0.462 -0.418 -0.367 -0.367
 0.118  0.703 -0.466 -0.458 -0.415 -0.364 -0.364
 0.120  0.710 -0.458 -0.454 -0.412 -0.362 -0.362
 0.122  0.716 -0.452 -0.449 -0.409 -0.360 -0.360
 0.124  0.722 -0.446 -0.446 -0.406 -0.358 -0.358
 0.126  0.728 -0.439 -0.441 -0.404 -0.355 -0.355
 0.128  0.734 -0.433 -0.437 -0.401 -0.353 -0.353
 0.130  0.740 -0.428 -0.433 -0.398 -0.351 -0.351
 0.132  0.745 -0.421 -0.430 -0.395 -0.349 -0.349
 0.134  0.751 -0.416 -0.426 -0.393 -0.347 -0.347
 0.136  0.756 -0.411 -0.422 -0.391 -0.346 -0.346
 0.138  0.762 -0.405 -0.418 -0.388 -0.344 -0.344
 0.140  0.767 -0.400 -0.415 -0.385 -0.342 -0.342
 0.142  0.772 -0.395 -0.411 -0.383 -0.340 -0.340
 0.144  0.777 -0.390 -0.408 -0.381 -0.339 -0.339
 0.146  0.781 -0.384 -0.404 -0.379 -0.337 -0.337
 0.148  0.786 -0.379 -0.401 -0.376 -0.336 -0.336
 0.150  0.791 -0.374 -0.398 -0.374 -0.334 -0.334
 0.152  0.796 -0.369 -0.394 -0.373 -0.332 -0.332
 0.154  0.801 -0.364 -0.391 -0.370 -0.331 -0.331
 0.156  0.806 -0.359 -0.388 -0.368 -0.329 -0.329
 0.158  0.810 -0.354 -0.385 -0.366 -0.328 -0.328
 0.160  0.815 -0.349 -0.382 -0.363 -0.326 -0.326
 0.162  0.819 -0.344 -0.378 -0.362 -0.324 -0.324
 0.164  0.824 -0.339 -0.375 -0.360 -0.323 -0.323
 0.166  0.829 -0.333 -0.372 -0.357 -0.321 -0.321
 0.168  0.833 -0.328 -0.369 -0.355 -0.320 -0.320
 0.170  0.838 -0.323 -0.366 -0.354 -0.318 -0.318
 0.172  0.843 -0.318 -0.362 -0.351 -0.316 -0.316
 0.174  0.848 -0.313 -0.359 -0.349 -0.314 -0.314
 0.176  0.852 -0.308 -0.356 -0.347 -0.313 -0.313
 0.178  0.856 -0.303 -0.353 -0.345 -0.311 -0.311
 0.180  0.861 -0.298 -0.350 -0.342 -0.310 -0.310
 0.182  0.866 -0.293 -0.347 -0.340 -0.308 -0.308
 0.184  0.871 -0.288 -0.343 -0.338 -0.306 -0.306
 0.186  0.876 -0.282 -0.340 -0.336 -0.304 -0.304
 0.188  0.881 -0.277 -0.338 -0.334 -0.302 -0.302
 0.190  0.884 -0.272 -0.334 -0.332 -0.301 -0.301
 0.192  0.889 -0.267 -0.331 -0.329 -0.299 -0.299
 0.194  0.894 -0.262 -0.328 -0.327 -0.297 -0.297
 0.196  0.899 -0.257 -0.325 -0.325 -0.296 -0.296
 0.198  0.904 -0.252 -0.322 -0.323 -0.294 -0.294
 0.200  0.908 -0.247 -0.319 -0.320 -0.292 -0.292
 0.202  0.912 -0.242 -0.316 -0.318 -0.290 -0.290
 0.204  0.917 -0.237 -0.313 -0.316 -0.288 -0.288
 0.206  0.922 -0.232 -0.310 -0.314 -0.287 -0.287
 0.208  0.926 -0.225 -0.307 -0.312 -0.285 -0.285
 0.210  0.930 -0.220 -0.304 -0.310 -0.283 -0.283
 0.212  0.935 -0.215 -0.301 -0.307 -0.281 -0.281
 0.214  0.940 -0.210 -0.298 -0.305 -0.280 -0.280
 0.216  0.945 -0.205 -0.295 -0.303 -0.278 -0.278
 0.218  0.949 -0.200 -0.293 -0.301 -0.276 -0.276
 0.220  0.953 -0.195 -0.290 -0.298 -0.274 -0.274
 0.222  0.958 -0.189 -0.286 -0.296 -0.272 -0.272
 0.224  0.963 -0.184 -0.283 -0.294 -0.270 -0.270
 0.226  0.966 -0.179 -0.280 -0.292 -0.268 -0.268
 0.228  0.971 -0.174 -0.278 -0.289 -0.267 -0.267
 0.230  0.976 -0.169 -0.275 -0.287 -0.265 -0.265
 0.232  0.980 -0.164 -0.272 -0.285 -0.263 -0.263
 0.234  0.984 -0.159 -0.269 -0.282 -0.262 -0.262
 0.236  0.988 -0.155 -0.266 -0.280 -0.260 -0.260
 0.238  0.993 -0.150 -0.264 -0.279 -0.258 -0.258
 0.240  0.997 -0.145 -0.261 -0.276 -0.256 -0.256
 0.242  1.001 -0.141 -0.258 -0.274 -0.254 -0.254
 0.244  1.005 -0.136 -0.255 -0.272 -0.253 -0.253
 0.246  1.009 -0.132 -0.252 -0.270 -0.251 -0.251
 0.248  1.013 -0.127 -0.250 -0.268 -0.249 -0.249
 0.250  1.017 -0.123 -0.247 -0.266 -0.248 -0.248
 0.252  1.021 -0.118 -0.244 -0.264 -0.246 -0.246
 0.254  1.026 -0.114 -0.242 -0.261 -0.244 -0.244
 0.256  1.029 -0.110 -0.239 -0.260 -0.242 -0.242
 0.258  1.033 -0.105 -0.236 -0.257 -0.241 -0.241
 0.260  1.036 -0.101 -0.234 -0.255 -0.239 -0.239
 0.262  1.040 -0.098 -0.231 -0.254 -0.237 -0.237
 0.264  1.045 -0.094 -0.228 -0.251 -0.236 -0.236
 0.266  1.049 -0.090 -0.225 -0.249 -0.234 -0.234
 0.268  1.052 -0.086 -0.223 -0.248 -0.232 -0.232
 0.270  1.056 -0.082 -0.220 -0.245 -0.230 -0.230
 0.272  1.059 -0.079 -0.218 -0.243 -0.229 -0.229
 0.274  1.063 -0.075 -0.215 -0.242 -0.227 -0.227
 0.276  1.067 -0.071 -0.213 -0.239 -0.226 -0.226
 0.278  1.070 -0.067 -0.210 -0.238 -0.224 -0.224
 0.280  1.074 -0.064 -0.207 -0.236 -0.222 -0.222
 0.282  1.078 -0.061 -0.205 -0.234 -0.220 -0.220
 0.284  1.080 -0.057 -0.203 -0.232 -0.219 -0.219
 0.286  1.084 -0.054 -0.200 -0.230 -0.218 -0.218
 0.288  1.087 -0.050 -0.197 -0.228 -0.216 -0.216
 0.290  1.091 -0.047 -0.195 -0.226 -0.214 -0.214
 0.292  1.094 -0.044 -0.192 -0.224 -0.212 -0.212
 0.294  1.098 -0.040 -0.189 -0.223 -0.211 -0.211
 0.296  1.101 -0.036 -0.188 -0.220 -0.209 -0.209
 0.298  1.104 -0.034 -0.185 -0.219 -0.208 -0.208
 0.300  1.108 -0.030 -0.183 -0.217 -0.206 -0.206
 0.302  1.111 -0.028 -0.180 -0.215 -0.204 -0.204
 0.304  1.114 -0.024 -0.177 -0.214 -0.203 -0.203
 0.306  1.117 -0.020 -0.175 -0.211 -0.201 -0.201
 0.308  1.121 -0.017 -0.173 -0.210 -0.200 -0.200
 0.310  1.125 -0.014 -0.170 -0.208 -0.198 -0.198
 0.312  1.127 -0.010 -0.168 -0.206 -0.196 -0.196
 0.314  1.131 -0.007 -0.165 -0.204 -0.195 -0.195
 0.316  1.134 -0.003 -0.163 -0.202 -0.194 -0.194
 0.318  1.138  0.001 -0.160 -0.200 -0.192 -0.192
 0.320  1.140  0.004 -0.158 -0.198 -0.190 -0.190
 0.322  1.144  0.008 -0.156 -0.197 -0.189 -0.189
 0.324  1.148  0.011 -0.153 -0.195 -0.187 -0.187
 0.326  1.150  0.015 -0.151 -0.193 -0.186 -0.186
 0.328  1.154  0.018 -0.148 -0.191 -0.184 -0.184
 0.330  1.157  0.022 -0.145 -0.189 -0.182 -0.182
 0.332  1.161  0.026 -0.144 -0.187 -0.181 -0.181
 0.334  1.163  0.029 -0.141 -0.186 -0.180 -0.180
 0.336  1.167  0.032 -0.139 -0.183 -0.178 -0.178
 0.338  1.171  0.036 -0.136 -0.182 -0.176 -0.176
 0.340  1.173  0.040 -0.134 -0.180 -0.175 -0.175
 0.342  1.177  0.044 -0.131 -0.178 -0.174 -0.174
 0.344  1.179  0.048 -0.129 -0.176 -0.172 -0.172
 0.346  1.183  0.050 -0.127 -0.174 -0.170 -0.170
 0.348  1.186  0.054 -0.124 -0.172 -0.169 -0.169
 0.350  1.189  0.058 -0.122 -0.170 -0.168 -0.168
 0.352  1.192  0.062 -0.119 -0.168 -0.166 -0.166
 0.354  1.196  0.066 -0.117 -0.167 -0.164 -0.164
 0.356  1.198  0.069 -0.114 -0.164 -0.163 -0.163
 0.358  1.202  0.073 -0.113 -0.163 -0.162 -0.162
 0.360  1.204  0.077 -0.110 -0.161 -0.160 -0.160
 0.362  1.208  0.081 -0.108 -0.159 -0.158 -0.158
 0.364  1.212  0.085 -0.105 -0.157 -0.157 -0.157
 0.366  1.214  0.088 -0.103 -0.155 -0.156 -0.156
 0.368  1.218  0.092 -0.100 -0.153 -0.154 -0.154
 0.370  1.220  0.096 -0.099 -0.151 -0.152 -0.152
 0.372  1.224  0.099 -0.096 -0.149 -0.151 -0.151
 0.374  1.226  0.103 -0.093 -0.148 -0.149 -0.149
 0.376  1.230  0.106 -0.091 -0.146 -0.148 -0.148
 0.378  1.232  0.110 -0.088 -0.144 -0.146 -0.146
 0.380  1.236  0.114 -0.086 -0.142 -0.145 -0.145
 0.382  1.238  0.118 -0.084 -0.140 -0.143 -0.143
 0.384  1.242  0.122 -0.082 -0.139 -0.142 -0.142
 0.386  1.244  0.124 -0.079 -0.136 -0.140 -0.140
 0.388  1.248  0.128 -0.077 -0.135 -0.138 -0.138
 0.390  1.250  0.132 -0.074 -0.133 -0.137 -0.137
 0.392  1.254  0.136 -0.072 -0.131 -0.135 -0.135
 0.394  1.256  0.139 -0.069 -0.129 -0.133 -0.133
 0.396  1.260  0.142 -0.068 -0.127 -0.132 -0.132
 0.398  1.262  0.146 -0.065 -0.126 -0.131 -0.131
 0.400  1.266  0.150 -0.063 -0.123 -0.129 -0.129
 0.402  1.269  0.154 -0.060 -0.122 -0.127 -0.127
 0.404  1.272  0.157 -0.057 -0.120 -0.125 -0.125
 0.406  1.275  0.160 -0.055 -0.118 -0.124 -0.124
 0.408  1.277  0.164 -0.053 -0.116 -0.123 -0.123
 0.410  1.281  0.168 -0.051 -0.114 -0.121 -0.121
 0.412  1.283  0.170 -0.048 -0.113 -0.119 -0.119
 0.414  1.285  0.174 -0.046 -0.111 -0.117 -0.117
 0.416  1.289  0.178 -0.043 -0.109 -0.116 -0.116
 0.418  1.291  0.182 -0.041 -0.107 -0.115 -0.115
 0.420  1.295  0.184 -0.039 -0.105 -0.113 -0.113
 0.422  1.298  0.188 -0.037 -0.104 -0.111 -0.111
 0.424  1.300  0.192 -0.034 -0.102 -0.109 -0.109
 0.426  1.304  0.194 -0.031 -0.100 -0.108 -0.108
 0.428  1.306  0.198 -0.029 -0.099 -0.106 -0.106
 0.430  1.308  0.201 -0.026 -0.096 -0.105 -0.105
 0.432  1.311  0.204 -0.024 -0.095 -0.103 -0.103
 0.434  1.314  0.208 -0.022 -0.092 -0.101 -0.101
 0.436  1.317  0.211 -0.020 -0.091 -0.100 -0.100
 0.438  1.319  0.215 -0.017 -0.089 -0.098 -0.098
 0.440  1.322  0.217 -0.015 -0.087 -0.097 -0.097
 0.442  1.325  0.221 -0.012 -0.086 -0.095 -0.095
 0.444  1.328  0.224 -0.010 -0.084 -0.093 -0.093
 0.446  1.330  0.226 -0.009 -0.082 -0.092 -0.092
 0.448  1.333  0.230 -0.006 -0.080 -0.090 -0.090
 0.450  1.335  0.233 -0.004 -0.079 -0.089 -0.089
 0.452  1.337  0.235 -0.002 -0.077 -0.087 -0.087
 0.454  1.340  0.239  0.001 -0.075 -0.085 -0.085
 0.456  1.342  0.241  0.003 -0.074 -0.084 -0.084
 0.458  1.345  0.244  0.005 -0.072 -0.083 -0.083
 0.460  1.347  0.247  0.007 -0.070 -0.081 -0.081
 0.462  1.349  0.249  0.009 -0.068 -0.079 -0.079
 0.464  1.352  0.253  0.011 -0.067 -0.078 -0.078
 0.466  1.354  0.255  0.013 -0.065 -0.077 -0.077
 0.468  1.357  0.258  0.015 -0.064 -0.075 -0.075
 0.470  1.359  0.261  0.017 -0.061 -0.073 -0.073
 0.472  1.362  0.263  0.019 -0.060 -0.072 -0.072
 0.474  1.364  0.266  0.021 -0.058 -0.071 -0.071
 0.476  1.366  0.268  0.022 -0.057 -0.069 -0.069
 0.478  1.368  0.270  0.024 -0.055 -0.067 -0.067
 0.480  1.370  0.272  0.026 -0.053 -0.066 -0.066
 0.482  1.372  0.275  0.028 -0.052 -0.065 -0.065
 0.484  1.375  0.277  0.030 -0.050 -0.063 -0.063
 0.486  1.376  0.280  0.032 -0.049 -0.062 -0.062
 0.488  1.378  0.281  0.034 -0.047 -0.060 -0.060
 0.490  1.381  0.284  0.036 -0.046 -0.059 -0.059
 0.492  1.382  0.286  0.037 -0.044 -0.057 -0.057
 0.494  1.385  0.287  0.038 -0.042 -0.056 -0.056
 0.496  1.387  0.290  0.040 -0.040 -0.055 -0.055
 0.498  1.388  0.292  0.042 -0.039 -0.053 -0.053
 0.500  1.391  0.294  0.044 -0.037 -0.052 -0.052
 0.502  1.392  0.296  0.045 -0.036 -0.051 -0.051
 0.504  1.394  0.298  0.047 -0.034 -0.049 -0.049
 0.506  1.395  0.299  0.049 -0.033 -0.048 -0.048
 0.508  1.398  0.301  0.050 -0.031 -0.047 -0.047
 0.510  1.399  0.303  0.052 -0.030 -0.045 -0.045
 0.512  1.401  0.305  0.052 -0.028 -0.044 -0.044
 0.514  1.403  0.306  0.054 -0.027 -0.043 -0.043
 0.516  1.404  0.308  0.055 -0.025 -0.041 -0.041
 0.518  1.405  0.309  0.057 -0.024 -0.040 -0.040
 0.520  1.407  0.312  0.058 -0.023 -0.039 -0.039
 0.522  1.409  0.313  0.060 -0.021 -0.038 -0.038
 0.524  1.410  0.314  0.061 -0.020 -0.037 -0.037
 0.526  1.411  0.315  0.062 -0.019 -0.035 -0.035
 0.528  1.412  0.317  0.064 -0.018 -0.034 -0.034
 0.530  1.414  0.318  0.065 -0.017 -0.033 -0.033
 0.532  1.415  0.319  0.066 -0.015 -0.032 -0.032
 0.534  1.416  0.321  0.067 -0.014 -0.031 -0.031
 0.536  1.417  0.322  0.068 -0.013 -0.030 -0.030
 0.538  1.418  0.323  0.069 -0.012 -0.029 -0.029
 0.540  1.420  0.324  0.070 -0.011 -0.028 -0.028
 0.542  1.421  0.326  0.071 -0.010 -0.027 -0.027
 0.544  1.422  0.327  0.072 -0.009 -0.026 -0.026
 0.546  1.423  0.327  0.073 -0.008 -0.025 -0.025
 0.548  1.424  0.328  0.074 -0.007 -0.024 -0.024
 0.550  1.424  0.329  0.075 -0.006 -0.023 -0.023
 0.552  1.426  0.331  0.076 -0.005 -0.022 -0.022
 0.554  1.427  0.331  0.077 -0.005 -0.021 -0.021
 0.556  1.427  0.332  0.078 -0.004 -0.020 -0.020
 0.558  1.428  0.332  0.078 -0.003 -0.019 -0.019
 0.560  1.428  0.333  0.079 -0.002 -0.018 -0.018
 0.562  1.429  0.335  0.080 -0.002 -0.017 -0.017
 0.564  1.429  0.335  0.081 -0.001 -0.017 -0.017
 0.566  1.430  0.336  0.081 -0.000 -0.016 -0.016
 0.568  1.430  0.336  0.082  0.001 -0.015 -0.015
 0.570  1.432  0.336  0.082  0.001 -0.014 -0.014
 0.572  1.432  0.337  0.082  0.001 -0.013 -0.013
 0.574  1.432  0.337  0.083  0.002 -0.013 -0.013
 0.576  1.433  0.337  0.084  0.003 -0.012 -0.012
 0.578  1.433  0.338  0.084  0.003 -0.011 -0.011
 0.580  1.433  0.338  0.085  0.004 -0.010 -0.010
 0.582  1.433  0.338  0.085  0.004 -0.009 -0.009
 0.584  1.434  0.338  0.086  0.004 -0.009 -0.009
 0.586  1.434  0.340  0.086  0.005 -0.008 -0.008
 0.588  1.434  0.340  0.087  0.005 -0.007 -0.007
 0.590  1.434  0.340  0.087  0.006 -0.007 -0.007
 0.592  1.434  0.340  0.088  0.006 -0.006 -0.006
 0.594  1.435  0.340  0.088  0.007 -0.005 -0.005
 0.596  1.435  0.340  0.088  0.007 -0.005 -0.005
 0.598  1.435  0.340  0.089  0.007 -0.004 -0.004
 0.600  1.435  0.340  0.089  0.007 -0.003 -0.003
 0.602  1.435  0.340  0.090  0.008 -0.003 -0.003
 0.604  1.435  0.340  0.090  0.008 -0.003 -0.003
 0.606  1.435  0.340  0.090  0.009 -0.002 -0.002
 0.608  1.435  0.340  0.091  0.009 -0.001 -0.001
 0.610  1.435  0.340  0.091  0.010 -0.001 -0.001
 0.612  1.435  0.340  0.091  0.010 -0.000 -0.000
 0.614  1.435  0.340  0.092  0.010 -0.000 -0.000
 0.616  1.435  0.340  0.092  0.010  0.001  0.001
 0.618  1.435  0.340  0.092  0.011  0.001  0.001
 0.620  1.435  0.340  0.093  0.011  0.002  0.002
 0.622  1.435  0.338  0.093  0.011  0.002  0.002
 0.624  1.435  0.338  0.093  0.012  0.003  0.003
 0.626  1.434  0.338  0.093  0.012  0.003  0.003
 0.628  1.434  0.338  0.094  0.013  0.003  0.003
 0.630  1.434  0.337  0.094  0.013  0.004  0.004
 0.632  1.434  0.337  0.094  0.013  0.005  0.005
 0.634  1.434  0.337  0.094  0.014  0.005  0.005
 0.636  1.433  0.336  0.094  0.014  0.005  0.005
 0.638  1.433  0.336  0.095  0.014  0.005  0.005
 0.640  1.433  0.335  0.095  0.014  0.006  0.006
 0.642  1.433  0.335  0.095  0.014  0.006  0.006
 0.644  1.432  0.333  0.095  0.015  0.007  0.007
 0.646  1.432  0.333  0.095  0.015  0.007  0.007
 0.648  1.432  0.333  0.095  0.015  0.007  0.007
 0.650  1.430  0.332  0.095  0.016  0.007  0.007
 0.652  1.430  0.332  0.095  0.016  0.008  0.008
 0.654  1.430  0.331  0.095  0.016  0.009  0.009
 0.656  1.430  0.331  0.095  0.016  0.009  0.009
 0.658  1.429  0.329  0.095  0.017  0.009  0.009
 0.660  1.429  0.329  0.095  0.017  0.009  0.009
 0.662  1.429  0.328  0.095  0.017  0.010  0.010
 0.664  1.428  0.328  0.095  0.017  0.010  0.010
 0.666  1.428  0.327  0.095  0.017  0.011  0.011
 0.668  1.428  0.327  0.095  0.017  0.011  0.011
 0.670  1.427  0.326  0.094  0.017  0.011  0.011
 0.672  1.427  0.326  0.094  0.018  0.012  0.012
 0.674  1.427  0.324  0.094  0.018  0.013  0.013
 0.676  1.426  0.324  0.094  0.018  0.013  0.013
 0.678  1.426  0.323  0.093  0.018  0.013  0.013
 0.680  1.426  0.323  0.093  0.018  0.014  0.014
 0.682  1.426  0.322  0.093  0.019  0.014  0.014
 0.684  1.424  0.322  0.092  0.019  0.015  0.015
 0.686  1.424  0.321  0.092  0.019  0.015  0.015
 0.688  1.424  0.321  0.091  0.019  0.015  0.015
 0.690  1.423  0.319  0.091  0.019  0.016  0.016
 0.692  1.423  0.319  0.090  0.020  0.017  0.017
 0.694  1.423  0.318  0.090  0.020  0.017  0.017
 0.696  1.422  0.318  0.089  0.020  0.017  0.017
 0.698  1.422  0.317  0.089  0.020  0.018  0.018
 0.700  1.422  0.317  0.088  0.020  0.019  0.019
 0.702  1.421  0.315  0.088  0.020  0.019  0.019
 0.704  1.421  0.315  0.087  0.020  0.019  0.019
 0.706  1.421  0.314  0.086  0.020  0.020  0.020
 0.708  1.421  0.314  0.085  0.020  0.021  0.021
 0.710  1.420  0.313  0.085  0.020  0.021  0.021
 0.712  1.420  0.313  0.084  0.020  0.022  0.022
 0.714  1.420  0.312  0.083  0.020  0.022  0.022
 0.716  1.418  0.312  0.082  0.020  0.023  0.023
 0.718  1.418  0.310  0.082  0.020  0.023  0.023
 0.720  1.418  0.310  0.082  0.021  0.024  0.024
 0.722  1.418  0.309  0.081  0.021  0.025  0.025
 0.724  1.417  0.309  0.081  0.021  0.025  0.025
 0.726  1.417  0.309  0.080  0.021  0.026  0.026
 0.728  1.417  0.308  0.079  0.022  0.027  0.027
 0.730  1.417  0.308  0.079  0.022  0.027  0.027
 0.732  1.416  0.308  0.079  0.022  0.028  0.028
 0.734  1.416  0.308  0.079  0.023  0.029  0.029
 0.736  1.416  0.308  0.079  0.023  0.029  0.029
 0.738  1.416  0.308  0.079  0.023  0.030  0.030
 0.740  1.415  0.308  0.079  0.024  0.031  0.031
 0.742  1.415  0.308  0.079  0.025  0.032  0.032
 0.744  1.415  0.308  0.079  0.026  0.033  0.033
 0.746  1.415  0.309  0.080  0.026  0.033  0.033
 0.748  1.415  0.309  0.080  0.027  0.035  0.035
 0.750  1.415  0.309  0.081  0.028  0.035  0.035
 0.752  1.414  0.310  0.081  0.029  0.036  0.036
 0.754  1.414  0.310  0.082  0.029  0.037  0.037
 0.756  1.414  0.312  0.082  0.030  0.038  0.038
 0.758  1.414  0.312  0.083  0.032  0.039  0.039
 0.760  1.414  0.313  0.084  0.032  0.040  0.040
 0.762  1.414  0.313  0.085  0.034  0.041  0.041
 0.764  1.414  0.314  0.086  0.035  0.042  0.042
 0.766  1.414  0.315  0.087  0.036  0.043  0.043
 0.768  1.414  0.317  0.089  0.037  0.045  0.045
 0.770  1.414  0.317  0.090  0.038  0.045  0.045
 0.772  1.414  0.318  0.092  0.040  0.047  0.047
 0.774  1.414  0.319  0.094  0.042  0.047  0.047
 0.776  1.412  0.321  0.095  0.043  0.049  0.049
 0.778  1.412  0.322  0.097  0.045  0.050  0.050
 0.780  1.412  0.323  0.098  0.046  0.051  0.051
 0.782  1.412  0.326  0.100  0.048  0.052  0.052
 0.784  1.412  0.327  0.103  0.050  0.053  0.053
 0.786  1.412  0.328  0.105  0.051  0.055  0.055
 0.788  1.412  0.329  0.107  0.053  0.056  0.056
 0.790  1.414  0.332  0.109  0.055  0.057  0.057
 0.792  1.414  0.333  0.112  0.057  0.059  0.059
 0.794  1.415  0.336  0.113  0.059  0.061  0.061
 0.796  1.415  0.337  0.116  0.060  0.062  0.062
 0.798  1.416  0.340  0.118  0.063  0.063  0.063
 0.800  1.417  0.341  0.121  0.064  0.065  0.065
 0.802  1.418  0.343  0.124  0.067  0.067  0.067
 0.804  1.420  0.346  0.127  0.069  0.069  0.069
 0.806  1.421  0.347  0.129  0.071  0.071  0.071
 0.808  1.423  0.350  0.132  0.073  0.073  0.073
