# IsPeriodic    : True
# Period        : 0.527016 days
# Normalization : <g_mag>=0
# 
# Phase u_mag  g_mag  r_mag  i_mag  z_mag  y_mag
 0.000  0.249 -0.937 -0.755 -0.622 -0.532 -0.532
 0.002  0.249 -0.935 -0.755 -0.622 -0.532 -0.532
 0.004  0.249 -0.934 -0.755 -0.621 -0.532 -0.532
 0.006  0.250 -0.931 -0.754 -0.619 -0.531 -0.531
 0.008  0.251 -0.929 -0.753 -0.618 -0.530 -0.530
 0.010  0.254 -0.924 -0.751 -0.615 -0.529 -0.529
 0.012  0.255 -0.919 -0.749 -0.612 -0.529 -0.529
 0.014  0.258 -0.912 -0.747 -0.609 -0.528 -0.528
 0.016  0.261 -0.905 -0.745 -0.606 -0.527 -0.527
 0.018  0.265 -0.898 -0.743 -0.602 -0.527 -0.527
 0.020  0.269 -0.891 -0.740 -0.598 -0.525 -0.525
 0.022  0.272 -0.884 -0.738 -0.594 -0.524 -0.524
 0.024  0.276 -0.876 -0.735 -0.590 -0.522 -0.522
 0.026  0.282 -0.869 -0.732 -0.586 -0.521 -0.521
 0.028  0.286 -0.861 -0.729 -0.582 -0.520 -0.520
 0.030  0.290 -0.854 -0.726 -0.578 -0.517 -0.517
 0.032  0.295 -0.847 -0.722 -0.575 -0.516 -0.516
 0.034  0.301 -0.840 -0.718 -0.571 -0.514 -0.514
 0.036  0.306 -0.833 -0.714 -0.568 -0.511 -0.511
 0.038  0.312 -0.826 -0.710 -0.564 -0.509 -0.509
 0.040  0.317 -0.820 -0.707 -0.561 -0.506 -0.506
 0.042  0.324 -0.813 -0.702 -0.557 -0.503 -0.503
 0.044  0.331 -0.806 -0.698 -0.553 -0.501 -0.501
 0.046  0.338 -0.799 -0.694 -0.550 -0.498 -0.498
 0.048  0.345 -0.792 -0.689 -0.546 -0.494 -0.494
 0.050  0.352 -0.784 -0.684 -0.542 -0.491 -0.491
 0.052  0.360 -0.777 -0.679 -0.538 -0.488 -0.488
 0.054  0.368 -0.768 -0.673 -0.535 -0.484 -0.484
 0.056  0.377 -0.760 -0.667 -0.531 -0.481 -0.481
 0.058  0.385 -0.753 -0.662 -0.527 -0.477 -0.477
 0.060  0.393 -0.745 -0.656 -0.523 -0.473 -0.473
 0.062  0.403 -0.737 -0.650 -0.518 -0.469 -0.469
 0.064  0.412 -0.728 -0.644 -0.514 -0.465 -0.465
 0.066  0.421 -0.720 -0.637 -0.510 -0.461 -0.461
 0.068  0.432 -0.712 -0.631 -0.506 -0.458 -0.458
 0.070  0.441 -0.704 -0.624 -0.502 -0.453 -0.453
 0.072  0.451 -0.695 -0.618 -0.498 -0.450 -0.450
 0.074  0.462 -0.687 -0.611 -0.494 -0.446 -0.446
 0.076  0.472 -0.679 -0.605 -0.489 -0.442 -0.442
 0.078  0.483 -0.671 -0.598 -0.485 -0.438 -0.438
 0.080  0.492 -0.662 -0.591 -0.481 -0.434 -0.434
 0.082  0.503 -0.654 -0.584 -0.477 -0.431 -0.431
 0.084  0.513 -0.646 -0.577 -0.472 -0.427 -0.427
 0.086  0.523 -0.637 -0.571 -0.469 -0.424 -0.424
 0.088  0.532 -0.629 -0.565 -0.465 -0.420 -0.420
 0.090  0.542 -0.621 -0.559 -0.461 -0.417 -0.417
 0.092  0.552 -0.613 -0.552 -0.456 -0.414 -0.414
 0.094  0.561 -0.606 -0.546 -0.452 -0.410 -0.410
 0.096  0.569 -0.597 -0.540 -0.448 -0.408 -0.408
 0.098  0.579 -0.589 -0.534 -0.444 -0.404 -0.404
 0.100  0.587 -0.581 -0.528 -0.440 -0.401 -0.401
 0.102  0.596 -0.574 -0.523 -0.436 -0.398 -0.398
 0.104  0.604 -0.566 -0.517 -0.432 -0.396 -0.396
 0.106  0.612 -0.557 -0.511 -0.429 -0.393 -0.393
 0.108  0.620 -0.550 -0.506 -0.425 -0.390 -0.390
 0.110  0.629 -0.544 -0.500 -0.421 -0.388 -0.388
 0.112  0.637 -0.535 -0.495 -0.418 -0.385 -0.385
 0.114  0.644 -0.528 -0.490 -0.414 -0.382 -0.382
 0.116  0.652 -0.521 -0.485 -0.410 -0.380 -0.380
 0.118  0.659 -0.515 -0.480 -0.407 -0.377 -0.377
 0.120  0.667 -0.508 -0.474 -0.403 -0.375 -0.375
 0.122  0.674 -0.501 -0.469 -0.400 -0.373 -0.373
 0.124  0.681 -0.494 -0.464 -0.397 -0.371 -0.371
 0.126  0.688 -0.487 -0.460 -0.393 -0.369 -0.369
 0.128  0.695 -0.480 -0.455 -0.390 -0.367 -0.367
 0.130  0.702 -0.473 -0.451 -0.387 -0.365 -0.365
 0.132  0.707 -0.466 -0.447 -0.384 -0.363 -0.363
 0.134  0.714 -0.461 -0.443 -0.381 -0.360 -0.360
 0.136  0.719 -0.454 -0.438 -0.377 -0.359 -0.359
 0.138  0.726 -0.447 -0.433 -0.374 -0.357 -0.357
 0.140  0.732 -0.441 -0.429 -0.371 -0.355 -0.355
 0.142  0.737 -0.435 -0.426 -0.368 -0.353 -0.353
 0.144  0.743 -0.429 -0.422 -0.365 -0.351 -0.351
 0.146  0.748 -0.422 -0.418 -0.362 -0.350 -0.350
 0.148  0.754 -0.417 -0.414 -0.359 -0.348 -0.348
 0.150  0.759 -0.411 -0.410 -0.356 -0.346 -0.346
 0.152  0.765 -0.406 -0.407 -0.353 -0.344 -0.344
 0.154  0.770 -0.399 -0.403 -0.351 -0.342 -0.342
 0.156  0.776 -0.393 -0.399 -0.348 -0.341 -0.341
 0.158  0.781 -0.388 -0.396 -0.345 -0.339 -0.339
 0.160  0.787 -0.382 -0.391 -0.342 -0.336 -0.336
 0.162  0.791 -0.377 -0.387 -0.340 -0.335 -0.335
 0.164  0.797 -0.371 -0.384 -0.337 -0.333 -0.333
 0.166  0.802 -0.366 -0.380 -0.334 -0.331 -0.331
 0.168  0.808 -0.360 -0.377 -0.332 -0.329 -0.329
 0.170  0.813 -0.355 -0.373 -0.330 -0.327 -0.327
 0.172  0.819 -0.349 -0.369 -0.326 -0.325 -0.325
 0.174  0.824 -0.342 -0.366 -0.324 -0.323 -0.323
 0.176  0.828 -0.337 -0.362 -0.322 -0.322 -0.322
 0.178  0.834 -0.331 -0.359 -0.319 -0.320 -0.320
 0.180  0.839 -0.326 -0.355 -0.316 -0.317 -0.317
 0.182  0.845 -0.320 -0.350 -0.314 -0.315 -0.315
 0.184  0.850 -0.314 -0.347 -0.312 -0.314 -0.314
 0.186  0.856 -0.309 -0.343 -0.309 -0.312 -0.312
 0.188  0.861 -0.303 -0.340 -0.306 -0.310 -0.310
 0.190  0.865 -0.298 -0.336 -0.304 -0.308 -0.308
 0.192  0.871 -0.292 -0.333 -0.301 -0.306 -0.306
 0.194  0.876 -0.287 -0.329 -0.299 -0.304 -0.304
 0.196  0.882 -0.281 -0.326 -0.297 -0.302 -0.302
 0.198  0.887 -0.276 -0.323 -0.294 -0.300 -0.300
 0.200  0.893 -0.270 -0.319 -0.292 -0.298 -0.298
 0.202  0.897 -0.265 -0.316 -0.290 -0.296 -0.296
 0.204  0.903 -0.259 -0.311 -0.287 -0.294 -0.294
 0.206  0.908 -0.254 -0.308 -0.285 -0.292 -0.292
 0.208  0.914 -0.248 -0.305 -0.282 -0.290 -0.290
 0.210  0.918 -0.243 -0.301 -0.280 -0.288 -0.288
 0.212  0.923 -0.237 -0.298 -0.279 -0.286 -0.286
 0.214  0.929 -0.233 -0.294 -0.276 -0.284 -0.284
 0.216  0.934 -0.228 -0.291 -0.274 -0.282 -0.282
 0.218  0.940 -0.222 -0.288 -0.271 -0.280 -0.280
 0.220  0.944 -0.217 -0.284 -0.269 -0.278 -0.278
 0.222  0.949 -0.211 -0.281 -0.268 -0.276 -0.276
 0.224  0.955 -0.205 -0.278 -0.265 -0.274 -0.274
 0.226  0.959 -0.200 -0.275 -0.263 -0.272 -0.272
 0.228  0.965 -0.194 -0.270 -0.261 -0.270 -0.270
 0.230  0.970 -0.190 -0.267 -0.259 -0.268 -0.268
 0.232  0.974 -0.185 -0.264 -0.257 -0.266 -0.266
 0.234  0.980 -0.179 -0.261 -0.255 -0.264 -0.264
 0.236  0.984 -0.174 -0.258 -0.253 -0.262 -0.262
 0.238  0.989 -0.170 -0.255 -0.250 -0.260 -0.260
 0.240  0.993 -0.164 -0.252 -0.249 -0.258 -0.258
 0.242  0.999 -0.159 -0.248 -0.246 -0.256 -0.256
 0.244  1.003 -0.154 -0.245 -0.244 -0.254 -0.254
 0.246  1.007 -0.149 -0.242 -0.242 -0.252 -0.252
 0.248  1.013 -0.145 -0.239 -0.240 -0.250 -0.250
 0.250  1.017 -0.139 -0.236 -0.238 -0.248 -0.248
 0.252  1.021 -0.134 -0.232 -0.236 -0.246 -0.246
 0.254  1.026 -0.130 -0.229 -0.234 -0.244 -0.244
 0.256  1.031 -0.125 -0.227 -0.232 -0.242 -0.242
 0.258  1.035 -0.120 -0.224 -0.230 -0.240 -0.240
 0.260  1.039 -0.116 -0.221 -0.227 -0.238 -0.238
 0.262  1.043 -0.110 -0.218 -0.226 -0.236 -0.236
 0.264  1.049 -0.106 -0.215 -0.224 -0.234 -0.234
 0.266  1.053 -0.102 -0.212 -0.221 -0.232 -0.232
 0.268  1.057 -0.098 -0.209 -0.220 -0.230 -0.230
 0.270  1.061 -0.092 -0.207 -0.217 -0.228 -0.228
 0.272  1.065 -0.088 -0.204 -0.216 -0.226 -0.226
 0.274  1.069 -0.084 -0.201 -0.213 -0.224 -0.224
 0.276  1.073 -0.080 -0.198 -0.212 -0.222 -0.222
 0.278  1.077 -0.076 -0.196 -0.209 -0.220 -0.220
 0.280  1.082 -0.072 -0.193 -0.207 -0.218 -0.218
 0.282  1.086 -0.066 -0.189 -0.206 -0.216 -0.216
 0.284  1.088 -0.062 -0.187 -0.203 -0.214 -0.214
 0.286  1.093 -0.058 -0.184 -0.202 -0.213 -0.213
 0.288  1.097 -0.054 -0.181 -0.199 -0.210 -0.210
 0.290  1.101 -0.050 -0.179 -0.198 -0.208 -0.208
 0.292  1.105 -0.047 -0.176 -0.195 -0.207 -0.207
 0.294  1.109 -0.043 -0.174 -0.194 -0.205 -0.205
 0.296  1.112 -0.039 -0.171 -0.191 -0.203 -0.203
 0.298  1.116 -0.034 -0.169 -0.189 -0.201 -0.201
 0.300  1.120 -0.030 -0.166 -0.187 -0.199 -0.199
 0.302  1.124 -0.026 -0.163 -0.185 -0.197 -0.197
 0.304  1.127 -0.022 -0.161 -0.184 -0.196 -0.196
 0.306  1.131 -0.018 -0.158 -0.181 -0.194 -0.194
 0.308  1.135 -0.015 -0.156 -0.180 -0.192 -0.192
 0.310  1.139 -0.011 -0.153 -0.177 -0.190 -0.190
 0.312  1.142 -0.007 -0.150 -0.176 -0.189 -0.189
 0.314  1.146 -0.003 -0.147 -0.173 -0.186 -0.186
 0.316  1.150  0.002 -0.144 -0.171 -0.185 -0.185
 0.318  1.155  0.006 -0.142 -0.169 -0.183 -0.183
 0.320  1.157  0.008 -0.139 -0.167 -0.182 -0.182
 0.322  1.161  0.013 -0.137 -0.165 -0.180 -0.180
 0.324  1.166  0.017 -0.134 -0.163 -0.178 -0.178
 0.326  1.168  0.021 -0.131 -0.161 -0.177 -0.177
 0.328  1.172  0.025 -0.129 -0.159 -0.175 -0.175
 0.330  1.177  0.028 -0.126 -0.157 -0.173 -0.173
 0.332  1.181  0.032 -0.124 -0.155 -0.172 -0.172
 0.334  1.183  0.036 -0.121 -0.153 -0.170 -0.170
 0.336  1.188  0.040 -0.119 -0.151 -0.168 -0.168
 0.338  1.192  0.044 -0.116 -0.149 -0.167 -0.167
 0.340  1.194  0.047 -0.114 -0.147 -0.165 -0.165
 0.342  1.199  0.051 -0.110 -0.145 -0.164 -0.164
 0.344  1.201  0.055 -0.107 -0.143 -0.163 -0.163
 0.346  1.205  0.059 -0.105 -0.140 -0.161 -0.161
 0.348  1.210  0.062 -0.102 -0.139 -0.159 -0.159
 0.350  1.212  0.066 -0.100 -0.136 -0.158 -0.158
 0.352  1.216  0.070 -0.097 -0.134 -0.156 -0.156
 0.354  1.221  0.075 -0.095 -0.132 -0.155 -0.155
 0.356  1.223  0.077 -0.092 -0.130 -0.153 -0.153
 0.358  1.228  0.082 -0.089 -0.128 -0.152 -0.152
 0.360  1.230  0.086 -0.087 -0.126 -0.150 -0.150
 0.362  1.234  0.088 -0.084 -0.124 -0.148 -0.148
 0.364  1.239  0.093 -0.082 -0.121 -0.147 -0.147
 0.366  1.241  0.097 -0.079 -0.119 -0.146 -0.146
 0.368  1.245  0.101 -0.077 -0.118 -0.144 -0.144
 0.370  1.248  0.104 -0.074 -0.115 -0.142 -0.142
 0.372  1.252  0.108 -0.072 -0.113 -0.141 -0.141
 0.374  1.255  0.112 -0.068 -0.111 -0.139 -0.139
 0.376  1.259  0.115 -0.066 -0.109 -0.137 -0.137
 0.378  1.262  0.119 -0.063 -0.107 -0.135 -0.135
 0.380  1.266  0.123 -0.061 -0.105 -0.134 -0.134
 0.382  1.269  0.127 -0.058 -0.103 -0.132 -0.132
 0.384  1.273  0.130 -0.056 -0.101 -0.130 -0.130
 0.386  1.276  0.134 -0.053 -0.099 -0.128 -0.128
 0.388  1.280  0.138 -0.051 -0.096 -0.127 -0.127
 0.390  1.283  0.142 -0.048 -0.095 -0.124 -0.124
 0.392  1.287  0.145 -0.046 -0.092 -0.123 -0.123
 0.394  1.289  0.149 -0.043 -0.091 -0.121 -0.121
 0.396  1.294  0.153 -0.041 -0.089 -0.119 -0.119
 0.398  1.296  0.157 -0.038 -0.086 -0.117 -0.117
 0.400  1.300  0.160 -0.036 -0.085 -0.115 -0.115
 0.402  1.303  0.164 -0.033 -0.082 -0.113 -0.113
 0.404  1.307  0.168 -0.031 -0.081 -0.111 -0.111
 0.406  1.310  0.173 -0.027 -0.078 -0.110 -0.110
 0.408  1.313  0.177 -0.025 -0.077 -0.108 -0.108
 0.410  1.317  0.180 -0.022 -0.074 -0.105 -0.105
 0.412  1.320  0.184 -0.020 -0.073 -0.103 -0.103
 0.414  1.323  0.188 -0.017 -0.070 -0.101 -0.101
 0.416  1.327  0.192 -0.015 -0.069 -0.099 -0.099
 0.418  1.329  0.196 -0.013 -0.067 -0.097 -0.097
 0.420  1.334  0.199 -0.010 -0.065 -0.096 -0.096
 0.422  1.336  0.203 -0.008 -0.063 -0.094 -0.094
 0.424  1.339  0.207 -0.005 -0.061 -0.091 -0.091
 0.426  1.343  0.211 -0.003 -0.059 -0.089 -0.089
 0.428  1.346  0.215  0.000 -0.057 -0.087 -0.087
 0.430  1.349  0.220  0.002 -0.056 -0.085 -0.085
 0.432  1.351  0.222  0.004 -0.054 -0.083 -0.083
 0.434  1.356  0.226  0.007 -0.052 -0.082 -0.082
 0.436  1.358  0.231  0.009 -0.050 -0.079 -0.079
 0.438  1.361  0.235  0.013 -0.048 -0.077 -0.077
 0.440  1.364  0.239  0.015 -0.046 -0.076 -0.076
 0.442  1.368  0.243  0.017 -0.045 -0.074 -0.074
 0.444  1.371  0.246  0.020 -0.042 -0.072 -0.072
 0.446  1.373  0.250  0.022 -0.041 -0.070 -0.070
 0.448  1.376  0.254  0.024 -0.039 -0.069 -0.069
 0.450  1.379  0.257  0.026 -0.037 -0.067 -0.067
 0.452  1.382  0.261  0.029 -0.035 -0.065 -0.065
 0.454  1.384  0.264  0.031 -0.034 -0.063 -0.063
 0.456  1.387  0.266  0.033 -0.031 -0.062 -0.062
 0.458  1.390  0.271  0.035 -0.030 -0.060 -0.060
 0.460  1.393  0.273  0.038 -0.028 -0.059 -0.059
 0.462  1.395  0.276  0.040 -0.026 -0.057 -0.057
 0.464  1.398  0.279  0.042 -0.024 -0.055 -0.055
 0.466  1.401  0.282  0.044 -0.023 -0.054 -0.054
 0.468  1.404  0.284  0.046 -0.021 -0.053 -0.053
 0.470  1.406  0.287  0.048 -0.019 -0.051 -0.051
 0.472  1.409  0.290  0.052 -0.017 -0.050 -0.050
 0.474  1.412  0.293  0.054 -0.015 -0.048 -0.048
 0.476  1.415  0.295  0.056 -0.013 -0.047 -0.047
 0.478  1.416  0.298  0.058 -0.012 -0.046 -0.046
 0.480  1.419  0.300  0.060 -0.010 -0.044 -0.044
 0.482  1.422  0.302  0.062 -0.008 -0.043 -0.043
 0.484  1.424  0.305  0.064 -0.006 -0.041 -0.041
 0.486  1.426  0.306  0.066 -0.004 -0.041 -0.041
 0.488  1.429  0.309  0.068 -0.003 -0.039 -0.039
 0.490  1.431  0.311  0.070 -0.001 -0.038 -0.038
 0.492  1.433  0.312  0.072  0.001 -0.036 -0.036
 0.494  1.435  0.315  0.074  0.003 -0.036 -0.036
 0.496  1.438  0.316  0.076  0.004 -0.034 -0.034
 0.498  1.440  0.317  0.078  0.007 -0.034 -0.034
 0.500  1.442  0.319  0.080  0.008 -0.032 -0.032
 0.502  1.444  0.320  0.082  0.010 -0.031 -0.031
 0.504  1.446  0.322  0.084  0.012 -0.030 -0.030
 0.506  1.448  0.323  0.086  0.014 -0.029 -0.029
 0.508  1.451  0.324  0.087  0.015 -0.028 -0.028
 0.510  1.452  0.326  0.089  0.017 -0.027 -0.027
 0.512  1.455  0.327  0.091  0.018 -0.026 -0.026
 0.514  1.456  0.329  0.094  0.020 -0.024 -0.024
 0.516  1.457  0.329  0.095  0.022 -0.024 -0.024
 0.518  1.459  0.330  0.097  0.024 -0.022 -0.022
 0.520  1.462  0.331  0.099  0.025 -0.022 -0.022
 0.522  1.463  0.331  0.100  0.027 -0.020 -0.020
 0.524  1.464  0.333  0.102  0.028 -0.020 -0.020
 0.526  1.466  0.334  0.103  0.029 -0.018 -0.018
 0.528  1.467  0.335  0.105  0.031 -0.017 -0.017
 0.530  1.468  0.335  0.106  0.032 -0.016 -0.016
 0.532  1.470  0.337  0.108  0.034 -0.015 -0.015
 0.534  1.471  0.337  0.109  0.035 -0.015 -0.015
 0.536  1.473  0.338  0.111  0.036 -0.013 -0.013
 0.538  1.474  0.340  0.112  0.037 -0.013 -0.013
 0.540  1.475  0.340  0.113  0.038 -0.012 -0.012
 0.542  1.477  0.341  0.115  0.039 -0.010 -0.010
 0.544  1.478  0.342  0.116  0.040 -0.010 -0.010
 0.546  1.479  0.342  0.117  0.041 -0.009 -0.009
 0.548  1.481  0.344  0.118  0.043 -0.008 -0.008
 0.550  1.481  0.344  0.119  0.043 -0.007 -0.007
 0.552  1.482  0.345  0.121  0.044 -0.006 -0.006
 0.554  1.484  0.345  0.122  0.045 -0.005 -0.005
 0.556  1.484  0.346  0.123  0.046 -0.004 -0.004
 0.558  1.485  0.346  0.124  0.047 -0.003 -0.003
 0.560  1.485  0.348  0.125  0.047 -0.003 -0.003
 0.562  1.486  0.348  0.126  0.047 -0.002 -0.002
 0.564  1.486  0.349  0.127  0.048 -0.001 -0.001
 0.566  1.488  0.349  0.128  0.049  0.000  0.000
 0.568  1.488  0.349  0.129  0.050  0.001  0.001
 0.570  1.489  0.351  0.129  0.050  0.002  0.002
 0.572  1.489  0.351  0.130  0.050  0.002  0.002
 0.574  1.489  0.352  0.131  0.050  0.003  0.003
 0.576  1.490  0.352  0.133  0.050  0.004  0.004
 0.578  1.490  0.352  0.133  0.051  0.005  0.005
 0.580  1.490  0.353  0.134  0.051  0.006  0.006
 0.582  1.490  0.353  0.135  0.051  0.006  0.006
 0.584  1.492  0.353  0.135  0.052  0.007  0.007
 0.586  1.492  0.355  0.136  0.052  0.008  0.008
 0.588  1.492  0.355  0.136  0.052  0.009  0.009
 0.590  1.492  0.355  0.137  0.052  0.009  0.009
 0.592  1.492  0.355  0.137  0.053  0.010  0.010
 0.594  1.493  0.356  0.138  0.053  0.011  0.011
 0.596  1.493  0.356  0.138  0.053  0.011  0.011
 0.598  1.493  0.356  0.139  0.054  0.012  0.012
 0.600  1.493  0.356  0.139  0.054  0.013  0.013
 0.602  1.493  0.358  0.139  0.054  0.014  0.014
 0.604  1.493  0.358  0.139  0.054  0.014  0.014
 0.606  1.493  0.358  0.140  0.054  0.015  0.015
 0.608  1.493  0.358  0.140  0.054  0.016  0.016
 0.610  1.493  0.358  0.140  0.054  0.016  0.016
 0.612  1.493  0.359  0.140  0.055  0.017  0.017
 0.614  1.493  0.359  0.140  0.055  0.018  0.018
 0.616  1.493  0.359  0.140  0.056  0.018  0.018
 0.618  1.493  0.359  0.140  0.056  0.019  0.019
 0.620  1.493  0.359  0.140  0.056  0.020  0.020
 0.622  1.493  0.359  0.140  0.057  0.021  0.021
 0.624  1.493  0.359  0.140  0.057  0.021  0.021
 0.626  1.492  0.360  0.140  0.057  0.022  0.022
 0.628  1.492  0.360  0.139  0.058  0.023  0.023
 0.630  1.492  0.360  0.139  0.058  0.023  0.023
 0.632  1.492  0.360  0.139  0.058  0.024  0.024
 0.634  1.492  0.360  0.138  0.058  0.024  0.024
 0.636  1.490  0.360  0.138  0.059  0.025  0.025
 0.638  1.490  0.360  0.138  0.059  0.026  0.026
 0.640  1.490  0.360  0.137  0.059  0.026  0.026
 0.642  1.490  0.360  0.137  0.060  0.027  0.027
 0.644  1.489  0.360  0.136  0.060  0.028  0.028
 0.646  1.489  0.360  0.136  0.061  0.028  0.028
 0.648  1.489  0.360  0.135  0.061  0.028  0.028
 0.650  1.488  0.360  0.135  0.061  0.029  0.029
 0.652  1.488  0.360  0.134  0.061  0.030  0.030
 0.654  1.488  0.360  0.134  0.062  0.030  0.030
 0.656  1.488  0.360  0.133  0.062  0.030  0.030
 0.658  1.486  0.360  0.133  0.063  0.031  0.031
 0.660  1.486  0.360  0.133  0.063  0.031  0.031
 0.662  1.486  0.359  0.131  0.063  0.032  0.032
 0.664  1.485  0.359  0.131  0.064  0.033  0.033
 0.666  1.485  0.359  0.130  0.064  0.033  0.033
 0.668  1.485  0.359  0.130  0.064  0.033  0.033
 0.670  1.484  0.359  0.129  0.065  0.033  0.033
 0.672  1.484  0.358  0.129  0.065  0.034  0.034
 0.674  1.484  0.358  0.129  0.065  0.035  0.035
 0.676  1.482  0.358  0.128  0.065  0.035  0.035
 0.678  1.482  0.356  0.128  0.065  0.035  0.035
 0.680  1.482  0.356  0.128  0.065  0.035  0.035
 0.682  1.482  0.355  0.127  0.065  0.036  0.036
 0.684  1.481  0.355  0.127  0.065  0.036  0.036
 0.686  1.481  0.355  0.127  0.065  0.037  0.037
 0.688  1.481  0.353  0.127  0.065  0.037  0.037
 0.690  1.479  0.353  0.126  0.065  0.037  0.037
 0.692  1.479  0.352  0.126  0.065  0.037  0.037
 0.694  1.479  0.352  0.126  0.064  0.038  0.038
 0.696  1.478  0.351  0.126  0.064  0.038  0.038
 0.698  1.478  0.349  0.126  0.064  0.038  0.038
 0.700  1.478  0.349  0.125  0.064  0.039  0.039
 0.702  1.477  0.348  0.125  0.064  0.039  0.039
 0.704  1.477  0.346  0.125  0.063  0.039  0.039
 0.706  1.477  0.346  0.125  0.063  0.040  0.040
 0.708  1.477  0.345  0.125  0.062  0.040  0.040
 0.710  1.475  0.344  0.125  0.062  0.040  0.040
 0.712  1.475  0.342  0.125  0.061  0.040  0.040
 0.714  1.475  0.341  0.124  0.061  0.041  0.041
 0.716  1.474  0.341  0.124  0.061  0.042  0.042
 0.718  1.474  0.340  0.124  0.060  0.042  0.042
 0.720  1.474  0.338  0.124  0.059  0.043  0.043
 0.722  1.474  0.337  0.124  0.059  0.044  0.044
 0.724  1.473  0.335  0.124  0.058  0.045  0.045
 0.726  1.473  0.334  0.124  0.058  0.045  0.045
 0.728  1.473  0.333  0.124  0.058  0.046  0.046
 0.730  1.473  0.333  0.124  0.058  0.047  0.047
 0.732  1.471  0.331  0.124  0.058  0.048  0.048
 0.734  1.471  0.330  0.124  0.058  0.049  0.049
 0.736  1.471  0.330  0.124  0.058  0.050  0.050
 0.738  1.471  0.330  0.124  0.058  0.052  0.052
 0.740  1.470  0.329  0.124  0.058  0.053  0.053
 0.742  1.470  0.329  0.123  0.058  0.054  0.054
 0.744  1.470  0.329  0.123  0.059  0.056  0.056
 0.746  1.470  0.329  0.123  0.059  0.057  0.057
 0.748  1.470  0.329  0.123  0.060  0.059  0.059
 0.750  1.470  0.329  0.123  0.061  0.061  0.061
 0.752  1.468  0.330  0.123  0.062  0.062  0.062
 0.754  1.468  0.330  0.123  0.063  0.064  0.064
 0.756  1.468  0.330  0.123  0.065  0.066  0.066
 0.758  1.468  0.331  0.123  0.065  0.068  0.068
 0.760  1.468  0.331  0.123  0.067  0.070  0.070
 0.762  1.468  0.333  0.123  0.069  0.072  0.072
 0.764  1.468  0.334  0.123  0.071  0.074  0.074
 0.766  1.468  0.335  0.123  0.072  0.076  0.076
 0.768  1.468  0.337  0.123  0.074  0.078  0.078
 0.770  1.468  0.338  0.123  0.076  0.080  0.080
 0.772  1.468  0.340  0.123  0.079  0.083  0.083
 0.774  1.468  0.342  0.123  0.081  0.085  0.085
 0.776  1.467  0.344  0.123  0.083  0.088  0.088
 0.778  1.467  0.346  0.123  0.087  0.090  0.090
 0.780  1.467  0.348  0.122  0.089  0.093  0.093
 0.782  1.467  0.351  0.122  0.092  0.095  0.095
 0.784  1.467  0.353  0.122  0.095  0.098  0.098
 0.786  1.467  0.356  0.123  0.098  0.100  0.100
 0.788  1.467  0.358  0.123  0.102  0.103  0.103
 0.790  1.468  0.360  0.123  0.105  0.106  0.106
 0.792  1.468  0.363  0.123  0.108  0.108  0.108
 0.794  1.470  0.366  0.124  0.112  0.111  0.111
 0.796  1.470  0.370  0.125  0.115  0.113  0.113
 0.798  1.471  0.373  0.125  0.118  0.116  0.116
 0.800  1.473  0.375  0.127  0.122  0.118  0.118
 0.802  1.474  0.378  0.128  0.125  0.121  0.121
 0.804  1.475  0.381  0.129  0.128  0.123  0.123
 0.806  1.477  0.384  0.131  0.131  0.125  0.125
 0.808  1.479  0.386  0.133  0.134  0.128  0.128
