# IsPeriodic    : True
# Period        : 0.675836 days
# Normalization : <g_mag>=0
# 
# Phase u_mag  g_mag  r_mag  i_mag  z_mag  y_mag
 0.000  0.807 -0.328 -0.441 -0.463 -0.456 -0.456
 0.002  0.807 -0.328 -0.441 -0.463 -0.456 -0.456
 0.004  0.808 -0.328 -0.441 -0.463 -0.456 -0.456
 0.006  0.808 -0.327 -0.441 -0.462 -0.456 -0.456
 0.008  0.809 -0.327 -0.441 -0.462 -0.455 -0.455
 0.010  0.810 -0.326 -0.440 -0.462 -0.455 -0.455
 0.012  0.811 -0.326 -0.440 -0.462 -0.454 -0.454
 0.014  0.812 -0.324 -0.439 -0.461 -0.454 -0.454
 0.016  0.813 -0.323 -0.439 -0.461 -0.453 -0.453
 0.018  0.815 -0.322 -0.439 -0.460 -0.452 -0.452
 0.020  0.816 -0.321 -0.438 -0.459 -0.452 -0.452
 0.022  0.818 -0.320 -0.438 -0.459 -0.451 -0.451
 0.024  0.820 -0.319 -0.437 -0.458 -0.450 -0.450
 0.026  0.822 -0.317 -0.436 -0.457 -0.449 -0.449
 0.028  0.823 -0.316 -0.436 -0.456 -0.448 -0.448
 0.030  0.825 -0.315 -0.435 -0.456 -0.447 -0.447
 0.032  0.827 -0.313 -0.434 -0.455 -0.446 -0.446
 0.034  0.829 -0.311 -0.433 -0.454 -0.445 -0.445
 0.036  0.831 -0.310 -0.432 -0.453 -0.444 -0.444
 0.038  0.833 -0.308 -0.432 -0.453 -0.443 -0.443
 0.040  0.835 -0.306 -0.430 -0.452 -0.442 -0.442
 0.042  0.837 -0.304 -0.429 -0.451 -0.441 -0.441
 0.044  0.839 -0.302 -0.428 -0.450 -0.441 -0.441
 0.046  0.841 -0.300 -0.427 -0.450 -0.440 -0.440
 0.048  0.844 -0.298 -0.426 -0.449 -0.439 -0.439
 0.050  0.846 -0.296 -0.425 -0.448 -0.438 -0.438
 0.052  0.848 -0.294 -0.423 -0.447 -0.437 -0.437
 0.054  0.850 -0.291 -0.422 -0.446 -0.436 -0.436
 0.056  0.852 -0.289 -0.421 -0.445 -0.435 -0.435
 0.058  0.855 -0.286 -0.419 -0.444 -0.434 -0.434
 0.060  0.857 -0.284 -0.418 -0.444 -0.433 -0.433
 0.062  0.860 -0.281 -0.416 -0.443 -0.433 -0.433
 0.064  0.862 -0.278 -0.414 -0.442 -0.432 -0.432
 0.066  0.865 -0.276 -0.413 -0.441 -0.431 -0.431
 0.068  0.868 -0.272 -0.411 -0.440 -0.430 -0.430
 0.070  0.870 -0.270 -0.409 -0.439 -0.429 -0.429
 0.072  0.873 -0.266 -0.408 -0.438 -0.429 -0.429
 0.074  0.875 -0.263 -0.406 -0.437 -0.428 -0.428
 0.076  0.878 -0.260 -0.404 -0.436 -0.427 -0.427
 0.078  0.881 -0.257 -0.402 -0.435 -0.426 -0.426
 0.080  0.884 -0.254 -0.400 -0.434 -0.425 -0.425
 0.082  0.887 -0.251 -0.399 -0.433 -0.424 -0.424
 0.084  0.889 -0.247 -0.397 -0.432 -0.424 -0.424
 0.086  0.893 -0.244 -0.395 -0.431 -0.423 -0.423
 0.088  0.895 -0.241 -0.393 -0.430 -0.422 -0.422
 0.090  0.898 -0.237 -0.392 -0.429 -0.421 -0.421
 0.092  0.901 -0.234 -0.390 -0.428 -0.420 -0.420
 0.094  0.904 -0.231 -0.388 -0.427 -0.420 -0.420
 0.096  0.907 -0.228 -0.387 -0.426 -0.419 -0.419
 0.098  0.910 -0.225 -0.385 -0.425 -0.418 -0.418
 0.100  0.912 -0.222 -0.384 -0.424 -0.417 -0.417
 0.102  0.915 -0.219 -0.383 -0.423 -0.416 -0.416
 0.104  0.918 -0.216 -0.381 -0.422 -0.416 -0.416
 0.106  0.921 -0.213 -0.380 -0.421 -0.415 -0.415
 0.108  0.924 -0.210 -0.378 -0.420 -0.414 -0.414
 0.110  0.926 -0.207 -0.377 -0.419 -0.413 -0.413
 0.112  0.929 -0.204 -0.376 -0.418 -0.413 -0.413
 0.114  0.932 -0.201 -0.374 -0.417 -0.412 -0.412
 0.116  0.934 -0.199 -0.373 -0.416 -0.411 -0.411
 0.118  0.937 -0.196 -0.372 -0.415 -0.411 -0.411
 0.120  0.939 -0.193 -0.371 -0.414 -0.410 -0.410
 0.122  0.942 -0.190 -0.369 -0.413 -0.409 -0.409
 0.124  0.944 -0.188 -0.368 -0.412 -0.408 -0.408
 0.126  0.947 -0.185 -0.367 -0.411 -0.408 -0.408
 0.128  0.949 -0.183 -0.366 -0.410 -0.407 -0.407
 0.130  0.951 -0.181 -0.365 -0.409 -0.406 -0.406
 0.132  0.954 -0.178 -0.364 -0.408 -0.405 -0.405
 0.134  0.957 -0.176 -0.363 -0.407 -0.405 -0.405
 0.136  0.959 -0.173 -0.362 -0.406 -0.404 -0.404
 0.138  0.961 -0.171 -0.361 -0.405 -0.403 -0.403
 0.140  0.963 -0.169 -0.360 -0.404 -0.403 -0.403
 0.142  0.966 -0.166 -0.359 -0.403 -0.402 -0.402
 0.144  0.968 -0.164 -0.358 -0.402 -0.401 -0.401
 0.146  0.970 -0.162 -0.357 -0.401 -0.400 -0.400
 0.148  0.972 -0.160 -0.356 -0.400 -0.400 -0.400
 0.150  0.974 -0.158 -0.356 -0.399 -0.399 -0.399
 0.152  0.976 -0.155 -0.354 -0.398 -0.398 -0.398
 0.154  0.979 -0.153 -0.354 -0.397 -0.398 -0.398
 0.156  0.981 -0.152 -0.353 -0.396 -0.397 -0.397
 0.158  0.983 -0.149 -0.352 -0.395 -0.397 -0.397
 0.160  0.985 -0.147 -0.351 -0.394 -0.396 -0.396
 0.162  0.987 -0.145 -0.350 -0.393 -0.395 -0.395
 0.164  0.989 -0.143 -0.349 -0.392 -0.394 -0.394
 0.166  0.991 -0.141 -0.348 -0.391 -0.394 -0.394
 0.168  0.993 -0.139 -0.347 -0.390 -0.393 -0.393
 0.170  0.995 -0.137 -0.345 -0.389 -0.392 -0.392
 0.172  0.997 -0.135 -0.344 -0.388 -0.392 -0.392
 0.174  0.999 -0.132 -0.343 -0.387 -0.391 -0.391
 0.176  1.001 -0.130 -0.342 -0.386 -0.391 -0.391
 0.178  1.004 -0.128 -0.341 -0.385 -0.390 -0.390
 0.180  1.006 -0.126 -0.340 -0.384 -0.389 -0.389
 0.182  1.008 -0.124 -0.339 -0.383 -0.389 -0.389
 0.184  1.010 -0.121 -0.338 -0.382 -0.388 -0.388
 0.186  1.012 -0.119 -0.336 -0.382 -0.387 -0.387
 0.188  1.015 -0.117 -0.335 -0.381 -0.386 -0.386
 0.190  1.017 -0.115 -0.334 -0.380 -0.386 -0.386
 0.192  1.019 -0.113 -0.333 -0.379 -0.385 -0.385
 0.194  1.021 -0.110 -0.331 -0.378 -0.385 -0.385
 0.196  1.023 -0.108 -0.330 -0.377 -0.384 -0.384
 0.198  1.026 -0.106 -0.329 -0.376 -0.383 -0.383
 0.200  1.028 -0.103 -0.327 -0.375 -0.383 -0.383
 0.202  1.031 -0.101 -0.326 -0.375 -0.382 -0.382
 0.204  1.033 -0.098 -0.325 -0.374 -0.381 -0.381
 0.206  1.035 -0.096 -0.323 -0.373 -0.381 -0.381
 0.208  1.037 -0.094 -0.322 -0.372 -0.380 -0.380
 0.210  1.040 -0.091 -0.321 -0.371 -0.380 -0.380
 0.212  1.042 -0.089 -0.319 -0.370 -0.379 -0.379
 0.214  1.045 -0.086 -0.318 -0.369 -0.378 -0.378
 0.216  1.047 -0.084 -0.316 -0.369 -0.378 -0.378
 0.218  1.049 -0.081 -0.315 -0.368 -0.377 -0.377
 0.220  1.052 -0.079 -0.313 -0.367 -0.376 -0.376
 0.222  1.054 -0.077 -0.312 -0.366 -0.376 -0.376
 0.224  1.057 -0.074 -0.311 -0.365 -0.375 -0.375
 0.226  1.059 -0.072 -0.309 -0.364 -0.375 -0.375
 0.228  1.061 -0.069 -0.308 -0.363 -0.374 -0.374
 0.230  1.064 -0.067 -0.306 -0.363 -0.373 -0.373
 0.232  1.067 -0.065 -0.305 -0.362 -0.373 -0.373
 0.234  1.069 -0.062 -0.303 -0.361 -0.372 -0.372
 0.236  1.071 -0.060 -0.302 -0.360 -0.371 -0.371
 0.238  1.074 -0.057 -0.300 -0.360 -0.371 -0.371
 0.240  1.076 -0.055 -0.299 -0.359 -0.370 -0.370
 0.242  1.079 -0.053 -0.297 -0.358 -0.370 -0.370
 0.244  1.081 -0.051 -0.296 -0.357 -0.369 -0.369
 0.246  1.083 -0.049 -0.294 -0.357 -0.368 -0.368
 0.248  1.085 -0.046 -0.293 -0.356 -0.367 -0.367
 0.250  1.088 -0.044 -0.291 -0.355 -0.367 -0.367
 0.252  1.090 -0.042 -0.290 -0.354 -0.366 -0.366
 0.254  1.092 -0.040 -0.288 -0.353 -0.365 -0.365
 0.256  1.094 -0.038 -0.287 -0.352 -0.365 -0.365
 0.258  1.096 -0.036 -0.285 -0.351 -0.364 -0.364
 0.260  1.098 -0.034 -0.284 -0.351 -0.363 -0.363
 0.262  1.100 -0.032 -0.282 -0.350 -0.363 -0.363
 0.264  1.103 -0.030 -0.281 -0.349 -0.362 -0.362
 0.266  1.105 -0.028 -0.279 -0.348 -0.361 -0.361
 0.268  1.107 -0.026 -0.278 -0.347 -0.360 -0.360
 0.270  1.109 -0.025 -0.276 -0.347 -0.360 -0.360
 0.272  1.111 -0.023 -0.275 -0.346 -0.359 -0.359
 0.274  1.113 -0.021 -0.273 -0.345 -0.358 -0.358
 0.276  1.115 -0.019 -0.272 -0.344 -0.357 -0.357
 0.278  1.117 -0.017 -0.270 -0.343 -0.356 -0.356
 0.280  1.119 -0.016 -0.269 -0.343 -0.356 -0.356
 0.282  1.121 -0.014 -0.267 -0.342 -0.355 -0.355
 0.284  1.122 -0.013 -0.266 -0.341 -0.354 -0.354
 0.286  1.124 -0.011 -0.264 -0.340 -0.353 -0.353
 0.288  1.126 -0.009 -0.263 -0.339 -0.353 -0.353
 0.290  1.128 -0.008 -0.261 -0.338 -0.352 -0.352
 0.292  1.130 -0.006 -0.260 -0.338 -0.351 -0.351
 0.294  1.131 -0.005 -0.258 -0.337 -0.350 -0.350
 0.296  1.133 -0.003 -0.257 -0.336 -0.349 -0.349
 0.298  1.135 -0.002 -0.256 -0.335 -0.348 -0.348
 0.300  1.136 -0.001 -0.254 -0.334 -0.348 -0.348
 0.302  1.138  0.001 -0.253 -0.333 -0.347 -0.347
 0.304  1.140  0.003 -0.251 -0.332 -0.346 -0.346
 0.306  1.141  0.004 -0.250 -0.331 -0.345 -0.345
 0.308  1.143  0.006 -0.248 -0.331 -0.344 -0.344
 0.310  1.144  0.007 -0.247 -0.330 -0.343 -0.343
 0.312  1.146  0.009 -0.245 -0.329 -0.342 -0.342
 0.314  1.148  0.010 -0.244 -0.328 -0.341 -0.341
 0.316  1.149  0.012 -0.243 -0.327 -0.340 -0.340
 0.318  1.151  0.014 -0.242 -0.326 -0.340 -0.340
 0.320  1.153  0.015 -0.240 -0.325 -0.339 -0.339
 0.322  1.154  0.017 -0.239 -0.324 -0.338 -0.338
 0.324  1.156  0.019 -0.238 -0.323 -0.337 -0.337
 0.326  1.157  0.020 -0.237 -0.322 -0.336 -0.336
 0.328  1.159  0.022 -0.235 -0.322 -0.335 -0.335
 0.330  1.161  0.024 -0.234 -0.321 -0.334 -0.334
 0.332  1.162  0.025 -0.233 -0.320 -0.334 -0.334
 0.334  1.164  0.027 -0.231 -0.319 -0.333 -0.333
 0.336  1.166  0.029 -0.230 -0.318 -0.332 -0.332
 0.338  1.167  0.031 -0.229 -0.317 -0.331 -0.331
 0.340  1.169  0.032 -0.228 -0.316 -0.330 -0.330
 0.342  1.170  0.034 -0.226 -0.315 -0.329 -0.329
 0.344  1.172  0.036 -0.225 -0.314 -0.329 -0.329
 0.346  1.174  0.038 -0.224 -0.313 -0.328 -0.328
 0.348  1.176  0.039 -0.223 -0.312 -0.327 -0.327
 0.350  1.177  0.041 -0.222 -0.311 -0.326 -0.326
 0.352  1.179  0.043 -0.221 -0.310 -0.326 -0.326
 0.354  1.180  0.045 -0.220 -0.309 -0.325 -0.325
 0.356  1.182  0.047 -0.219 -0.308 -0.324 -0.324
 0.358  1.183  0.049 -0.217 -0.307 -0.323 -0.323
 0.360  1.185  0.051 -0.216 -0.307 -0.323 -0.323
 0.362  1.186  0.053 -0.216 -0.306 -0.322 -0.322
 0.364  1.189  0.055 -0.214 -0.305 -0.321 -0.321
 0.366  1.190  0.057 -0.213 -0.304 -0.321 -0.321
 0.368  1.192  0.059 -0.212 -0.302 -0.320 -0.320
 0.370  1.193  0.061 -0.211 -0.301 -0.319 -0.319
 0.372  1.195  0.062 -0.210 -0.301 -0.318 -0.318
 0.374  1.196  0.065 -0.209 -0.300 -0.318 -0.318
 0.376  1.198  0.066 -0.208 -0.299 -0.317 -0.317
 0.378  1.199  0.068 -0.207 -0.298 -0.316 -0.316
 0.380  1.201  0.070 -0.205 -0.296 -0.316 -0.316
 0.382  1.203  0.072 -0.204 -0.295 -0.315 -0.315
 0.384  1.205  0.074 -0.203 -0.295 -0.314 -0.314
 0.386  1.206  0.076 -0.202 -0.294 -0.314 -0.314
 0.388  1.208  0.077 -0.201 -0.293 -0.313 -0.313
 0.390  1.209  0.079 -0.200 -0.292 -0.312 -0.312
 0.392  1.211  0.080 -0.199 -0.291 -0.312 -0.312
 0.394  1.212  0.082 -0.198 -0.290 -0.311 -0.311
 0.396  1.214  0.084 -0.196 -0.289 -0.310 -0.310
 0.398  1.215  0.085 -0.195 -0.288 -0.309 -0.309
 0.400  1.217  0.087 -0.194 -0.287 -0.309 -0.309
 0.402  1.218  0.089 -0.193 -0.286 -0.308 -0.308
 0.404  1.220  0.090 -0.192 -0.285 -0.307 -0.307
 0.406  1.221  0.091 -0.190 -0.284 -0.306 -0.306
 0.408  1.223  0.093 -0.189 -0.283 -0.305 -0.305
 0.410  1.225  0.095 -0.188 -0.282 -0.305 -0.305
 0.412  1.226  0.096 -0.187 -0.282 -0.304 -0.304
 0.414  1.227  0.097 -0.186 -0.281 -0.303 -0.303
 0.416  1.229  0.099 -0.184 -0.280 -0.302 -0.302
 0.418  1.230  0.100 -0.183 -0.279 -0.302 -0.302
 0.420  1.231  0.101 -0.182 -0.278 -0.301 -0.301
 0.422  1.233  0.102 -0.181 -0.277 -0.300 -0.300
 0.424  1.234  0.104 -0.180 -0.276 -0.299 -0.299
 0.426  1.236  0.105 -0.178 -0.276 -0.298 -0.298
 0.428  1.237  0.106 -0.177 -0.275 -0.297 -0.297
 0.430  1.239  0.107 -0.176 -0.274 -0.296 -0.296
 0.432  1.240  0.108 -0.175 -0.273 -0.296 -0.296
 0.434  1.241  0.109 -0.174 -0.272 -0.295 -0.295
 0.436  1.243  0.111 -0.172 -0.271 -0.294 -0.294
 0.438  1.244  0.112 -0.171 -0.271 -0.293 -0.293
 0.440  1.245  0.113 -0.170 -0.270 -0.292 -0.292
 0.442  1.247  0.114 -0.169 -0.269 -0.291 -0.291
 0.444  1.248  0.115 -0.168 -0.268 -0.290 -0.290
 0.446  1.250  0.116 -0.166 -0.268 -0.289 -0.289
 0.448  1.251  0.117 -0.165 -0.267 -0.288 -0.288
 0.450  1.252  0.118 -0.165 -0.266 -0.287 -0.287
 0.452  1.253  0.119 -0.164 -0.265 -0.286 -0.286
 0.454  1.254  0.120 -0.162 -0.264 -0.285 -0.285
 0.456  1.255  0.121 -0.162 -0.264 -0.284 -0.284
 0.458  1.257  0.122 -0.161 -0.263 -0.283 -0.283
 0.460  1.258  0.123 -0.160 -0.263 -0.282 -0.282
 0.462  1.259  0.124 -0.159 -0.262 -0.282 -0.282
 0.464  1.260  0.125 -0.158 -0.261 -0.281 -0.281
 0.466  1.261  0.125 -0.157 -0.260 -0.280 -0.280
 0.468  1.262  0.126 -0.156 -0.260 -0.279 -0.279
 0.470  1.263  0.128 -0.155 -0.259 -0.278 -0.278
 0.472  1.264  0.128 -0.155 -0.258 -0.277 -0.277
 0.474  1.265  0.129 -0.154 -0.258 -0.277 -0.277
 0.476  1.266  0.130 -0.153 -0.257 -0.276 -0.276
 0.478  1.267  0.131 -0.152 -0.256 -0.275 -0.275
 0.480  1.268  0.131 -0.152 -0.256 -0.274 -0.274
 0.482  1.269  0.132 -0.151 -0.255 -0.274 -0.274
 0.484  1.270  0.133 -0.150 -0.254 -0.273 -0.273
 0.486  1.271  0.134 -0.150 -0.254 -0.272 -0.272
 0.488  1.271  0.135 -0.149 -0.253 -0.271 -0.271
 0.490  1.272  0.136 -0.149 -0.252 -0.271 -0.271
 0.492  1.273  0.136 -0.148 -0.252 -0.270 -0.270
 0.494  1.273  0.137 -0.147 -0.251 -0.269 -0.269
 0.496  1.275  0.138 -0.147 -0.251 -0.269 -0.269
 0.498  1.275  0.138 -0.146 -0.250 -0.268 -0.268
 0.500  1.276  0.139 -0.146 -0.250 -0.268 -0.268
 0.502  1.277  0.140 -0.146 -0.249 -0.267 -0.267
 0.504  1.277  0.141 -0.145 -0.248 -0.266 -0.266
 0.506  1.278  0.141 -0.144 -0.248 -0.266 -0.266
 0.508  1.278  0.142 -0.144 -0.247 -0.265 -0.265
 0.510  1.279  0.142 -0.144 -0.247 -0.265 -0.265
 0.512  1.279  0.143 -0.143 -0.246 -0.264 -0.264
 0.514  1.280  0.144 -0.143 -0.245 -0.264 -0.264
 0.516  1.280  0.145 -0.142 -0.245 -0.263 -0.263
 0.518  1.281  0.145 -0.142 -0.245 -0.263 -0.263
 0.520  1.281  0.146 -0.141 -0.244 -0.262 -0.262
 0.522  1.282  0.146 -0.141 -0.243 -0.262 -0.262
 0.524  1.282  0.147 -0.140 -0.243 -0.262 -0.262
 0.526  1.283  0.147 -0.140 -0.242 -0.261 -0.261
 0.528  1.283  0.148 -0.140 -0.242 -0.261 -0.261
 0.530  1.283  0.148 -0.139 -0.241 -0.260 -0.260
 0.532  1.284  0.149 -0.138 -0.241 -0.260 -0.260
 0.534  1.284  0.149 -0.138 -0.240 -0.259 -0.259
 0.536  1.285  0.149 -0.137 -0.240 -0.259 -0.259
 0.538  1.285  0.150 -0.137 -0.239 -0.258 -0.258
 0.540  1.286  0.151 -0.136 -0.239 -0.258 -0.258
 0.542  1.286  0.151 -0.136 -0.239 -0.258 -0.258
 0.544  1.287  0.151 -0.135 -0.238 -0.257 -0.257
 0.546  1.287  0.152 -0.135 -0.238 -0.257 -0.257
 0.548  1.288  0.152 -0.134 -0.237 -0.256 -0.256
 0.550  1.288  0.152 -0.134 -0.237 -0.256 -0.256
 0.552  1.288  0.153 -0.133 -0.236 -0.255 -0.255
 0.554  1.289  0.153 -0.132 -0.236 -0.255 -0.255
 0.556  1.289  0.153 -0.132 -0.235 -0.255 -0.255
 0.558  1.290  0.153 -0.131 -0.235 -0.254 -0.254
 0.560  1.290  0.154 -0.131 -0.234 -0.254 -0.254
 0.562  1.290  0.154 -0.130 -0.234 -0.253 -0.253
 0.564  1.291  0.154 -0.129 -0.234 -0.253 -0.253
 0.566  1.291  0.154 -0.129 -0.233 -0.252 -0.252
 0.568  1.291  0.154 -0.128 -0.233 -0.252 -0.252
 0.570  1.292  0.155 -0.128 -0.233 -0.252 -0.252
 0.572  1.292  0.155 -0.127 -0.232 -0.251 -0.251
 0.574  1.293  0.155 -0.127 -0.232 -0.251 -0.251
 0.576  1.293  0.155 -0.126 -0.232 -0.250 -0.250
 0.578  1.293  0.155 -0.125 -0.231 -0.250 -0.250
 0.580  1.294  0.155 -0.125 -0.231 -0.249 -0.249
 0.582  1.294  0.155 -0.124 -0.230 -0.249 -0.249
 0.584  1.294  0.155 -0.124 -0.230 -0.248 -0.248
 0.586  1.295  0.156 -0.123 -0.230 -0.248 -0.248
 0.588  1.295  0.156 -0.122 -0.229 -0.247 -0.247
 0.590  1.295  0.156 -0.122 -0.229 -0.247 -0.247
 0.592  1.296  0.156 -0.121 -0.229 -0.247 -0.247
 0.594  1.296  0.156 -0.121 -0.228 -0.246 -0.246
 0.596  1.296  0.156 -0.120 -0.228 -0.246 -0.246
 0.598  1.297  0.157 -0.119 -0.227 -0.245 -0.245
 0.600  1.297  0.157 -0.119 -0.227 -0.245 -0.245
 0.602  1.297  0.157 -0.118 -0.227 -0.244 -0.244
 0.604  1.297  0.157 -0.118 -0.227 -0.244 -0.244
 0.606  1.298  0.157 -0.117 -0.226 -0.243 -0.243
 0.608  1.298  0.157 -0.117 -0.226 -0.243 -0.243
 0.610  1.299  0.157 -0.116 -0.225 -0.242 -0.242
 0.612  1.299  0.157 -0.116 -0.225 -0.242 -0.242
 0.614  1.299  0.157 -0.115 -0.225 -0.241 -0.241
 0.616  1.299  0.157 -0.114 -0.224 -0.241 -0.241
 0.618  1.300  0.157 -0.114 -0.224 -0.240 -0.240
 0.620  1.300  0.158 -0.113 -0.223 -0.240 -0.240
 0.622  1.300  0.158 -0.113 -0.223 -0.239 -0.239
 0.624  1.300  0.158 -0.112 -0.222 -0.239 -0.239
 0.626  1.300  0.158 -0.111 -0.222 -0.238 -0.238
 0.628  1.300  0.158 -0.111 -0.221 -0.237 -0.237
 0.630  1.301  0.158 -0.110 -0.221 -0.237 -0.237
 0.632  1.301  0.158 -0.110 -0.220 -0.236 -0.236
 0.634  1.301  0.158 -0.109 -0.220 -0.236 -0.236
 0.636  1.301  0.158 -0.108 -0.219 -0.235 -0.235
 0.638  1.301  0.159 -0.108 -0.219 -0.234 -0.234
 0.640  1.301  0.159 -0.107 -0.218 -0.233 -0.233
 0.642  1.301  0.159 -0.107 -0.217 -0.233 -0.233
 0.644  1.301  0.159 -0.106 -0.217 -0.232 -0.232
 0.646  1.302  0.159 -0.105 -0.216 -0.232 -0.232
 0.648  1.302  0.159 -0.105 -0.216 -0.231 -0.231
 0.650  1.302  0.159 -0.104 -0.215 -0.230 -0.230
 0.652  1.302  0.159 -0.104 -0.214 -0.230 -0.230
 0.654  1.302  0.160 -0.103 -0.214 -0.229 -0.229
 0.656  1.302  0.160 -0.102 -0.213 -0.228 -0.228
 0.658  1.302  0.160 -0.102 -0.213 -0.228 -0.228
 0.660  1.302  0.160 -0.101 -0.212 -0.227 -0.227
 0.662  1.302  0.161 -0.100 -0.211 -0.226 -0.226
 0.664  1.302  0.161 -0.099 -0.211 -0.225 -0.225
 0.666  1.302  0.161 -0.099 -0.210 -0.225 -0.225
 0.668  1.302  0.162 -0.098 -0.209 -0.224 -0.224
 0.670  1.302  0.163 -0.097 -0.208 -0.223 -0.223
 0.672  1.302  0.163 -0.096 -0.208 -0.222 -0.222
 0.674  1.303  0.164 -0.096 -0.207 -0.221 -0.221
 0.676  1.303  0.164 -0.095 -0.206 -0.220 -0.220
 0.678  1.303  0.165 -0.094 -0.205 -0.220 -0.220
 0.680  1.303  0.166 -0.093 -0.204 -0.218 -0.218
 0.682  1.304  0.167 -0.092 -0.203 -0.217 -0.217
 0.684  1.304  0.167 -0.091 -0.202 -0.217 -0.217
 0.686  1.304  0.169 -0.090 -0.201 -0.215 -0.215
 0.688  1.304  0.170 -0.089 -0.200 -0.214 -0.214
 0.690  1.305  0.171 -0.088 -0.198 -0.213 -0.213
 0.692  1.305  0.172 -0.087 -0.197 -0.212 -0.212
 0.694  1.305  0.173 -0.086 -0.196 -0.211 -0.211
 0.696  1.306  0.174 -0.085 -0.195 -0.210 -0.210
 0.698  1.306  0.175 -0.084 -0.194 -0.209 -0.209
 0.700  1.307  0.177 -0.083 -0.192 -0.208 -0.208
 0.702  1.307  0.178 -0.082 -0.191 -0.206 -0.206
 0.704  1.307  0.180 -0.081 -0.190 -0.205 -0.205
 0.706  1.308  0.181 -0.080 -0.188 -0.204 -0.204
 0.708  1.308  0.182 -0.079 -0.187 -0.203 -0.203
 0.710  1.309  0.184 -0.077 -0.185 -0.201 -0.201
 0.712  1.309  0.186 -0.076 -0.183 -0.200 -0.200
 0.714  1.310  0.187 -0.075 -0.182 -0.198 -0.198
 0.716  1.311  0.189 -0.074 -0.180 -0.197 -0.197
 0.718  1.312  0.191 -0.073 -0.179 -0.195 -0.195
 0.720  1.312  0.193 -0.071 -0.177 -0.194 -0.194
 0.722  1.313  0.195 -0.071 -0.175 -0.192 -0.192
 0.724  1.314  0.196 -0.070 -0.173 -0.191 -0.191
 0.726  1.314  0.198 -0.069 -0.171 -0.189 -0.189
 0.728  1.315  0.200 -0.068 -0.170 -0.188 -0.188
 0.730  1.316  0.202 -0.068 -0.168 -0.186 -0.186
 0.732  1.316  0.204 -0.067 -0.166 -0.184 -0.184
 0.734  1.317  0.205 -0.067 -0.164 -0.183 -0.183
 0.736  1.318  0.206 -0.067 -0.163 -0.181 -0.181
 0.738  1.318  0.208 -0.067 -0.161 -0.179 -0.179
 0.740  1.319  0.209 -0.067 -0.159 -0.178 -0.178
 0.742  1.320  0.211 -0.067 -0.157 -0.176 -0.176
 0.744  1.320  0.212 -0.067 -0.156 -0.175 -0.175
 0.746  1.321  0.213 -0.068 -0.154 -0.173 -0.173
 0.748  1.321  0.214 -0.068 -0.153 -0.172 -0.172
 0.750  1.322  0.215 -0.069 -0.152 -0.170 -0.170
 0.752  1.322  0.216 -0.070 -0.151 -0.169 -0.169
 0.754  1.323  0.217 -0.070 -0.150 -0.168 -0.168
 0.756  1.324  0.217 -0.071 -0.149 -0.167 -0.167
 0.758  1.324  0.218 -0.073 -0.148 -0.166 -0.166
 0.760  1.325  0.218 -0.074 -0.148 -0.165 -0.165
 0.762  1.325  0.218 -0.075 -0.147 -0.164 -0.164
 0.764  1.325  0.219 -0.076 -0.147 -0.163 -0.163
 0.766  1.326  0.219 -0.078 -0.146 -0.163 -0.163
 0.768  1.326  0.219 -0.080 -0.146 -0.162 -0.162
 0.770  1.326  0.219 -0.082 -0.146 -0.161 -0.161
 0.772  1.327  0.219 -0.083 -0.146 -0.161 -0.161
 0.774  1.327  0.219 -0.085 -0.147 -0.160 -0.160
 0.776  1.327  0.219 -0.088 -0.147 -0.160 -0.160
 0.778  1.327  0.219 -0.090 -0.147 -0.160 -0.160
 0.780  1.327  0.219 -0.092 -0.148 -0.160 -0.160
 0.782  1.327  0.218 -0.095 -0.149 -0.159 -0.159
 0.784  1.328  0.218 -0.097 -0.149 -0.159 -0.159
 0.786  1.328  0.217 -0.100 -0.150 -0.159 -0.159
 0.788  1.328  0.217 -0.103 -0.151 -0.159 -0.159
 0.790  1.328  0.216 -0.106 -0.152 -0.159 -0.159
 0.792  1.328  0.215 -0.109 -0.153 -0.159 -0.159
 0.794  1.328  0.214 -0.112 -0.155 -0.159 -0.159
 0.796  1.328  0.213 -0.115 -0.156 -0.159 -0.159
 0.798  1.328  0.212 -0.118 -0.158 -0.160 -0.160
 0.800  1.328  0.210 -0.122 -0.159 -0.160 -0.160
 0.802  1.328  0.209 -0.125 -0.161 -0.160 -0.160
 0.804  1.328  0.207 -0.129 -0.163 -0.161 -0.161
 0.806  1.327  0.205 -0.132 -0.165 -0.162 -0.162
 0.808  1.326  0.203 -0.136 -0.167 -0.162 -0.162
