# IsPeriodic    : True
# Period        : 0.499554 days
# Normalization : <g_mag>=0
# 
# Phase u_mag  g_mag  r_mag  i_mag  z_mag  y_mag
 0.000  0.123 -1.004 -0.838 -0.604 -0.573 -0.573
 0.002  0.123 -1.003 -0.838 -0.604 -0.573 -0.573
 0.004  0.126 -1.001 -0.836 -0.604 -0.573 -0.573
 0.006  0.129 -0.998 -0.833 -0.603 -0.573 -0.573
 0.008  0.134 -0.995 -0.830 -0.603 -0.572 -0.572
 0.010  0.140 -0.991 -0.826 -0.602 -0.570 -0.570
 0.012  0.146 -0.986 -0.821 -0.600 -0.568 -0.568
 0.014  0.155 -0.982 -0.816 -0.599 -0.566 -0.566
 0.016  0.162 -0.977 -0.810 -0.597 -0.565 -0.565
 0.018  0.173 -0.971 -0.805 -0.595 -0.563 -0.563
 0.020  0.182 -0.965 -0.800 -0.594 -0.560 -0.560
 0.022  0.193 -0.959 -0.793 -0.591 -0.557 -0.557
 0.024  0.202 -0.952 -0.786 -0.590 -0.555 -0.555
 0.026  0.212 -0.946 -0.781 -0.587 -0.552 -0.552
 0.028  0.223 -0.940 -0.776 -0.586 -0.550 -0.550
 0.030  0.232 -0.933 -0.770 -0.584 -0.547 -0.547
 0.032  0.243 -0.926 -0.765 -0.582 -0.544 -0.544
 0.034  0.252 -0.920 -0.759 -0.580 -0.542 -0.542
 0.036  0.261 -0.914 -0.754 -0.578 -0.539 -0.539
 0.038  0.270 -0.906 -0.748 -0.576 -0.536 -0.536
 0.040  0.279 -0.900 -0.743 -0.574 -0.533 -0.533
 0.042  0.290 -0.893 -0.738 -0.572 -0.530 -0.530
 0.044  0.299 -0.885 -0.733 -0.570 -0.527 -0.527
 0.046  0.308 -0.878 -0.728 -0.569 -0.525 -0.525
 0.048  0.317 -0.870 -0.722 -0.566 -0.522 -0.522
 0.050  0.326 -0.863 -0.717 -0.565 -0.519 -0.519
 0.052  0.335 -0.854 -0.711 -0.562 -0.517 -0.517
 0.054  0.344 -0.846 -0.705 -0.561 -0.514 -0.514
 0.056  0.355 -0.837 -0.699 -0.558 -0.511 -0.511
 0.058  0.364 -0.828 -0.694 -0.557 -0.509 -0.509
 0.060  0.373 -0.819 -0.687 -0.554 -0.506 -0.506
 0.062  0.382 -0.810 -0.682 -0.552 -0.504 -0.504
 0.064  0.391 -0.801 -0.676 -0.550 -0.502 -0.502
 0.066  0.400 -0.792 -0.670 -0.548 -0.499 -0.499
 0.068  0.410 -0.781 -0.664 -0.546 -0.496 -0.496
 0.070  0.419 -0.772 -0.659 -0.544 -0.494 -0.494
 0.072  0.428 -0.763 -0.653 -0.542 -0.492 -0.492
 0.074  0.437 -0.752 -0.648 -0.540 -0.489 -0.489
 0.076  0.446 -0.742 -0.641 -0.538 -0.487 -0.487
 0.078  0.455 -0.733 -0.636 -0.536 -0.484 -0.484
 0.080  0.464 -0.722 -0.631 -0.534 -0.481 -0.481
 0.082  0.472 -0.713 -0.625 -0.531 -0.480 -0.480
 0.084  0.481 -0.703 -0.620 -0.530 -0.477 -0.477
 0.086  0.490 -0.692 -0.614 -0.527 -0.474 -0.474
 0.088  0.499 -0.683 -0.609 -0.525 -0.472 -0.472
 0.090  0.507 -0.674 -0.602 -0.523 -0.470 -0.470
 0.092  0.516 -0.663 -0.597 -0.521 -0.467 -0.467
 0.094  0.525 -0.654 -0.591 -0.519 -0.465 -0.465
 0.096  0.532 -0.645 -0.586 -0.516 -0.463 -0.463
 0.098  0.541 -0.636 -0.580 -0.515 -0.460 -0.460
 0.100  0.549 -0.627 -0.575 -0.512 -0.458 -0.458
 0.102  0.558 -0.618 -0.569 -0.510 -0.456 -0.456
 0.104  0.566 -0.611 -0.564 -0.508 -0.454 -0.454
 0.106  0.573 -0.602 -0.559 -0.505 -0.451 -0.451
 0.108  0.582 -0.593 -0.553 -0.503 -0.449 -0.449
 0.110  0.590 -0.585 -0.548 -0.501 -0.447 -0.447
 0.112  0.598 -0.576 -0.543 -0.497 -0.445 -0.445
 0.114  0.605 -0.568 -0.538 -0.495 -0.442 -0.442
 0.116  0.613 -0.561 -0.532 -0.493 -0.441 -0.441
 0.118  0.620 -0.552 -0.527 -0.490 -0.438 -0.438
 0.120  0.628 -0.544 -0.523 -0.487 -0.436 -0.436
 0.122  0.635 -0.537 -0.517 -0.485 -0.433 -0.433
 0.124  0.642 -0.529 -0.512 -0.482 -0.432 -0.432
 0.126  0.649 -0.522 -0.507 -0.479 -0.429 -0.429
 0.128  0.657 -0.516 -0.502 -0.476 -0.427 -0.427
 0.130  0.663 -0.508 -0.497 -0.474 -0.425 -0.425
 0.132  0.670 -0.501 -0.492 -0.470 -0.423 -0.423
 0.134  0.676 -0.494 -0.488 -0.468 -0.421 -0.421
 0.136  0.684 -0.487 -0.482 -0.465 -0.418 -0.418
 0.138  0.690 -0.481 -0.478 -0.462 -0.417 -0.417
 0.140  0.698 -0.475 -0.473 -0.459 -0.414 -0.414
 0.142  0.704 -0.469 -0.468 -0.456 -0.412 -0.412
 0.144  0.710 -0.461 -0.464 -0.453 -0.410 -0.410
 0.146  0.716 -0.455 -0.458 -0.450 -0.408 -0.408
 0.148  0.722 -0.449 -0.454 -0.447 -0.406 -0.406
 0.150  0.728 -0.443 -0.449 -0.444 -0.404 -0.404
 0.152  0.734 -0.437 -0.445 -0.440 -0.402 -0.402
 0.154  0.740 -0.431 -0.441 -0.437 -0.400 -0.400
 0.156  0.746 -0.427 -0.435 -0.434 -0.398 -0.398
 0.158  0.752 -0.421 -0.431 -0.431 -0.396 -0.396
 0.160  0.758 -0.415 -0.427 -0.427 -0.394 -0.394
 0.162  0.763 -0.408 -0.422 -0.424 -0.392 -0.392
 0.164  0.769 -0.402 -0.418 -0.421 -0.390 -0.390
 0.166  0.775 -0.396 -0.414 -0.418 -0.388 -0.388
 0.168  0.781 -0.390 -0.409 -0.414 -0.386 -0.386
 0.170  0.786 -0.384 -0.405 -0.411 -0.384 -0.384
 0.172  0.792 -0.380 -0.400 -0.408 -0.382 -0.382
 0.174  0.798 -0.374 -0.396 -0.405 -0.380 -0.380
 0.176  0.804 -0.368 -0.393 -0.402 -0.379 -0.379
 0.178  0.808 -0.362 -0.388 -0.399 -0.376 -0.376
 0.180  0.814 -0.356 -0.384 -0.396 -0.374 -0.374
 0.182  0.820 -0.350 -0.380 -0.393 -0.372 -0.372
 0.184  0.825 -0.344 -0.375 -0.391 -0.371 -0.371
 0.186  0.831 -0.338 -0.372 -0.387 -0.369 -0.369
 0.188  0.837 -0.332 -0.368 -0.385 -0.366 -0.366
 0.190  0.842 -0.325 -0.363 -0.382 -0.364 -0.364
 0.192  0.848 -0.319 -0.360 -0.380 -0.363 -0.363
 0.194  0.852 -0.313 -0.356 -0.376 -0.361 -0.361
 0.196  0.858 -0.307 -0.351 -0.374 -0.359 -0.359
 0.198  0.864 -0.303 -0.348 -0.372 -0.356 -0.356
 0.200  0.869 -0.297 -0.344 -0.369 -0.355 -0.355
 0.202  0.875 -0.291 -0.340 -0.367 -0.353 -0.353
 0.204  0.880 -0.285 -0.336 -0.365 -0.351 -0.351
 0.206  0.886 -0.279 -0.333 -0.362 -0.349 -0.349
 0.208  0.892 -0.273 -0.330 -0.360 -0.348 -0.348
 0.210  0.896 -0.267 -0.325 -0.357 -0.346 -0.346
 0.212  0.902 -0.261 -0.322 -0.355 -0.343 -0.343
 0.214  0.907 -0.255 -0.318 -0.353 -0.341 -0.341
 0.216  0.913 -0.249 -0.314 -0.350 -0.340 -0.340
 0.218  0.918 -0.243 -0.311 -0.349 -0.338 -0.338
 0.220  0.924 -0.236 -0.308 -0.346 -0.336 -0.336
 0.222  0.928 -0.232 -0.303 -0.344 -0.334 -0.334
 0.224  0.934 -0.226 -0.300 -0.342 -0.332 -0.332
 0.226  0.939 -0.220 -0.297 -0.340 -0.331 -0.331
 0.228  0.945 -0.214 -0.294 -0.338 -0.328 -0.328
 0.230  0.949 -0.208 -0.290 -0.336 -0.326 -0.326
 0.232  0.955 -0.203 -0.287 -0.334 -0.325 -0.325
 0.234  0.960 -0.197 -0.284 -0.332 -0.323 -0.323
 0.236  0.965 -0.191 -0.280 -0.331 -0.321 -0.321
 0.238  0.971 -0.185 -0.277 -0.328 -0.319 -0.319
 0.240  0.975 -0.181 -0.274 -0.327 -0.317 -0.317
 0.242  0.980 -0.175 -0.271 -0.324 -0.316 -0.316
 0.244  0.986 -0.170 -0.267 -0.323 -0.313 -0.313
 0.246  0.990 -0.164 -0.264 -0.320 -0.311 -0.311
 0.248  0.995 -0.160 -0.261 -0.319 -0.309 -0.309
 0.250  0.999 -0.154 -0.258 -0.316 -0.308 -0.308
 0.252  1.004 -0.149 -0.254 -0.314 -0.305 -0.305
 0.254  1.009 -0.143 -0.251 -0.312 -0.303 -0.303
 0.256  1.013 -0.138 -0.248 -0.309 -0.301 -0.301
 0.258  1.018 -0.134 -0.246 -0.307 -0.299 -0.299
 0.260  1.022 -0.128 -0.242 -0.304 -0.297 -0.297
 0.262  1.027 -0.123 -0.239 -0.302 -0.295 -0.295
 0.264  1.031 -0.119 -0.236 -0.300 -0.293 -0.293
 0.266  1.036 -0.114 -0.232 -0.297 -0.291 -0.291
 0.268  1.040 -0.110 -0.230 -0.295 -0.288 -0.288
 0.270  1.043 -0.104 -0.227 -0.293 -0.286 -0.286
 0.272  1.048 -0.099 -0.224 -0.290 -0.284 -0.284
 0.274  1.052 -0.095 -0.222 -0.287 -0.282 -0.282
 0.276  1.057 -0.090 -0.218 -0.285 -0.279 -0.279
 0.278  1.060 -0.086 -0.215 -0.282 -0.277 -0.277
 0.280  1.065 -0.081 -0.213 -0.279 -0.275 -0.275
 0.282  1.068 -0.077 -0.210 -0.277 -0.272 -0.272
 0.284  1.072 -0.072 -0.207 -0.274 -0.270 -0.270
 0.286  1.077 -0.068 -0.204 -0.271 -0.268 -0.268
 0.288  1.080 -0.064 -0.202 -0.268 -0.265 -0.265
 0.290  1.083 -0.060 -0.199 -0.266 -0.262 -0.262
 0.292  1.087 -0.055 -0.197 -0.263 -0.260 -0.260
 0.294  1.090 -0.051 -0.193 -0.259 -0.257 -0.257
 0.296  1.093 -0.046 -0.191 -0.256 -0.255 -0.255
 0.298  1.098 -0.043 -0.189 -0.253 -0.252 -0.252
 0.300  1.101 -0.039 -0.186 -0.251 -0.250 -0.250
 0.302  1.104 -0.034 -0.183 -0.248 -0.247 -0.247
 0.304  1.109 -0.030 -0.180 -0.244 -0.245 -0.245
 0.306  1.112 -0.025 -0.178 -0.241 -0.242 -0.242
 0.308  1.115 -0.021 -0.175 -0.238 -0.239 -0.239
 0.310  1.118 -0.018 -0.173 -0.235 -0.237 -0.237
 0.312  1.122 -0.013 -0.169 -0.232 -0.234 -0.234
 0.314  1.125 -0.009 -0.167 -0.229 -0.231 -0.231
 0.316  1.128 -0.004 -0.164 -0.226 -0.229 -0.229
 0.318  1.133  0.000 -0.162 -0.223 -0.226 -0.226
 0.320  1.136  0.005 -0.158 -0.220 -0.224 -0.224
 0.322  1.139  0.009 -0.156 -0.217 -0.221 -0.221
 0.324  1.143  0.014 -0.153 -0.214 -0.218 -0.218
 0.326  1.146  0.018 -0.151 -0.211 -0.216 -0.216
 0.328  1.151  0.023 -0.147 -0.208 -0.213 -0.213
 0.330  1.154  0.028 -0.145 -0.205 -0.211 -0.211
 0.332  1.159  0.031 -0.142 -0.202 -0.208 -0.208
 0.334  1.162  0.035 -0.139 -0.199 -0.206 -0.206
 0.336  1.165  0.040 -0.137 -0.196 -0.203 -0.203
 0.338  1.169  0.044 -0.133 -0.193 -0.201 -0.201
 0.340  1.174  0.049 -0.131 -0.191 -0.199 -0.199
 0.342  1.177  0.053 -0.128 -0.187 -0.196 -0.196
 0.344  1.181  0.058 -0.125 -0.185 -0.194 -0.194
 0.346  1.184  0.062 -0.122 -0.182 -0.192 -0.192
 0.348  1.189  0.067 -0.119 -0.179 -0.190 -0.190
 0.350  1.192  0.071 -0.117 -0.176 -0.187 -0.187
 0.352  1.197  0.076 -0.114 -0.173 -0.185 -0.185
 0.354  1.201  0.080 -0.110 -0.171 -0.183 -0.183
 0.356  1.204  0.086 -0.107 -0.168 -0.180 -0.180
 0.358  1.209  0.091 -0.105 -0.165 -0.178 -0.178
 0.360  1.213  0.095 -0.102 -0.162 -0.176 -0.176
 0.362  1.218  0.100 -0.098 -0.160 -0.174 -0.174
 0.364  1.221  0.104 -0.096 -0.157 -0.171 -0.171
 0.366  1.225  0.109 -0.093 -0.154 -0.169 -0.169
 0.368  1.230  0.114 -0.090 -0.152 -0.168 -0.168
 0.370  1.234  0.118 -0.087 -0.149 -0.165 -0.165
 0.372  1.237  0.123 -0.084 -0.146 -0.163 -0.163
 0.374  1.242  0.127 -0.081 -0.143 -0.162 -0.162
 0.376  1.247  0.132 -0.078 -0.141 -0.159 -0.159
 0.378  1.251  0.136 -0.075 -0.138 -0.157 -0.157
 0.380  1.256  0.141 -0.072 -0.135 -0.155 -0.155
 0.382  1.259  0.145 -0.069 -0.133 -0.154 -0.154
 0.384  1.263  0.150 -0.067 -0.131 -0.151 -0.151
 0.386  1.268  0.154 -0.063 -0.128 -0.149 -0.149
 0.388  1.271  0.159 -0.060 -0.125 -0.147 -0.147
 0.390  1.275  0.163 -0.058 -0.123 -0.145 -0.145
 0.392  1.280  0.166 -0.055 -0.120 -0.143 -0.143
 0.394  1.283  0.171 -0.051 -0.118 -0.140 -0.140
 0.396  1.288  0.175 -0.049 -0.115 -0.138 -0.138
 0.398  1.291  0.180 -0.046 -0.112 -0.136 -0.136
 0.400  1.295  0.184 -0.043 -0.110 -0.134 -0.134
 0.402  1.298  0.189 -0.041 -0.108 -0.131 -0.131
 0.404  1.303  0.192 -0.037 -0.105 -0.130 -0.130
 0.406  1.306  0.197 -0.034 -0.103 -0.127 -0.127
 0.408  1.310  0.201 -0.032 -0.100 -0.124 -0.124
 0.410  1.313  0.206 -0.029 -0.098 -0.123 -0.123
 0.412  1.318  0.209 -0.026 -0.096 -0.120 -0.120
 0.414  1.321  0.213 -0.023 -0.093 -0.117 -0.117
 0.416  1.324  0.218 -0.020 -0.090 -0.115 -0.115
 0.418  1.328  0.221 -0.018 -0.088 -0.113 -0.113
 0.420  1.331  0.225 -0.014 -0.085 -0.110 -0.110
 0.422  1.335  0.230 -0.012 -0.083 -0.107 -0.107
 0.424  1.338  0.233 -0.009 -0.081 -0.105 -0.105
 0.426  1.342  0.237 -0.006 -0.079 -0.103 -0.103
 0.428  1.345  0.242 -0.004 -0.077 -0.100 -0.100
 0.430  1.348  0.245 -0.000 -0.074 -0.098 -0.098
 0.432  1.351  0.249  0.002 -0.072 -0.095 -0.095
 0.434  1.354  0.252  0.005 -0.070 -0.092 -0.092
 0.436  1.357  0.257  0.008 -0.067 -0.090 -0.090
 0.438  1.360  0.260  0.011 -0.065 -0.086 -0.086
 0.440  1.363  0.264  0.014 -0.063 -0.084 -0.084
 0.442  1.366  0.267  0.016 -0.061 -0.081 -0.081
 0.444  1.369  0.272  0.019 -0.059 -0.078 -0.078
 0.446  1.372  0.275  0.022 -0.056 -0.076 -0.076
 0.448  1.375  0.278  0.024 -0.054 -0.073 -0.073
 0.450  1.379  0.283  0.027 -0.051 -0.070 -0.070
 0.452  1.382  0.286  0.029 -0.050 -0.067 -0.067
 0.454  1.385  0.289  0.031 -0.047 -0.064 -0.064
 0.456  1.388  0.292  0.035 -0.045 -0.061 -0.061
 0.458  1.391  0.295  0.037 -0.043 -0.059 -0.059
 0.460  1.394  0.298  0.039 -0.041 -0.056 -0.056
 0.462  1.397  0.301  0.041 -0.039 -0.053 -0.053
 0.464  1.398  0.304  0.044 -0.036 -0.051 -0.051
 0.466  1.401  0.307  0.047 -0.034 -0.048 -0.048
 0.468  1.404  0.310  0.049 -0.032 -0.045 -0.045
 0.470  1.407  0.313  0.051 -0.030 -0.043 -0.043
 0.472  1.409  0.316  0.053 -0.028 -0.041 -0.041
 0.474  1.412  0.319  0.055 -0.026 -0.038 -0.038
 0.476  1.415  0.320  0.058 -0.024 -0.036 -0.036
 0.478  1.418  0.323  0.060 -0.021 -0.034 -0.034
 0.480  1.419  0.326  0.062 -0.019 -0.031 -0.031
 0.482  1.422  0.328  0.064 -0.017 -0.030 -0.030
 0.484  1.426  0.331  0.065 -0.015 -0.027 -0.027
 0.486  1.427  0.332  0.067 -0.013 -0.025 -0.025
 0.488  1.430  0.335  0.070 -0.011 -0.023 -0.023
 0.490  1.432  0.337  0.072 -0.009 -0.022 -0.022
 0.492  1.435  0.340  0.074 -0.006 -0.019 -0.019
 0.494  1.436  0.341  0.075 -0.004 -0.017 -0.017
 0.496  1.439  0.343  0.077 -0.002 -0.015 -0.015
 0.498  1.442  0.344  0.079 -0.000 -0.014 -0.014
 0.500  1.444  0.347  0.080  0.002 -0.012 -0.012
 0.502  1.447  0.349  0.083  0.004 -0.010 -0.010
 0.504  1.448  0.350  0.084  0.006 -0.008 -0.008
 0.506  1.450  0.352  0.086  0.009 -0.006 -0.006
 0.508  1.453  0.353  0.087  0.010 -0.005 -0.005
 0.510  1.454  0.355  0.089  0.013 -0.003 -0.003
 0.512  1.457  0.356  0.090  0.015 -0.002 -0.002
 0.514  1.459  0.358  0.091  0.017 -0.000 -0.000
 0.516  1.460  0.359  0.094  0.019  0.001  0.001
 0.518  1.463  0.361  0.095  0.020  0.002  0.002
 0.520  1.465  0.362  0.096  0.023  0.004  0.004
 0.522  1.466  0.364  0.097  0.025  0.005  0.005
 0.524  1.468  0.365  0.099  0.027  0.006  0.006
 0.526  1.471  0.365  0.100  0.029  0.008  0.008
 0.528  1.473  0.367  0.101  0.031  0.009  0.009
 0.530  1.474  0.369  0.102  0.033  0.010  0.010
 0.532  1.476  0.369  0.103  0.035  0.011  0.011
 0.534  1.477  0.370  0.104  0.037  0.013  0.013
 0.536  1.477  0.372  0.106  0.039  0.014  0.014
 0.538  1.479  0.372  0.107  0.040  0.016  0.016
 0.540  1.480  0.373  0.108  0.043  0.017  0.017
 0.542  1.482  0.373  0.109  0.044  0.017  0.017
 0.544  1.482  0.375  0.110  0.047  0.019  0.019
 0.546  1.483  0.375  0.110  0.048  0.020  0.020
 0.548  1.485  0.376  0.111  0.050  0.022  0.022
 0.550  1.485  0.376  0.112  0.051  0.023  0.023
 0.552  1.486  0.378  0.112  0.054  0.025  0.025
 0.554  1.486  0.378  0.113  0.055  0.025  0.025
 0.556  1.486  0.378  0.114  0.057  0.027  0.027
 0.558  1.488  0.379  0.114  0.058  0.028  0.028
 0.560  1.488  0.379  0.115  0.060  0.030  0.030
 0.562  1.488  0.379  0.115  0.062  0.031  0.031
 0.564  1.489  0.379  0.116  0.063  0.033  0.033
 0.566  1.489  0.379  0.116  0.065  0.033  0.033
 0.568  1.489  0.379  0.118  0.067  0.035  0.035
 0.570  1.489  0.381  0.118  0.069  0.036  0.036
 0.572  1.489  0.381  0.118  0.070  0.038  0.038
 0.574  1.489  0.381  0.119  0.071  0.039  0.039
 0.576  1.489  0.381  0.119  0.073  0.040  0.040
 0.578  1.488  0.381  0.119  0.074  0.041  0.041
 0.580  1.488  0.381  0.119  0.076  0.043  0.043
 0.582  1.488  0.381  0.119  0.077  0.044  0.044
 0.584  1.488  0.381  0.120  0.079  0.046  0.046
 0.586  1.486  0.381  0.120  0.081  0.047  0.047
 0.588  1.486  0.381  0.120  0.082  0.048  0.048
 0.590  1.486  0.381  0.120  0.083  0.049  0.049
 0.592  1.485  0.381  0.120  0.085  0.051  0.051
 0.594  1.485  0.381  0.120  0.086  0.052  0.052
 0.596  1.485  0.381  0.121  0.088  0.054  0.054
 0.598  1.483  0.381  0.121  0.088  0.055  0.055
 0.600  1.483  0.381  0.121  0.090  0.056  0.056
 0.602  1.483  0.381  0.121  0.092  0.058  0.058
 0.604  1.482  0.381  0.121  0.092  0.059  0.059
 0.606  1.482  0.381  0.122  0.094  0.061  0.061
 0.608  1.482  0.381  0.122  0.095  0.063  0.063
 0.610  1.480  0.381  0.122  0.096  0.064  0.064
 0.612  1.480  0.382  0.122  0.098  0.065  0.065
 0.614  1.480  0.382  0.123  0.099  0.067  0.067
 0.616  1.480  0.382  0.123  0.100  0.069  0.069
 0.618  1.479  0.382  0.123  0.101  0.071  0.071
 0.620  1.479  0.382  0.123  0.103  0.071  0.071
 0.622  1.479  0.382  0.124  0.104  0.073  0.073
 0.624  1.479  0.382  0.124  0.105  0.075  0.075
 0.626  1.479  0.384  0.124  0.106  0.077  0.077
 0.628  1.477  0.384  0.125  0.107  0.079  0.079
 0.630  1.477  0.384  0.125  0.108  0.080  0.080
 0.632  1.477  0.384  0.125  0.109  0.082  0.082
 0.634  1.477  0.385  0.126  0.111  0.084  0.084
 0.636  1.477  0.385  0.126  0.111  0.086  0.086
 0.638  1.477  0.385  0.126  0.113  0.088  0.088
 0.640  1.477  0.385  0.127  0.114  0.090  0.090
 0.642  1.477  0.387  0.127  0.115  0.092  0.092
 0.644  1.477  0.387  0.127  0.116  0.094  0.094
 0.646  1.476  0.387  0.128  0.117  0.095  0.095
 0.648  1.476  0.388  0.128  0.118  0.098  0.098
 0.650  1.476  0.388  0.128  0.119  0.100  0.100
 0.652  1.476  0.388  0.130  0.120  0.102  0.102
 0.654  1.476  0.388  0.130  0.121  0.104  0.104
 0.656  1.476  0.390  0.130  0.122  0.106  0.106
 0.658  1.476  0.390  0.131  0.122  0.108  0.108
 0.660  1.476  0.390  0.131  0.123  0.110  0.110
 0.662  1.476  0.390  0.131  0.124  0.112  0.112
 0.664  1.477  0.390  0.132  0.126  0.115  0.115
 0.666  1.477  0.390  0.132  0.126  0.117  0.117
 0.668  1.477  0.390  0.132  0.127  0.119  0.119
 0.670  1.476  0.390  0.133  0.129  0.122  0.122
 0.672  1.476  0.390  0.133  0.130  0.124  0.124
 0.674  1.476  0.390  0.133  0.131  0.126  0.126
 0.676  1.476  0.390  0.133  0.132  0.129  0.129
 0.678  1.476  0.388  0.133  0.134  0.132  0.132
 0.680  1.476  0.388  0.133  0.134  0.135  0.135
 0.682  1.476  0.388  0.133  0.136  0.138  0.138
 0.684  1.476  0.388  0.134  0.138  0.141  0.141
 0.686  1.476  0.387  0.134  0.138  0.144  0.144
 0.688  1.474  0.387  0.134  0.140  0.147  0.147
 0.690  1.474  0.385  0.134  0.141  0.150  0.150
 0.692  1.474  0.385  0.134  0.143  0.153  0.153
 0.694  1.474  0.384  0.134  0.144  0.157  0.157
 0.696  1.474  0.384  0.134  0.145  0.160  0.160
 0.698  1.474  0.382  0.134  0.147  0.164  0.164
 0.700  1.473  0.382  0.134  0.149  0.167  0.167
 0.702  1.473  0.381  0.134  0.150  0.171  0.171
 0.704  1.473  0.379  0.134  0.152  0.174  0.174
 0.706  1.473  0.379  0.134  0.153  0.179  0.179
 0.708  1.471  0.378  0.133  0.155  0.182  0.182
 0.710  1.471  0.376  0.133  0.157  0.187  0.187
 0.712  1.471  0.375  0.133  0.159  0.190  0.190
 0.714  1.469  0.373  0.133  0.161  0.195  0.195
 0.716  1.469  0.373  0.133  0.163  0.199  0.199
 0.718  1.468  0.372  0.132  0.165  0.203  0.203
 0.720  1.468  0.370  0.132  0.167  0.208  0.208
 0.722  1.468  0.369  0.132  0.169  0.212  0.212
 0.724  1.466  0.367  0.132  0.172  0.218  0.218
 0.726  1.466  0.365  0.131  0.173  0.222  0.222
 0.728  1.466  0.365  0.131  0.175  0.227  0.227
 0.730  1.465  0.364  0.131  0.177  0.232  0.232
 0.732  1.465  0.364  0.131  0.179  0.236  0.236
 0.734  1.465  0.362  0.132  0.180  0.242  0.242
 0.736  1.465  0.362  0.132  0.182  0.246  0.246
 0.738  1.465  0.362  0.132  0.183  0.251  0.251
 0.740  1.465  0.362  0.133  0.184  0.256  0.256
 0.742  1.465  0.362  0.134  0.185  0.260  0.260
 0.744  1.466  0.362  0.134  0.186  0.265  0.265
 0.746  1.468  0.364  0.135  0.187  0.269  0.269
 0.748  1.468  0.364  0.136  0.187  0.273  0.273
 0.750  1.469  0.365  0.137  0.187  0.278  0.278
 0.752  1.471  0.365  0.138  0.186  0.281  0.281
 0.754  1.474  0.367  0.140  0.185  0.285  0.285
 0.756  1.476  0.369  0.142  0.184  0.289  0.289
 0.758  1.479  0.369  0.143  0.183  0.291  0.291
 0.760  1.482  0.370  0.145  0.181  0.294  0.294
 0.762  1.485  0.372  0.147  0.179  0.296  0.296
 0.764  1.488  0.375  0.149  0.177  0.299  0.299
 0.766  1.491  0.376  0.150  0.175  0.301  0.301
 0.768  1.495  0.378  0.152  0.172  0.304  0.304
 0.770  1.500  0.381  0.156  0.169  0.305  0.305
 0.772  1.503  0.384  0.158  0.166  0.306  0.306
 0.774  1.507  0.385  0.160  0.163  0.308  0.308
 0.776  1.512  0.388  0.163  0.159  0.309  0.309
 0.778  1.516  0.391  0.167  0.155  0.310  0.310
 0.780  1.521  0.394  0.169  0.151  0.311  0.311
 0.782  1.527  0.399  0.172  0.147  0.312  0.312
 0.784  1.533  0.402  0.175  0.142  0.312  0.312
 0.786  1.538  0.405  0.179  0.137  0.312  0.312
 0.788  1.544  0.409  0.182  0.132  0.312  0.312
 0.790  1.551  0.412  0.186  0.126  0.312  0.312
 0.792  1.557  0.415  0.190  0.121  0.312  0.312
 0.794  1.565  0.420  0.193  0.115  0.312  0.312
 0.796  1.573  0.423  0.196  0.108  0.312  0.312
 0.798  1.580  0.427  0.199  0.102  0.311  0.311
 0.800  1.586  0.430  0.204  0.095  0.309  0.309
 0.802  1.594  0.433  0.207  0.088  0.308  0.308
 0.804  1.601  0.438  0.210  0.081  0.306  0.306
 0.806  1.607  0.441  0.213  0.073  0.304  0.304
 0.808  1.614  0.444  0.217  0.066  0.303  0.303
