# IsPeriodic    : True
# Period        : 0.575207 days
# Normalization : <g_mag>=0
# 
# Phase u_mag  g_mag  r_mag  i_mag  z_mag  y_mag
 0.000  0.518 -0.590 -0.614 -0.558 -0.496 -0.496
 0.002  0.518 -0.590 -0.614 -0.558 -0.495 -0.495
 0.004  0.518 -0.589 -0.614 -0.558 -0.495 -0.495
 0.006  0.519 -0.588 -0.614 -0.558 -0.495 -0.495
 0.008  0.520 -0.587 -0.613 -0.557 -0.494 -0.494
 0.010  0.522 -0.585 -0.612 -0.557 -0.494 -0.494
 0.012  0.523 -0.583 -0.612 -0.556 -0.493 -0.493
 0.014  0.525 -0.581 -0.611 -0.555 -0.492 -0.492
 0.016  0.527 -0.579 -0.609 -0.554 -0.491 -0.491
 0.018  0.530 -0.577 -0.608 -0.553 -0.490 -0.490
 0.020  0.533 -0.574 -0.607 -0.551 -0.489 -0.489
 0.022  0.535 -0.571 -0.605 -0.550 -0.488 -0.488
 0.024  0.538 -0.568 -0.603 -0.548 -0.487 -0.487
 0.026  0.542 -0.566 -0.602 -0.546 -0.486 -0.486
 0.028  0.545 -0.563 -0.599 -0.544 -0.485 -0.485
 0.030  0.547 -0.559 -0.597 -0.542 -0.484 -0.484
 0.032  0.551 -0.557 -0.594 -0.539 -0.483 -0.483
 0.034  0.555 -0.554 -0.592 -0.537 -0.481 -0.481
 0.036  0.559 -0.551 -0.589 -0.534 -0.480 -0.480
 0.038  0.563 -0.547 -0.585 -0.532 -0.479 -0.479
 0.040  0.567 -0.543 -0.582 -0.529 -0.478 -0.478
 0.042  0.572 -0.540 -0.579 -0.526 -0.476 -0.476
 0.044  0.576 -0.536 -0.575 -0.523 -0.475 -0.475
 0.046  0.581 -0.532 -0.571 -0.520 -0.474 -0.474
 0.048  0.586 -0.528 -0.567 -0.517 -0.472 -0.472
 0.050  0.591 -0.523 -0.564 -0.514 -0.471 -0.471
 0.052  0.597 -0.520 -0.559 -0.511 -0.469 -0.469
 0.054  0.602 -0.515 -0.555 -0.508 -0.468 -0.468
 0.056  0.608 -0.510 -0.551 -0.505 -0.466 -0.466
 0.058  0.614 -0.506 -0.546 -0.502 -0.465 -0.465
 0.060  0.620 -0.500 -0.542 -0.500 -0.463 -0.463
 0.062  0.627 -0.495 -0.538 -0.497 -0.461 -0.461
 0.064  0.633 -0.490 -0.533 -0.494 -0.459 -0.459
 0.066  0.639 -0.485 -0.529 -0.491 -0.458 -0.458
 0.068  0.647 -0.480 -0.525 -0.488 -0.456 -0.456
 0.070  0.654 -0.474 -0.521 -0.486 -0.454 -0.454
 0.072  0.660 -0.469 -0.517 -0.483 -0.452 -0.452
 0.074  0.668 -0.463 -0.513 -0.481 -0.450 -0.450
 0.076  0.675 -0.457 -0.509 -0.479 -0.448 -0.448
 0.078  0.683 -0.451 -0.506 -0.476 -0.447 -0.447
 0.080  0.689 -0.445 -0.502 -0.474 -0.445 -0.445
 0.082  0.697 -0.440 -0.498 -0.472 -0.443 -0.443
 0.084  0.704 -0.434 -0.494 -0.469 -0.441 -0.441
 0.086  0.711 -0.429 -0.490 -0.468 -0.439 -0.439
 0.088  0.717 -0.423 -0.487 -0.465 -0.437 -0.437
 0.090  0.724 -0.417 -0.483 -0.463 -0.436 -0.436
 0.092  0.731 -0.412 -0.480 -0.461 -0.434 -0.434
 0.094  0.738 -0.407 -0.477 -0.459 -0.432 -0.432
 0.096  0.743 -0.402 -0.473 -0.458 -0.430 -0.430
 0.098  0.750 -0.397 -0.470 -0.455 -0.428 -0.428
 0.100  0.756 -0.391 -0.467 -0.454 -0.427 -0.427
 0.102  0.762 -0.386 -0.463 -0.452 -0.425 -0.425
 0.104  0.768 -0.381 -0.460 -0.450 -0.423 -0.423
 0.106  0.773 -0.376 -0.457 -0.449 -0.422 -0.422
 0.108  0.779 -0.371 -0.455 -0.447 -0.420 -0.420
 0.110  0.785 -0.367 -0.451 -0.445 -0.419 -0.419
 0.112  0.791 -0.362 -0.448 -0.444 -0.417 -0.417
 0.114  0.796 -0.357 -0.445 -0.442 -0.416 -0.416
 0.116  0.801 -0.353 -0.443 -0.441 -0.414 -0.414
 0.118  0.806 -0.348 -0.440 -0.439 -0.413 -0.413
 0.120  0.812 -0.344 -0.437 -0.437 -0.412 -0.412
 0.122  0.817 -0.339 -0.435 -0.436 -0.410 -0.410
 0.124  0.822 -0.335 -0.432 -0.435 -0.409 -0.409
 0.126  0.827 -0.331 -0.430 -0.433 -0.408 -0.408
 0.128  0.831 -0.327 -0.427 -0.432 -0.406 -0.406
 0.130  0.836 -0.323 -0.425 -0.430 -0.405 -0.405
 0.132  0.840 -0.319 -0.422 -0.428 -0.404 -0.404
 0.134  0.845 -0.315 -0.419 -0.427 -0.403 -0.403
 0.136  0.849 -0.311 -0.417 -0.426 -0.402 -0.402
 0.138  0.854 -0.307 -0.414 -0.424 -0.401 -0.401
 0.140  0.857 -0.303 -0.412 -0.422 -0.400 -0.400
 0.142  0.861 -0.299 -0.409 -0.421 -0.398 -0.398
 0.144  0.865 -0.296 -0.407 -0.419 -0.397 -0.397
 0.146  0.869 -0.293 -0.405 -0.417 -0.396 -0.396
 0.148  0.873 -0.289 -0.402 -0.415 -0.395 -0.395
 0.150  0.877 -0.285 -0.400 -0.414 -0.394 -0.394
 0.152  0.881 -0.281 -0.397 -0.412 -0.393 -0.393
 0.154  0.885 -0.278 -0.395 -0.410 -0.392 -0.392
 0.156  0.888 -0.274 -0.393 -0.409 -0.391 -0.391
 0.158  0.892 -0.271 -0.390 -0.407 -0.390 -0.390
 0.160  0.896 -0.267 -0.388 -0.405 -0.389 -0.389
 0.162  0.899 -0.263 -0.386 -0.404 -0.388 -0.388
 0.164  0.903 -0.260 -0.384 -0.402 -0.387 -0.387
 0.166  0.907 -0.257 -0.381 -0.400 -0.386 -0.386
 0.168  0.911 -0.253 -0.379 -0.398 -0.385 -0.385
 0.170  0.914 -0.249 -0.376 -0.396 -0.384 -0.384
 0.172  0.918 -0.246 -0.374 -0.395 -0.382 -0.382
 0.174  0.922 -0.242 -0.371 -0.393 -0.381 -0.381
 0.176  0.925 -0.238 -0.369 -0.391 -0.380 -0.380
 0.178  0.929 -0.234 -0.367 -0.389 -0.379 -0.379
 0.180  0.933 -0.230 -0.365 -0.387 -0.378 -0.378
 0.182  0.937 -0.227 -0.363 -0.385 -0.376 -0.376
 0.184  0.941 -0.223 -0.360 -0.384 -0.375 -0.375
 0.186  0.944 -0.220 -0.358 -0.382 -0.374 -0.374
 0.188  0.948 -0.216 -0.356 -0.380 -0.373 -0.373
 0.190  0.951 -0.212 -0.354 -0.378 -0.371 -0.371
 0.192  0.955 -0.208 -0.351 -0.376 -0.370 -0.370
 0.194  0.959 -0.204 -0.349 -0.375 -0.369 -0.369
 0.196  0.963 -0.201 -0.347 -0.372 -0.367 -0.367
 0.198  0.967 -0.197 -0.345 -0.371 -0.366 -0.366
 0.200  0.970 -0.193 -0.343 -0.369 -0.365 -0.365
 0.202  0.973 -0.189 -0.341 -0.367 -0.363 -0.363
 0.204  0.977 -0.186 -0.338 -0.366 -0.362 -0.362
 0.206  0.981 -0.182 -0.336 -0.364 -0.361 -0.361
 0.208  0.985 -0.178 -0.333 -0.362 -0.359 -0.359
 0.210  0.988 -0.174 -0.331 -0.361 -0.358 -0.358
 0.212  0.992 -0.170 -0.329 -0.359 -0.356 -0.356
 0.214  0.996 -0.166 -0.327 -0.357 -0.355 -0.355
 0.216  0.999 -0.162 -0.325 -0.356 -0.353 -0.353
 0.218  1.003 -0.158 -0.323 -0.354 -0.352 -0.352
 0.220  1.006 -0.154 -0.321 -0.353 -0.351 -0.351
 0.222  1.010 -0.150 -0.318 -0.352 -0.349 -0.349
 0.224  1.014 -0.147 -0.316 -0.350 -0.348 -0.348
 0.226  1.017 -0.143 -0.313 -0.349 -0.346 -0.346
 0.228  1.021 -0.139 -0.311 -0.347 -0.344 -0.344
 0.230  1.025 -0.135 -0.309 -0.346 -0.343 -0.343
 0.232  1.027 -0.132 -0.307 -0.344 -0.341 -0.341
 0.234  1.031 -0.128 -0.305 -0.343 -0.340 -0.340
 0.236  1.034 -0.124 -0.303 -0.341 -0.339 -0.339
 0.238  1.038 -0.120 -0.300 -0.340 -0.337 -0.337
 0.240  1.041 -0.117 -0.298 -0.339 -0.336 -0.336
 0.242  1.045 -0.113 -0.295 -0.338 -0.335 -0.335
 0.244  1.048 -0.111 -0.293 -0.337 -0.333 -0.333
 0.246  1.051 -0.107 -0.291 -0.336 -0.332 -0.332
 0.248  1.055 -0.103 -0.289 -0.334 -0.331 -0.331
 0.250  1.057 -0.100 -0.287 -0.334 -0.329 -0.329
 0.252  1.060 -0.096 -0.284 -0.332 -0.328 -0.328
 0.254  1.064 -0.093 -0.282 -0.331 -0.327 -0.327
 0.256  1.067 -0.090 -0.280 -0.330 -0.326 -0.326
 0.258  1.070 -0.086 -0.278 -0.329 -0.324 -0.324
 0.260  1.073 -0.083 -0.275 -0.328 -0.323 -0.323
 0.262  1.076 -0.080 -0.273 -0.327 -0.322 -0.322
 0.264  1.080 -0.076 -0.270 -0.326 -0.321 -0.321
 0.266  1.083 -0.074 -0.268 -0.325 -0.319 -0.319
 0.268  1.085 -0.071 -0.266 -0.324 -0.318 -0.318
 0.270  1.088 -0.068 -0.264 -0.322 -0.317 -0.317
 0.272  1.091 -0.065 -0.261 -0.321 -0.316 -0.316
 0.274  1.094 -0.062 -0.259 -0.320 -0.315 -0.315
 0.276  1.097 -0.059 -0.257 -0.318 -0.314 -0.314
 0.278  1.100 -0.056 -0.255 -0.317 -0.313 -0.313
 0.280  1.103 -0.053 -0.252 -0.316 -0.312 -0.312
 0.282  1.106 -0.050 -0.250 -0.315 -0.310 -0.310
 0.284  1.108 -0.047 -0.248 -0.313 -0.309 -0.309
 0.286  1.111 -0.044 -0.246 -0.312 -0.308 -0.308
 0.288  1.113 -0.041 -0.244 -0.311 -0.307 -0.307
 0.290  1.116 -0.038 -0.242 -0.309 -0.306 -0.306
 0.292  1.119 -0.037 -0.240 -0.307 -0.305 -0.305
 0.294  1.122 -0.034 -0.237 -0.306 -0.304 -0.304
 0.296  1.124 -0.031 -0.235 -0.304 -0.303 -0.303
 0.298  1.127 -0.028 -0.233 -0.303 -0.302 -0.302
 0.300  1.130 -0.025 -0.231 -0.301 -0.301 -0.301
 0.302  1.133 -0.023 -0.229 -0.299 -0.300 -0.300
 0.304  1.135 -0.020 -0.227 -0.298 -0.299 -0.299
 0.306  1.138 -0.017 -0.224 -0.296 -0.297 -0.297
 0.308  1.140 -0.014 -0.222 -0.294 -0.296 -0.296
 0.310  1.143 -0.011 -0.220 -0.292 -0.295 -0.295
 0.312  1.145 -0.008 -0.219 -0.290 -0.294 -0.294
 0.314  1.148 -0.005 -0.217 -0.289 -0.293 -0.293
 0.316  1.151 -0.003 -0.214 -0.286 -0.292 -0.292
 0.318  1.154 -0.000 -0.212 -0.285 -0.290 -0.290
 0.320  1.156  0.002 -0.210 -0.283 -0.289 -0.289
 0.322  1.159  0.005 -0.209 -0.281 -0.288 -0.288
 0.324  1.162  0.008 -0.207 -0.279 -0.287 -0.287
 0.326  1.164  0.011 -0.204 -0.277 -0.285 -0.285
 0.328  1.167  0.014 -0.203 -0.275 -0.284 -0.284
 0.330  1.169  0.017 -0.201 -0.273 -0.283 -0.283
 0.332  1.172  0.020 -0.199 -0.271 -0.281 -0.281
 0.334  1.174  0.023 -0.197 -0.269 -0.280 -0.280
 0.336  1.177  0.026 -0.195 -0.267 -0.279 -0.279
 0.338  1.180  0.029 -0.194 -0.265 -0.278 -0.278
 0.340  1.182  0.032 -0.192 -0.263 -0.276 -0.276
 0.342  1.185  0.035 -0.189 -0.261 -0.275 -0.275
 0.344  1.187  0.037 -0.188 -0.259 -0.273 -0.273
 0.346  1.190  0.040 -0.186 -0.257 -0.272 -0.272
 0.348  1.193  0.043 -0.184 -0.255 -0.271 -0.271
 0.350  1.195  0.046 -0.182 -0.253 -0.269 -0.269
 0.352  1.197  0.049 -0.181 -0.251 -0.268 -0.268
 0.354  1.200  0.052 -0.179 -0.249 -0.266 -0.266
 0.356  1.202  0.055 -0.176 -0.248 -0.265 -0.265
 0.358  1.205  0.058 -0.175 -0.246 -0.263 -0.263
 0.360  1.207  0.061 -0.173 -0.244 -0.262 -0.262
 0.362  1.210  0.064 -0.171 -0.243 -0.260 -0.260
 0.364  1.213  0.067 -0.169 -0.241 -0.258 -0.258
 0.366  1.215  0.070 -0.167 -0.239 -0.257 -0.257
 0.368  1.218  0.073 -0.166 -0.238 -0.255 -0.255
 0.370  1.220  0.075 -0.164 -0.237 -0.254 -0.254
 0.372  1.223  0.078 -0.162 -0.235 -0.252 -0.252
 0.374  1.225  0.081 -0.160 -0.233 -0.251 -0.251
 0.376  1.227  0.084 -0.158 -0.232 -0.250 -0.250
 0.378  1.229  0.086 -0.156 -0.230 -0.248 -0.248
 0.380  1.232  0.089 -0.154 -0.229 -0.247 -0.247
 0.382  1.234  0.092 -0.153 -0.227 -0.245 -0.245
 0.384  1.237  0.095 -0.151 -0.226 -0.244 -0.244
 0.386  1.239  0.098 -0.148 -0.225 -0.243 -0.243
 0.388  1.242  0.100 -0.147 -0.223 -0.241 -0.241
 0.390  1.244  0.103 -0.145 -0.222 -0.240 -0.240
 0.392  1.247  0.106 -0.143 -0.221 -0.238 -0.238
 0.394  1.249  0.108 -0.141 -0.219 -0.237 -0.237
 0.396  1.252  0.111 -0.139 -0.218 -0.236 -0.236
 0.398  1.253  0.113 -0.137 -0.217 -0.235 -0.235
 0.400  1.256  0.115 -0.136 -0.216 -0.233 -0.233
 0.402  1.258  0.118 -0.133 -0.215 -0.232 -0.232
 0.404  1.261  0.120 -0.131 -0.214 -0.231 -0.231
 0.406  1.263  0.123 -0.130 -0.212 -0.229 -0.229
 0.408  1.265  0.125 -0.128 -0.211 -0.228 -0.228
 0.410  1.268  0.128 -0.126 -0.210 -0.227 -0.227
 0.412  1.270  0.130 -0.124 -0.209 -0.226 -0.226
 0.414  1.272  0.132 -0.122 -0.207 -0.225 -0.225
 0.416  1.275  0.135 -0.120 -0.206 -0.223 -0.223
 0.418  1.277  0.137 -0.118 -0.205 -0.222 -0.222
 0.420  1.280  0.139 -0.116 -0.203 -0.221 -0.221
 0.422  1.282  0.142 -0.115 -0.202 -0.220 -0.220
 0.424  1.283  0.144 -0.113 -0.201 -0.219 -0.219
 0.426  1.286  0.146 -0.111 -0.200 -0.218 -0.218
 0.428  1.288  0.148 -0.109 -0.198 -0.216 -0.216
 0.430  1.290  0.150 -0.108 -0.197 -0.215 -0.215
 0.432  1.292  0.152 -0.105 -0.196 -0.214 -0.214
 0.434  1.295  0.154 -0.104 -0.195 -0.213 -0.213
 0.436  1.297  0.156 -0.102 -0.193 -0.212 -0.212
 0.438  1.299  0.158 -0.100 -0.192 -0.211 -0.211
 0.440  1.301  0.160 -0.098 -0.191 -0.210 -0.210
 0.442  1.304  0.162 -0.097 -0.189 -0.209 -0.209
 0.444  1.306  0.164 -0.095 -0.188 -0.207 -0.207
 0.446  1.308  0.166 -0.093 -0.187 -0.206 -0.206
 0.448  1.310  0.168 -0.092 -0.186 -0.205 -0.205
 0.450  1.311  0.170 -0.090 -0.184 -0.204 -0.204
 0.452  1.313  0.172 -0.088 -0.183 -0.203 -0.203
 0.454  1.315  0.174 -0.087 -0.182 -0.202 -0.202
 0.456  1.317  0.176 -0.085 -0.180 -0.201 -0.201
 0.458  1.319  0.178 -0.084 -0.179 -0.200 -0.200
 0.460  1.321  0.179 -0.082 -0.177 -0.199 -0.199
 0.462  1.323  0.181 -0.080 -0.176 -0.197 -0.197
 0.464  1.325  0.183 -0.079 -0.174 -0.196 -0.196
 0.466  1.327  0.185 -0.078 -0.173 -0.195 -0.195
 0.468  1.329  0.186 -0.076 -0.172 -0.194 -0.194
 0.470  1.331  0.187 -0.075 -0.170 -0.193 -0.193
 0.472  1.333  0.189 -0.073 -0.169 -0.192 -0.192
 0.474  1.335  0.191 -0.071 -0.168 -0.191 -0.191
 0.476  1.337  0.192 -0.070 -0.166 -0.189 -0.189
 0.478  1.338  0.194 -0.068 -0.165 -0.188 -0.188
 0.480  1.339  0.196 -0.067 -0.164 -0.187 -0.187
 0.482  1.341  0.197 -0.065 -0.162 -0.186 -0.186
 0.484  1.343  0.199 -0.064 -0.161 -0.185 -0.185
 0.486  1.344  0.200 -0.062 -0.160 -0.184 -0.184
 0.488  1.346  0.202 -0.062 -0.158 -0.182 -0.182
 0.490  1.348  0.203 -0.060 -0.157 -0.181 -0.181
 0.492  1.349  0.205 -0.059 -0.156 -0.180 -0.180
 0.494  1.351  0.206 -0.057 -0.155 -0.179 -0.179
 0.496  1.353  0.208 -0.057 -0.154 -0.178 -0.178
 0.498  1.354  0.209 -0.055 -0.152 -0.177 -0.177
 0.500  1.356  0.210 -0.054 -0.151 -0.175 -0.175
 0.502  1.357  0.212 -0.053 -0.150 -0.174 -0.174
 0.504  1.359  0.213 -0.052 -0.149 -0.173 -0.173
 0.506  1.360  0.214 -0.051 -0.148 -0.171 -0.171
 0.508  1.362  0.216 -0.050 -0.147 -0.170 -0.170
 0.510  1.363  0.217 -0.049 -0.146 -0.169 -0.169
 0.512  1.365  0.218 -0.047 -0.145 -0.168 -0.168
 0.514  1.366  0.219 -0.047 -0.144 -0.167 -0.167
 0.516  1.367  0.221 -0.046 -0.143 -0.166 -0.166
 0.518  1.367  0.222 -0.045 -0.142 -0.165 -0.165
 0.520  1.369  0.222 -0.044 -0.142 -0.164 -0.164
 0.522  1.370  0.223 -0.043 -0.141 -0.163 -0.163
 0.524  1.371  0.224 -0.042 -0.140 -0.162 -0.162
 0.526  1.372  0.225 -0.042 -0.139 -0.161 -0.161
 0.528  1.373  0.226 -0.041 -0.138 -0.160 -0.160
 0.530  1.374  0.227 -0.040 -0.138 -0.159 -0.159
 0.532  1.375  0.228 -0.040 -0.137 -0.158 -0.158
 0.534  1.376  0.230 -0.039 -0.136 -0.157 -0.157
 0.536  1.377  0.231 -0.039 -0.136 -0.156 -0.156
 0.538  1.378  0.231 -0.038 -0.135 -0.155 -0.155
 0.540  1.379  0.232 -0.037 -0.135 -0.154 -0.154
 0.542  1.380  0.233 -0.037 -0.134 -0.153 -0.153
 0.544  1.381  0.234 -0.037 -0.133 -0.152 -0.152
 0.546  1.382  0.235 -0.036 -0.133 -0.151 -0.151
 0.548  1.383  0.236 -0.035 -0.132 -0.151 -0.151
 0.550  1.383  0.237 -0.035 -0.132 -0.150 -0.150
 0.552  1.384  0.238 -0.035 -0.131 -0.149 -0.149
 0.554  1.385  0.239 -0.035 -0.131 -0.148 -0.148
 0.556  1.385  0.239 -0.034 -0.130 -0.147 -0.147
 0.558  1.386  0.240 -0.034 -0.129 -0.147 -0.147
 0.560  1.386  0.241 -0.034 -0.129 -0.146 -0.146
 0.562  1.387  0.242 -0.033 -0.128 -0.145 -0.145
 0.564  1.387  0.242 -0.033 -0.128 -0.145 -0.145
 0.566  1.388  0.243 -0.032 -0.127 -0.144 -0.144
 0.568  1.388  0.244 -0.032 -0.127 -0.143 -0.143
 0.570  1.389  0.244 -0.032 -0.126 -0.143 -0.143
 0.572  1.389  0.245 -0.032 -0.126 -0.142 -0.142
 0.574  1.389  0.246 -0.031 -0.125 -0.141 -0.141
 0.576  1.390  0.246 -0.031 -0.124 -0.141 -0.141
 0.578  1.390  0.247 -0.030 -0.124 -0.140 -0.140
 0.580  1.390  0.247 -0.030 -0.123 -0.140 -0.140
 0.582  1.390  0.248 -0.029 -0.123 -0.139 -0.139
 0.584  1.391  0.248 -0.029 -0.122 -0.139 -0.139
 0.586  1.391  0.249 -0.029 -0.121 -0.138 -0.138
 0.588  1.391  0.249 -0.029 -0.120 -0.137 -0.137
 0.590  1.391  0.250 -0.028 -0.120 -0.137 -0.137
 0.592  1.391  0.250 -0.028 -0.119 -0.136 -0.136
 0.594  1.392  0.250 -0.027 -0.119 -0.136 -0.136
 0.596  1.392  0.251 -0.027 -0.118 -0.135 -0.135
 0.598  1.392  0.251 -0.027 -0.118 -0.134 -0.134
 0.600  1.392  0.251 -0.027 -0.117 -0.134 -0.134
 0.602  1.392  0.252 -0.026 -0.117 -0.133 -0.133
 0.604  1.392  0.252 -0.026 -0.116 -0.133 -0.133
 0.606  1.392  0.252 -0.025 -0.115 -0.132 -0.132
 0.608  1.392  0.252 -0.024 -0.114 -0.131 -0.131
 0.610  1.392  0.253 -0.024 -0.114 -0.131 -0.131
 0.612  1.392  0.253 -0.024 -0.113 -0.130 -0.130
 0.614  1.392  0.253 -0.024 -0.113 -0.129 -0.129
 0.616  1.392  0.253 -0.023 -0.112 -0.129 -0.129
 0.618  1.392  0.253 -0.022 -0.112 -0.128 -0.128
 0.620  1.392  0.253 -0.022 -0.111 -0.128 -0.128
 0.622  1.392  0.253 -0.022 -0.110 -0.127 -0.127
 0.624  1.392  0.254 -0.021 -0.110 -0.126 -0.126
 0.626  1.391  0.254 -0.021 -0.109 -0.126 -0.126
 0.628  1.391  0.254 -0.020 -0.109 -0.125 -0.125
 0.630  1.391  0.253 -0.020 -0.108 -0.124 -0.124
 0.632  1.391  0.253 -0.019 -0.108 -0.124 -0.124
 0.634  1.391  0.253 -0.019 -0.107 -0.123 -0.123
 0.636  1.390  0.253 -0.019 -0.106 -0.122 -0.122
 0.638  1.390  0.253 -0.019 -0.106 -0.122 -0.122
 0.640  1.390  0.253 -0.019 -0.105 -0.121 -0.121
 0.642  1.390  0.253 -0.019 -0.105 -0.120 -0.120
 0.644  1.389  0.252 -0.019 -0.105 -0.120 -0.120
 0.646  1.389  0.252 -0.018 -0.104 -0.119 -0.119
 0.648  1.389  0.252 -0.018 -0.104 -0.118 -0.118
 0.650  1.388  0.252 -0.018 -0.104 -0.118 -0.118
 0.652  1.388  0.252 -0.018 -0.103 -0.117 -0.117
 0.654  1.388  0.252 -0.018 -0.103 -0.116 -0.116
 0.656  1.388  0.252 -0.018 -0.103 -0.116 -0.116
 0.658  1.387  0.252 -0.019 -0.102 -0.115 -0.115
 0.660  1.387  0.252 -0.019 -0.102 -0.114 -0.114
 0.662  1.387  0.252 -0.019 -0.101 -0.114 -0.114
 0.664  1.386  0.252 -0.019 -0.101 -0.113 -0.113
 0.666  1.386  0.252 -0.019 -0.101 -0.113 -0.113
 0.668  1.386  0.252 -0.019 -0.101 -0.112 -0.112
 0.670  1.385  0.252 -0.020 -0.100 -0.111 -0.111
 0.672  1.385  0.253 -0.020 -0.100 -0.111 -0.111
 0.674  1.385  0.253 -0.021 -0.100 -0.110 -0.110
 0.676  1.384  0.253 -0.021 -0.100 -0.110 -0.110
 0.678  1.384  0.254 -0.022 -0.100 -0.109 -0.109
 0.680  1.384  0.254 -0.022 -0.100 -0.109 -0.109
 0.682  1.384  0.255 -0.023 -0.099 -0.108 -0.108
 0.684  1.383  0.255 -0.023 -0.099 -0.108 -0.108
 0.686  1.383  0.256 -0.024 -0.099 -0.107 -0.107
 0.688  1.383  0.256 -0.024 -0.099 -0.107 -0.107
 0.690  1.382  0.257 -0.025 -0.099 -0.106 -0.106
 0.692  1.382  0.258 -0.026 -0.099 -0.106 -0.106
 0.694  1.382  0.258 -0.027 -0.098 -0.105 -0.105
 0.696  1.381  0.259 -0.027 -0.098 -0.105 -0.105
 0.698  1.381  0.260 -0.028 -0.097 -0.104 -0.104
 0.700  1.381  0.260 -0.029 -0.097 -0.104 -0.104
 0.702  1.380  0.261 -0.029 -0.097 -0.103 -0.103
 0.704  1.380  0.262 -0.030 -0.096 -0.103 -0.103
 0.706  1.380  0.263 -0.030 -0.096 -0.102 -0.102
 0.708  1.380  0.264 -0.031 -0.096 -0.102 -0.102
 0.710  1.379  0.265 -0.031 -0.095 -0.101 -0.101
 0.712  1.379  0.266 -0.031 -0.095 -0.101 -0.101
 0.714  1.379  0.267 -0.031 -0.094 -0.101 -0.101
 0.716  1.378  0.268 -0.031 -0.094 -0.100 -0.100
 0.718  1.378  0.269 -0.031 -0.093 -0.100 -0.100
 0.720  1.378  0.270 -0.030 -0.092 -0.099 -0.099
 0.722  1.378  0.272 -0.029 -0.091 -0.099 -0.099
 0.724  1.377  0.273 -0.029 -0.091 -0.098 -0.098
 0.726  1.377  0.275 -0.029 -0.090 -0.098 -0.098
 0.728  1.377  0.276 -0.027 -0.089 -0.097 -0.097
 0.730  1.377  0.278 -0.027 -0.088 -0.096 -0.096
 0.732  1.376  0.280 -0.026 -0.087 -0.095 -0.095
 0.734  1.376  0.282 -0.024 -0.086 -0.094 -0.094
 0.736  1.376  0.284 -0.024 -0.085 -0.093 -0.093
 0.738  1.376  0.286 -0.022 -0.084 -0.091 -0.091
 0.740  1.375  0.288 -0.021 -0.083 -0.090 -0.090
 0.742  1.375  0.290 -0.019 -0.082 -0.088 -0.088
 0.744  1.375  0.292 -0.018 -0.081 -0.086 -0.086
 0.746  1.375  0.295 -0.016 -0.080 -0.084 -0.084
 0.748  1.375  0.297 -0.014 -0.078 -0.083 -0.083
 0.750  1.375  0.299 -0.012 -0.077 -0.081 -0.081
 0.752  1.374  0.301 -0.010 -0.076 -0.079 -0.079
 0.754  1.374  0.304 -0.008 -0.075 -0.077 -0.077
 0.756  1.374  0.306 -0.005 -0.073 -0.075 -0.075
 0.758  1.374  0.309 -0.003 -0.072 -0.073 -0.073
 0.760  1.374  0.312 -0.000 -0.071 -0.070 -0.070
 0.762  1.374  0.314  0.003 -0.069 -0.068 -0.068
 0.764  1.374  0.317  0.005 -0.068 -0.066 -0.066
 0.766  1.374  0.320  0.008 -0.067 -0.063 -0.063
 0.768  1.374  0.324  0.011 -0.065 -0.060 -0.060
 0.770  1.374  0.327  0.014 -0.063 -0.057 -0.057
 0.772  1.374  0.331  0.016 -0.062 -0.054 -0.054
 0.774  1.374  0.334  0.019 -0.060 -0.051 -0.051
 0.776  1.373  0.337  0.022 -0.058 -0.048 -0.048
 0.778  1.373  0.341  0.025 -0.057 -0.044 -0.044
 0.780  1.373  0.345  0.028 -0.055 -0.041 -0.041
 0.782  1.373  0.349  0.031 -0.053 -0.037 -0.037
 0.784  1.373  0.353  0.034 -0.051 -0.034 -0.034
 0.786  1.373  0.357  0.036 -0.049 -0.030 -0.030
 0.788  1.373  0.360  0.039 -0.048 -0.027 -0.027
 0.790  1.374  0.364  0.042 -0.046 -0.023 -0.023
 0.792  1.374  0.367  0.044 -0.044 -0.020 -0.020
 0.794  1.375  0.370  0.047 -0.042 -0.017 -0.017
 0.796  1.375  0.372  0.050 -0.040 -0.013 -0.013
 0.798  1.376  0.375  0.052 -0.039 -0.010 -0.010
 0.800  1.377  0.377  0.055 -0.036 -0.008 -0.008
 0.802  1.378  0.379  0.058 -0.035 -0.005 -0.005
 0.804  1.379  0.381  0.060 -0.032 -0.003 -0.003
 0.806  1.380  0.382  0.062 -0.031 -0.000 -0.000
 0.808  1.382  0.383  0.065 -0.029  0.002  0.002
