# IsPeriodic    : True
# Period        : 0.576161 days
# Normalization : <g_mag>=0
# 
# Phase u_mag  g_mag  r_mag  i_mag  z_mag  y_mag
 0.000  0.344 -0.842 -0.723 -0.658 -0.545 -0.545
 0.002  0.344 -0.843 -0.723 -0.658 -0.545 -0.545
 0.004  0.345 -0.842 -0.722 -0.657 -0.545 -0.545
 0.006  0.346 -0.840 -0.721 -0.656 -0.544 -0.544
 0.008  0.347 -0.839 -0.720 -0.653 -0.543 -0.543
 0.010  0.350 -0.837 -0.719 -0.650 -0.542 -0.542
 0.012  0.352 -0.834 -0.717 -0.647 -0.541 -0.541
 0.014  0.355 -0.831 -0.715 -0.642 -0.540 -0.540
 0.016  0.358 -0.829 -0.712 -0.638 -0.538 -0.538
 0.018  0.361 -0.825 -0.710 -0.633 -0.537 -0.537
 0.020  0.365 -0.821 -0.707 -0.628 -0.535 -0.535
 0.022  0.368 -0.817 -0.705 -0.623 -0.534 -0.534
 0.024  0.373 -0.813 -0.702 -0.617 -0.532 -0.532
 0.026  0.377 -0.809 -0.700 -0.612 -0.530 -0.530
 0.028  0.381 -0.805 -0.696 -0.607 -0.529 -0.529
 0.030  0.386 -0.800 -0.693 -0.602 -0.527 -0.527
 0.032  0.391 -0.796 -0.690 -0.597 -0.525 -0.525
 0.034  0.396 -0.791 -0.687 -0.593 -0.523 -0.523
 0.036  0.400 -0.787 -0.684 -0.588 -0.522 -0.522
 0.038  0.407 -0.781 -0.680 -0.583 -0.519 -0.519
 0.040  0.412 -0.776 -0.676 -0.579 -0.517 -0.517
 0.042  0.418 -0.771 -0.672 -0.575 -0.515 -0.515
 0.044  0.424 -0.766 -0.668 -0.570 -0.513 -0.513
 0.046  0.430 -0.759 -0.665 -0.566 -0.511 -0.511
 0.048  0.436 -0.754 -0.661 -0.561 -0.508 -0.508
 0.050  0.444 -0.747 -0.656 -0.557 -0.506 -0.506
 0.052  0.451 -0.741 -0.651 -0.553 -0.503 -0.503
 0.054  0.459 -0.734 -0.646 -0.549 -0.501 -0.501
 0.056  0.466 -0.728 -0.642 -0.545 -0.498 -0.498
 0.058  0.473 -0.720 -0.637 -0.541 -0.495 -0.495
 0.060  0.482 -0.713 -0.631 -0.537 -0.492 -0.492
 0.062  0.490 -0.705 -0.627 -0.533 -0.489 -0.489
 0.064  0.498 -0.697 -0.621 -0.529 -0.486 -0.486
 0.066  0.507 -0.689 -0.615 -0.525 -0.483 -0.483
 0.068  0.517 -0.682 -0.609 -0.522 -0.479 -0.479
 0.070  0.525 -0.674 -0.604 -0.518 -0.477 -0.477
 0.072  0.535 -0.666 -0.598 -0.515 -0.473 -0.473
 0.074  0.544 -0.658 -0.592 -0.511 -0.470 -0.470
 0.076  0.554 -0.649 -0.587 -0.508 -0.467 -0.467
 0.078  0.563 -0.641 -0.581 -0.505 -0.464 -0.464
 0.080  0.572 -0.633 -0.574 -0.502 -0.460 -0.460
 0.082  0.582 -0.624 -0.569 -0.498 -0.457 -0.457
 0.084  0.591 -0.616 -0.563 -0.495 -0.454 -0.454
 0.086  0.600 -0.608 -0.557 -0.492 -0.451 -0.451
 0.088  0.608 -0.600 -0.552 -0.489 -0.448 -0.448
 0.090  0.617 -0.591 -0.547 -0.486 -0.445 -0.445
 0.092  0.626 -0.583 -0.541 -0.483 -0.441 -0.441
 0.094  0.634 -0.575 -0.536 -0.480 -0.439 -0.439
 0.096  0.642 -0.569 -0.531 -0.477 -0.436 -0.436
 0.098  0.650 -0.561 -0.526 -0.474 -0.433 -0.433
 0.100  0.658 -0.553 -0.521 -0.471 -0.431 -0.431
 0.102  0.665 -0.545 -0.516 -0.468 -0.428 -0.428
 0.104  0.673 -0.538 -0.512 -0.465 -0.425 -0.425
 0.106  0.680 -0.531 -0.507 -0.462 -0.423 -0.423
 0.108  0.688 -0.524 -0.502 -0.460 -0.420 -0.420
 0.110  0.694 -0.516 -0.497 -0.457 -0.418 -0.418
 0.112  0.701 -0.510 -0.493 -0.454 -0.415 -0.415
 0.114  0.707 -0.503 -0.488 -0.451 -0.412 -0.412
 0.116  0.715 -0.495 -0.484 -0.448 -0.410 -0.410
 0.118  0.721 -0.488 -0.479 -0.445 -0.408 -0.408
 0.120  0.727 -0.482 -0.476 -0.443 -0.406 -0.406
 0.122  0.733 -0.475 -0.472 -0.439 -0.404 -0.404
 0.124  0.740 -0.469 -0.467 -0.437 -0.401 -0.401
 0.126  0.746 -0.462 -0.463 -0.434 -0.399 -0.399
 0.128  0.751 -0.456 -0.459 -0.431 -0.397 -0.397
 0.130  0.757 -0.450 -0.456 -0.428 -0.395 -0.395
 0.132  0.762 -0.444 -0.453 -0.425 -0.393 -0.393
 0.134  0.767 -0.439 -0.449 -0.423 -0.391 -0.391
 0.136  0.772 -0.432 -0.445 -0.420 -0.389 -0.389
 0.138  0.777 -0.427 -0.442 -0.417 -0.387 -0.387
 0.140  0.782 -0.420 -0.439 -0.414 -0.386 -0.386
 0.142  0.787 -0.415 -0.436 -0.412 -0.384 -0.384
 0.144  0.790 -0.410 -0.433 -0.409 -0.382 -0.382
 0.146  0.795 -0.403 -0.429 -0.406 -0.380 -0.380
 0.148  0.800 -0.398 -0.426 -0.404 -0.378 -0.378
 0.150  0.804 -0.393 -0.423 -0.401 -0.377 -0.377
 0.152  0.809 -0.387 -0.420 -0.399 -0.375 -0.375
 0.154  0.813 -0.382 -0.417 -0.395 -0.374 -0.374
 0.156  0.818 -0.377 -0.414 -0.393 -0.372 -0.372
 0.158  0.821 -0.370 -0.411 -0.391 -0.370 -0.370
 0.160  0.826 -0.365 -0.407 -0.387 -0.368 -0.368
 0.162  0.830 -0.360 -0.404 -0.385 -0.367 -0.367
 0.164  0.835 -0.355 -0.401 -0.383 -0.365 -0.365
 0.166  0.839 -0.349 -0.399 -0.380 -0.364 -0.364
 0.168  0.843 -0.344 -0.395 -0.377 -0.361 -0.361
 0.170  0.848 -0.339 -0.392 -0.375 -0.359 -0.359
 0.172  0.852 -0.334 -0.389 -0.373 -0.358 -0.358
 0.174  0.857 -0.328 -0.386 -0.369 -0.356 -0.356
 0.176  0.862 -0.323 -0.383 -0.367 -0.354 -0.354
 0.178  0.866 -0.318 -0.380 -0.365 -0.353 -0.353
 0.180  0.871 -0.313 -0.377 -0.362 -0.351 -0.351
 0.182  0.876 -0.307 -0.373 -0.360 -0.349 -0.349
 0.184  0.879 -0.302 -0.370 -0.358 -0.347 -0.347
 0.186  0.884 -0.297 -0.367 -0.355 -0.345 -0.345
 0.188  0.889 -0.292 -0.364 -0.353 -0.343 -0.343
 0.190  0.894 -0.286 -0.361 -0.351 -0.341 -0.341
 0.192  0.898 -0.281 -0.358 -0.348 -0.339 -0.339
 0.194  0.903 -0.276 -0.354 -0.346 -0.337 -0.337
 0.196  0.908 -0.270 -0.351 -0.343 -0.335 -0.335
 0.198  0.913 -0.265 -0.347 -0.341 -0.334 -0.334
 0.200  0.917 -0.260 -0.345 -0.339 -0.332 -0.332
 0.202  0.921 -0.255 -0.342 -0.336 -0.330 -0.330
 0.204  0.926 -0.249 -0.338 -0.335 -0.328 -0.328
 0.206  0.931 -0.244 -0.335 -0.332 -0.326 -0.326
 0.208  0.936 -0.239 -0.332 -0.330 -0.323 -0.323
 0.210  0.940 -0.234 -0.328 -0.328 -0.321 -0.321
 0.212  0.945 -0.228 -0.326 -0.326 -0.319 -0.319
 0.214  0.950 -0.223 -0.322 -0.324 -0.317 -0.317
 0.216  0.955 -0.218 -0.319 -0.321 -0.315 -0.315
 0.218  0.960 -0.214 -0.316 -0.320 -0.313 -0.313
 0.220  0.965 -0.209 -0.312 -0.318 -0.311 -0.311
 0.222  0.970 -0.204 -0.309 -0.315 -0.309 -0.309
 0.224  0.973 -0.198 -0.306 -0.314 -0.307 -0.307
 0.226  0.978 -0.193 -0.303 -0.311 -0.305 -0.305
 0.228  0.983 -0.188 -0.300 -0.310 -0.303 -0.303
 0.230  0.988 -0.184 -0.297 -0.307 -0.301 -0.301
 0.232  0.992 -0.179 -0.293 -0.306 -0.299 -0.299
 0.234  0.997 -0.173 -0.290 -0.303 -0.297 -0.297
 0.236  1.001 -0.169 -0.288 -0.302 -0.295 -0.295
 0.238  1.006 -0.164 -0.285 -0.299 -0.293 -0.293
 0.240  1.011 -0.160 -0.282 -0.298 -0.292 -0.292
 0.242  1.014 -0.155 -0.278 -0.295 -0.290 -0.290
 0.244  1.019 -0.151 -0.275 -0.294 -0.288 -0.288
 0.246  1.023 -0.146 -0.272 -0.292 -0.286 -0.286
 0.248  1.027 -0.142 -0.270 -0.290 -0.283 -0.283
 0.250  1.032 -0.137 -0.267 -0.288 -0.282 -0.282
 0.252  1.035 -0.133 -0.264 -0.286 -0.280 -0.280
 0.254  1.040 -0.129 -0.261 -0.284 -0.278 -0.278
 0.256  1.044 -0.123 -0.258 -0.282 -0.276 -0.276
 0.258  1.048 -0.119 -0.255 -0.281 -0.275 -0.275
 0.260  1.051 -0.116 -0.252 -0.278 -0.273 -0.273
 0.262  1.056 -0.112 -0.250 -0.277 -0.271 -0.271
 0.264  1.060 -0.108 -0.247 -0.274 -0.269 -0.269
 0.266  1.064 -0.104 -0.244 -0.273 -0.267 -0.267
 0.268  1.067 -0.100 -0.242 -0.270 -0.265 -0.265
 0.270  1.071 -0.096 -0.239 -0.269 -0.264 -0.264
 0.272  1.075 -0.092 -0.236 -0.267 -0.262 -0.262
 0.274  1.079 -0.088 -0.233 -0.265 -0.260 -0.260
 0.276  1.082 -0.084 -0.232 -0.263 -0.258 -0.258
 0.278  1.086 -0.080 -0.229 -0.261 -0.256 -0.256
 0.280  1.090 -0.076 -0.226 -0.259 -0.255 -0.255
 0.282  1.093 -0.072 -0.223 -0.257 -0.253 -0.253
 0.284  1.097 -0.068 -0.221 -0.255 -0.252 -0.252
 0.286  1.101 -0.066 -0.218 -0.254 -0.250 -0.250
 0.288  1.105 -0.062 -0.215 -0.251 -0.248 -0.248
 0.290  1.108 -0.058 -0.213 -0.250 -0.246 -0.246
 0.292  1.111 -0.055 -0.211 -0.248 -0.245 -0.245
 0.294  1.115 -0.051 -0.209 -0.246 -0.243 -0.243
 0.296  1.118 -0.047 -0.206 -0.244 -0.241 -0.241
 0.298  1.122 -0.043 -0.203 -0.242 -0.240 -0.240
 0.300  1.126 -0.041 -0.201 -0.240 -0.238 -0.238
 0.302  1.128 -0.037 -0.198 -0.238 -0.237 -0.237
 0.304  1.132 -0.033 -0.196 -0.237 -0.235 -0.235
 0.306  1.136 -0.030 -0.194 -0.234 -0.233 -0.233
 0.308  1.139 -0.026 -0.191 -0.233 -0.232 -0.232
 0.310  1.143 -0.022 -0.189 -0.231 -0.230 -0.230
 0.312  1.145 -0.018 -0.186 -0.229 -0.229 -0.229
 0.314  1.149 -0.014 -0.184 -0.227 -0.226 -0.226
 0.316  1.153 -0.012 -0.181 -0.225 -0.225 -0.225
 0.318  1.157 -0.008 -0.178 -0.223 -0.224 -0.224
 0.320  1.160 -0.004 -0.176 -0.222 -0.222 -0.222
 0.322  1.163  0.000 -0.174 -0.219 -0.220 -0.220
 0.324  1.166  0.004 -0.172 -0.218 -0.219 -0.219
 0.326  1.170  0.008 -0.169 -0.215 -0.217 -0.217
 0.328  1.174  0.012 -0.166 -0.214 -0.216 -0.216
 0.330  1.176  0.016 -0.164 -0.211 -0.214 -0.214
 0.332  1.180  0.020 -0.161 -0.210 -0.212 -0.212
 0.334  1.184  0.024 -0.159 -0.207 -0.211 -0.211
 0.336  1.188  0.028 -0.157 -0.206 -0.210 -0.210
 0.338  1.190  0.032 -0.154 -0.203 -0.208 -0.208
 0.340  1.194  0.035 -0.152 -0.202 -0.206 -0.206
 0.342  1.197  0.039 -0.149 -0.200 -0.205 -0.205
 0.344  1.201  0.043 -0.147 -0.198 -0.203 -0.203
 0.346  1.205  0.047 -0.144 -0.196 -0.202 -0.202
 0.348  1.207  0.051 -0.141 -0.194 -0.200 -0.200
 0.350  1.211  0.055 -0.139 -0.192 -0.199 -0.199
 0.352  1.215  0.059 -0.137 -0.190 -0.197 -0.197
 0.354  1.218  0.063 -0.135 -0.189 -0.196 -0.196
 0.356  1.221  0.067 -0.132 -0.186 -0.194 -0.194
 0.358  1.225  0.071 -0.129 -0.185 -0.193 -0.193
 0.360  1.228  0.076 -0.127 -0.182 -0.191 -0.191
 0.362  1.231  0.080 -0.124 -0.181 -0.190 -0.190
 0.364  1.235  0.084 -0.122 -0.178 -0.189 -0.189
 0.366  1.238  0.088 -0.119 -0.177 -0.186 -0.186
 0.368  1.242  0.092 -0.117 -0.174 -0.185 -0.185
 0.370  1.244  0.096 -0.115 -0.173 -0.184 -0.184
 0.372  1.248  0.100 -0.112 -0.170 -0.182 -0.182
 0.374  1.252  0.104 -0.110 -0.169 -0.180 -0.180
 0.376  1.254  0.108 -0.107 -0.167 -0.179 -0.179
 0.378  1.258  0.112 -0.104 -0.164 -0.178 -0.178
 0.380  1.262  0.116 -0.102 -0.163 -0.176 -0.176
 0.382  1.264  0.120 -0.100 -0.160 -0.174 -0.174
 0.384  1.268  0.123 -0.098 -0.159 -0.173 -0.173
 0.386  1.270  0.126 -0.095 -0.157 -0.171 -0.171
 0.388  1.274  0.130 -0.093 -0.155 -0.170 -0.170
 0.390  1.278  0.134 -0.090 -0.153 -0.167 -0.167
 0.392  1.280  0.138 -0.087 -0.151 -0.166 -0.166
 0.394  1.284  0.142 -0.085 -0.149 -0.165 -0.165
 0.396  1.287  0.144 -0.082 -0.147 -0.163 -0.163
 0.398  1.290  0.148 -0.081 -0.145 -0.161 -0.161
 0.400  1.293  0.152 -0.078 -0.143 -0.159 -0.159
 0.402  1.296  0.155 -0.076 -0.141 -0.158 -0.158
 0.404  1.299  0.159 -0.073 -0.140 -0.156 -0.156
 0.406  1.303  0.162 -0.071 -0.137 -0.155 -0.155
 0.408  1.305  0.166 -0.068 -0.136 -0.153 -0.153
 0.410  1.309  0.168 -0.066 -0.134 -0.151 -0.151
 0.412  1.311  0.172 -0.063 -0.132 -0.149 -0.149
 0.414  1.315  0.175 -0.062 -0.130 -0.148 -0.148
 0.416  1.317  0.179 -0.059 -0.129 -0.146 -0.146
 0.418  1.321  0.181 -0.057 -0.126 -0.144 -0.144
 0.420  1.324  0.184 -0.054 -0.125 -0.142 -0.142
 0.422  1.327  0.188 -0.052 -0.123 -0.140 -0.140
 0.424  1.330  0.190 -0.049 -0.121 -0.139 -0.139
 0.426  1.332  0.193 -0.047 -0.119 -0.137 -0.137
 0.428  1.336  0.196 -0.044 -0.118 -0.135 -0.135
 0.430  1.338  0.200 -0.043 -0.116 -0.134 -0.134
 0.432  1.341  0.202 -0.040 -0.114 -0.132 -0.132
 0.434  1.345  0.205 -0.038 -0.112 -0.130 -0.130
 0.436  1.347  0.208 -0.035 -0.111 -0.128 -0.128
 0.438  1.350  0.210 -0.033 -0.109 -0.126 -0.126
 0.440  1.353  0.213 -0.030 -0.107 -0.125 -0.125
 0.442  1.356  0.215 -0.028 -0.105 -0.123 -0.123
 0.444  1.358  0.218 -0.026 -0.104 -0.121 -0.121
 0.446  1.361  0.221 -0.024 -0.102 -0.119 -0.119
 0.448  1.363  0.223 -0.022 -0.100 -0.117 -0.117
 0.450  1.367  0.226 -0.019 -0.098 -0.116 -0.116
 0.452  1.369  0.229 -0.017 -0.097 -0.115 -0.115
 0.454  1.372  0.231 -0.015 -0.095 -0.113 -0.113
 0.456  1.374  0.234 -0.013 -0.093 -0.111 -0.111
 0.458  1.377  0.236 -0.010 -0.092 -0.109 -0.109
 0.460  1.379  0.239 -0.008 -0.090 -0.108 -0.108
 0.462  1.382  0.242 -0.007 -0.089 -0.106 -0.106
 0.464  1.384  0.243 -0.005 -0.086 -0.105 -0.105
 0.466  1.387  0.246 -0.003 -0.085 -0.103 -0.103
 0.468  1.389  0.248  0.000 -0.083 -0.102 -0.102
 0.470  1.392  0.250  0.002 -0.082 -0.100 -0.100
 0.472  1.394  0.252  0.004 -0.080 -0.099 -0.099
 0.474  1.397  0.255  0.006 -0.078 -0.098 -0.098
 0.476  1.398  0.256  0.008 -0.077 -0.096 -0.096
 0.478  1.400  0.259  0.010 -0.075 -0.094 -0.094
 0.480  1.403  0.261  0.012 -0.074 -0.093 -0.093
 0.482  1.405  0.263  0.013 -0.071 -0.092 -0.092
 0.484  1.407  0.265  0.015 -0.070 -0.090 -0.090
 0.486  1.409  0.267  0.017 -0.068 -0.089 -0.089
 0.488  1.412  0.269  0.019 -0.067 -0.087 -0.087
 0.490  1.414  0.271  0.021 -0.065 -0.086 -0.086
 0.492  1.415  0.273  0.023 -0.064 -0.085 -0.085
 0.494  1.418  0.275  0.025 -0.062 -0.084 -0.084
 0.496  1.420  0.276  0.027 -0.060 -0.083 -0.083
 0.498  1.421  0.278  0.029 -0.059 -0.081 -0.081
 0.500  1.424  0.280  0.030 -0.057 -0.080 -0.080
 0.502  1.425  0.281  0.031 -0.056 -0.079 -0.079
 0.504  1.428  0.284  0.033 -0.054 -0.078 -0.078
 0.506  1.429  0.285  0.035 -0.053 -0.077 -0.077
 0.508  1.431  0.286  0.036 -0.051 -0.075 -0.075
 0.510  1.433  0.288  0.038 -0.049 -0.074 -0.074
 0.512  1.434  0.289  0.040 -0.048 -0.073 -0.073
 0.514  1.436  0.292  0.041 -0.046 -0.072 -0.072
 0.516  1.437  0.293  0.043 -0.045 -0.071 -0.071
 0.518  1.439  0.294  0.045 -0.043 -0.070 -0.070
 0.520  1.440  0.296  0.046 -0.041 -0.068 -0.068
 0.522  1.441  0.297  0.048 -0.041 -0.067 -0.067
 0.524  1.442  0.298  0.049 -0.039 -0.066 -0.066
 0.526  1.444  0.299  0.050 -0.038 -0.065 -0.065
 0.528  1.445  0.301  0.051 -0.036 -0.064 -0.064
 0.530  1.446  0.301  0.052 -0.035 -0.063 -0.063
 0.532  1.447  0.302  0.054 -0.034 -0.062 -0.062
 0.534  1.449  0.303  0.055 -0.033 -0.061 -0.061
 0.536  1.450  0.305  0.056 -0.031 -0.060 -0.060
 0.538  1.451  0.306  0.057 -0.030 -0.059 -0.059
 0.540  1.451  0.306  0.059 -0.030 -0.058 -0.058
 0.542  1.452  0.307  0.060 -0.028 -0.057 -0.057
 0.544  1.454  0.309  0.061 -0.027 -0.056 -0.056
 0.546  1.454  0.309  0.062 -0.027 -0.055 -0.055
 0.548  1.455  0.310  0.063 -0.026 -0.054 -0.054
 0.550  1.455  0.310  0.064 -0.025 -0.053 -0.053
 0.552  1.456  0.311  0.065 -0.024 -0.052 -0.052
 0.554  1.456  0.311  0.066 -0.023 -0.051 -0.051
 0.556  1.457  0.313  0.067 -0.023 -0.050 -0.050
 0.558  1.457  0.313  0.068 -0.022 -0.049 -0.049
 0.560  1.457  0.314  0.069 -0.021 -0.048 -0.048
 0.562  1.459  0.314  0.069 -0.021 -0.047 -0.047
 0.564  1.459  0.314  0.069 -0.020 -0.047 -0.047
 0.566  1.459  0.315  0.070 -0.019 -0.045 -0.045
 0.568  1.459  0.315  0.071 -0.019 -0.045 -0.045
 0.570  1.459  0.315  0.072 -0.019 -0.044 -0.044
 0.572  1.459  0.315  0.072 -0.019 -0.043 -0.043
 0.574  1.459  0.315  0.073 -0.019 -0.042 -0.042
 0.576  1.459  0.317  0.074 -0.018 -0.041 -0.041
 0.578  1.459  0.317  0.074 -0.018 -0.041 -0.041
 0.580  1.459  0.317  0.075 -0.018 -0.040 -0.040
 0.582  1.459  0.317  0.075 -0.018 -0.039 -0.039
 0.584  1.459  0.317  0.076 -0.018 -0.038 -0.038
 0.586  1.459  0.317  0.076 -0.018 -0.037 -0.037
 0.588  1.459  0.317  0.077 -0.018 -0.037 -0.037
 0.590  1.459  0.318  0.077 -0.018 -0.035 -0.035
 0.592  1.459  0.318  0.078 -0.018 -0.035 -0.035
 0.594  1.459  0.318  0.078 -0.018 -0.034 -0.034
 0.596  1.459  0.318  0.078 -0.018 -0.033 -0.033
 0.598  1.459  0.318  0.079 -0.017 -0.033 -0.033
 0.600  1.459  0.318  0.079 -0.017 -0.032 -0.032
 0.602  1.459  0.319  0.079 -0.017 -0.030 -0.030
 0.604  1.459  0.319  0.080 -0.017 -0.030 -0.030
 0.606  1.459  0.319  0.080 -0.017 -0.029 -0.029
 0.608  1.459  0.319  0.080 -0.017 -0.028 -0.028
 0.610  1.459  0.320  0.080 -0.017 -0.028 -0.028
 0.612  1.459  0.320  0.081 -0.016 -0.027 -0.027
 0.614  1.457  0.320  0.081 -0.016 -0.026 -0.026
 0.616  1.457  0.320  0.081 -0.016 -0.025 -0.025
 0.618  1.457  0.322  0.081 -0.016 -0.024 -0.024
 0.620  1.457  0.322  0.081 -0.016 -0.024 -0.024
 0.622  1.457  0.322  0.081 -0.016 -0.023 -0.023
 0.624  1.457  0.323  0.081 -0.015 -0.022 -0.022
 0.626  1.457  0.323  0.082 -0.015 -0.022 -0.022
 0.628  1.457  0.323  0.082 -0.015 -0.020 -0.020
 0.630  1.457  0.324  0.082 -0.014 -0.020 -0.020
 0.632  1.457  0.324  0.082 -0.014 -0.019 -0.019
 0.634  1.457  0.324  0.082 -0.013 -0.018 -0.018
 0.636  1.457  0.326  0.081 -0.013 -0.018 -0.018
 0.638  1.457  0.326  0.081 -0.012 -0.017 -0.017
 0.640  1.457  0.326  0.081 -0.012 -0.016 -0.016
 0.642  1.457  0.327  0.081 -0.012 -0.016 -0.016
 0.644  1.457  0.327  0.081 -0.011 -0.015 -0.015
 0.646  1.457  0.327  0.081 -0.011 -0.014 -0.014
 0.648  1.456  0.328  0.081 -0.010 -0.014 -0.014
 0.650  1.456  0.328  0.081 -0.009 -0.012 -0.012
 0.652  1.456  0.328  0.080 -0.008 -0.012 -0.012
 0.654  1.456  0.330  0.080 -0.008 -0.011 -0.011
 0.656  1.456  0.330  0.080 -0.008 -0.011 -0.011
 0.658  1.456  0.330  0.080 -0.007 -0.010 -0.010
 0.660  1.456  0.330  0.080 -0.006 -0.009 -0.009
 0.662  1.456  0.330  0.079 -0.006 -0.009 -0.009
 0.664  1.455  0.331  0.079 -0.005 -0.008 -0.008
 0.666  1.455  0.331  0.079 -0.005 -0.007 -0.007
 0.668  1.455  0.331  0.079 -0.005 -0.007 -0.007
 0.670  1.455  0.331  0.078 -0.004 -0.006 -0.006
 0.672  1.455  0.331  0.078 -0.003 -0.005 -0.005
 0.674  1.454  0.330  0.078 -0.003 -0.005 -0.005
 0.676  1.454  0.330  0.077 -0.003 -0.005 -0.005
 0.678  1.454  0.330  0.077 -0.002 -0.004 -0.004
 0.680  1.454  0.330  0.077 -0.002 -0.003 -0.003
 0.682  1.452  0.330  0.076 -0.002 -0.003 -0.003
 0.684  1.452  0.328  0.076 -0.002 -0.003 -0.003
 0.686  1.452  0.328  0.076 -0.001 -0.002 -0.002
 0.688  1.452  0.327  0.075 -0.001 -0.002 -0.002
 0.690  1.451  0.327  0.075 -0.001 -0.001 -0.001
 0.692  1.451  0.327  0.075 -0.001 -0.001 -0.001
 0.694  1.451  0.326  0.074 -0.001 -0.001 -0.001
 0.696  1.450  0.326  0.074 -0.001 -0.001 -0.001
 0.698  1.450  0.324  0.073 -0.001  0.000  0.000
 0.700  1.449  0.323  0.073 -0.001  0.001  0.001
 0.702  1.449  0.323  0.073 -0.001  0.001  0.001
 0.704  1.449  0.322  0.072 -0.002  0.001  0.001
 0.706  1.447  0.320  0.072 -0.002  0.001  0.001
 0.708  1.447  0.320  0.071 -0.002  0.001  0.001
 0.710  1.446  0.319  0.071 -0.003  0.002  0.002
 0.712  1.446  0.318  0.070 -0.003  0.002  0.002
 0.714  1.445  0.317  0.070 -0.004  0.003  0.003
 0.716  1.445  0.315  0.069 -0.005  0.003  0.003
 0.718  1.445  0.314  0.069 -0.005  0.003  0.003
 0.720  1.444  0.313  0.069 -0.005  0.003  0.003
 0.722  1.444  0.311  0.069 -0.006  0.004  0.004
 0.724  1.442  0.311  0.069 -0.007  0.004  0.004
 0.726  1.442  0.310  0.069 -0.008  0.005  0.005
 0.728  1.442  0.309  0.069 -0.008  0.005  0.005
 0.730  1.442  0.309  0.069 -0.008  0.006  0.006
 0.732  1.442  0.309  0.069 -0.008  0.007  0.007
 0.734  1.442  0.309  0.069 -0.009  0.008  0.008
 0.736  1.442  0.309  0.069 -0.009  0.009  0.009
 0.738  1.442  0.309  0.069 -0.009  0.010  0.010
 0.740  1.442  0.309  0.069 -0.010  0.011  0.011
 0.742  1.442  0.309  0.070 -0.009  0.012  0.012
 0.744  1.442  0.310  0.071 -0.009  0.014  0.014
 0.746  1.442  0.310  0.071 -0.008  0.016  0.016
 0.748  1.444  0.311  0.072 -0.008  0.017  0.017
 0.750  1.444  0.313  0.073 -0.008  0.018  0.018
 0.752  1.444  0.314  0.074 -0.006  0.020  0.020
 0.754  1.445  0.315  0.075 -0.005  0.022  0.022
 0.756  1.445  0.317  0.076 -0.004  0.024  0.024
 0.758  1.446  0.318  0.078 -0.001  0.026  0.026
 0.760  1.446  0.319  0.079  0.000  0.028  0.028
 0.762  1.447  0.322  0.080  0.003  0.030  0.030
 0.764  1.449  0.323  0.082  0.005  0.032  0.032
 0.766  1.450  0.326  0.083  0.007  0.034  0.034
 0.768  1.450  0.328  0.085  0.010  0.037  0.037
 0.770  1.451  0.331  0.087  0.012  0.039  0.039
 0.772  1.452  0.334  0.088  0.015  0.041  0.041
 0.774  1.454  0.336  0.090  0.018  0.044  0.044
 0.776  1.455  0.339  0.092  0.021  0.047  0.047
 0.778  1.456  0.343  0.094  0.025  0.050  0.050
 0.780  1.457  0.345  0.096  0.028  0.053  0.053
 0.782  1.459  0.349  0.098  0.032  0.056  0.056
 0.784  1.461  0.353  0.101  0.036  0.059  0.059
 0.786  1.462  0.357  0.103  0.040  0.062  0.062
 0.788  1.463  0.361  0.106  0.045  0.065  0.065
 0.790  1.466  0.364  0.107  0.049  0.068  0.068
 0.792  1.467  0.368  0.110  0.054  0.071  0.071
 0.794  1.468  0.372  0.112  0.059  0.074  0.074
 0.796  1.471  0.376  0.115  0.065  0.077  0.077
 0.798  1.473  0.380  0.118  0.069  0.079  0.079
 0.800  1.475  0.384  0.121  0.075  0.083  0.083
 0.802  1.477  0.387  0.123  0.080  0.085  0.085
 0.804  1.480  0.391  0.125  0.086  0.088  0.088
 0.806  1.482  0.394  0.128  0.091  0.091  0.091
 0.808  1.485  0.398  0.131  0.095  0.093  0.093
