# IsPeriodic    : True
# Period        : 0.577773 days
# Normalization : <g_mag>=0
# 
# Phase u_mag  g_mag  r_mag  i_mag  z_mag  y_mag
 0.000  0.601 -0.554 -0.543 -0.507 -0.484 -0.484
 0.002  0.601 -0.554 -0.543 -0.507 -0.484 -0.484
 0.004  0.601 -0.553 -0.543 -0.506 -0.483 -0.483
 0.006  0.602 -0.552 -0.542 -0.506 -0.482 -0.482
 0.008  0.603 -0.550 -0.542 -0.505 -0.481 -0.481
 0.010  0.604 -0.548 -0.541 -0.505 -0.480 -0.480
 0.012  0.605 -0.545 -0.541 -0.505 -0.479 -0.479
 0.014  0.606 -0.542 -0.539 -0.504 -0.477 -0.477
 0.016  0.608 -0.538 -0.539 -0.503 -0.475 -0.475
 0.018  0.610 -0.535 -0.538 -0.503 -0.474 -0.474
 0.020  0.611 -0.530 -0.536 -0.502 -0.472 -0.472
 0.022  0.614 -0.527 -0.535 -0.501 -0.470 -0.470
 0.024  0.616 -0.522 -0.533 -0.500 -0.468 -0.468
 0.026  0.620 -0.517 -0.532 -0.499 -0.465 -0.465
 0.028  0.622 -0.513 -0.530 -0.498 -0.464 -0.464
 0.030  0.626 -0.508 -0.529 -0.497 -0.462 -0.462
 0.032  0.630 -0.504 -0.527 -0.495 -0.460 -0.460
 0.034  0.633 -0.499 -0.526 -0.494 -0.458 -0.458
 0.036  0.637 -0.495 -0.524 -0.492 -0.456 -0.456
 0.038  0.642 -0.491 -0.522 -0.491 -0.454 -0.454
 0.040  0.647 -0.485 -0.520 -0.489 -0.452 -0.452
 0.042  0.651 -0.481 -0.519 -0.487 -0.450 -0.450
 0.044  0.656 -0.477 -0.517 -0.485 -0.448 -0.448
 0.046  0.661 -0.472 -0.515 -0.483 -0.447 -0.447
 0.048  0.666 -0.468 -0.513 -0.481 -0.445 -0.445
 0.050  0.672 -0.463 -0.511 -0.479 -0.443 -0.443
 0.052  0.677 -0.458 -0.508 -0.476 -0.442 -0.442
 0.054  0.683 -0.454 -0.506 -0.474 -0.440 -0.440
 0.056  0.688 -0.449 -0.503 -0.472 -0.438 -0.438
 0.058  0.694 -0.444 -0.501 -0.470 -0.436 -0.436
 0.060  0.699 -0.440 -0.498 -0.467 -0.434 -0.434
 0.062  0.705 -0.435 -0.495 -0.465 -0.432 -0.432
 0.064  0.710 -0.431 -0.492 -0.462 -0.431 -0.431
 0.066  0.716 -0.426 -0.490 -0.460 -0.429 -0.429
 0.068  0.721 -0.421 -0.487 -0.457 -0.427 -0.427
 0.070  0.726 -0.417 -0.484 -0.455 -0.426 -0.426
 0.072  0.731 -0.412 -0.481 -0.453 -0.424 -0.424
 0.074  0.736 -0.407 -0.478 -0.450 -0.422 -0.422
 0.076  0.741 -0.402 -0.475 -0.448 -0.421 -0.421
 0.078  0.745 -0.398 -0.472 -0.446 -0.419 -0.419
 0.080  0.750 -0.393 -0.468 -0.444 -0.417 -0.417
 0.082  0.754 -0.388 -0.465 -0.441 -0.416 -0.416
 0.084  0.760 -0.384 -0.462 -0.440 -0.414 -0.414
 0.086  0.764 -0.378 -0.459 -0.438 -0.412 -0.412
 0.088  0.768 -0.374 -0.456 -0.435 -0.411 -0.411
 0.090  0.772 -0.369 -0.453 -0.433 -0.409 -0.409
 0.092  0.777 -0.364 -0.450 -0.431 -0.407 -0.407
 0.094  0.781 -0.360 -0.447 -0.429 -0.405 -0.405
 0.096  0.786 -0.355 -0.444 -0.427 -0.404 -0.404
 0.098  0.790 -0.350 -0.441 -0.425 -0.402 -0.402
 0.100  0.794 -0.346 -0.438 -0.424 -0.401 -0.401
 0.102  0.798 -0.341 -0.435 -0.422 -0.399 -0.399
 0.104  0.802 -0.336 -0.432 -0.420 -0.398 -0.398
 0.106  0.806 -0.332 -0.429 -0.418 -0.396 -0.396
 0.108  0.810 -0.328 -0.426 -0.417 -0.395 -0.395
 0.110  0.813 -0.323 -0.423 -0.415 -0.393 -0.393
 0.112  0.817 -0.319 -0.420 -0.413 -0.391 -0.391
 0.114  0.821 -0.314 -0.417 -0.412 -0.390 -0.390
 0.116  0.824 -0.310 -0.414 -0.410 -0.389 -0.389
 0.118  0.828 -0.306 -0.412 -0.409 -0.387 -0.387
 0.120  0.831 -0.302 -0.409 -0.407 -0.385 -0.385
 0.122  0.834 -0.298 -0.405 -0.406 -0.384 -0.384
 0.124  0.838 -0.293 -0.403 -0.404 -0.383 -0.383
 0.126  0.841 -0.290 -0.400 -0.403 -0.381 -0.381
 0.128  0.845 -0.285 -0.398 -0.401 -0.380 -0.380
 0.130  0.848 -0.281 -0.394 -0.400 -0.378 -0.378
 0.132  0.851 -0.278 -0.392 -0.398 -0.377 -0.377
 0.134  0.855 -0.273 -0.389 -0.397 -0.376 -0.376
 0.136  0.859 -0.270 -0.387 -0.395 -0.374 -0.374
 0.138  0.862 -0.265 -0.383 -0.395 -0.373 -0.373
 0.140  0.866 -0.262 -0.381 -0.393 -0.372 -0.372
 0.142  0.869 -0.258 -0.378 -0.392 -0.370 -0.370
 0.144  0.872 -0.255 -0.375 -0.390 -0.369 -0.369
 0.146  0.876 -0.250 -0.373 -0.389 -0.368 -0.368
 0.148  0.879 -0.247 -0.370 -0.388 -0.366 -0.366
 0.150  0.882 -0.243 -0.368 -0.386 -0.365 -0.365
 0.152  0.886 -0.240 -0.365 -0.385 -0.363 -0.363
 0.154  0.889 -0.236 -0.363 -0.383 -0.362 -0.362
 0.156  0.893 -0.233 -0.360 -0.382 -0.361 -0.361
 0.158  0.896 -0.229 -0.358 -0.381 -0.360 -0.360
 0.160  0.899 -0.227 -0.355 -0.380 -0.358 -0.358
 0.162  0.903 -0.223 -0.353 -0.378 -0.357 -0.357
 0.164  0.906 -0.220 -0.350 -0.377 -0.356 -0.356
 0.166  0.909 -0.216 -0.348 -0.375 -0.355 -0.355
 0.168  0.914 -0.213 -0.346 -0.374 -0.353 -0.353
 0.170  0.917 -0.209 -0.343 -0.373 -0.352 -0.352
 0.172  0.920 -0.206 -0.341 -0.371 -0.351 -0.351
 0.174  0.924 -0.203 -0.338 -0.370 -0.350 -0.350
 0.176  0.927 -0.199 -0.336 -0.368 -0.348 -0.348
 0.178  0.930 -0.196 -0.334 -0.367 -0.347 -0.347
 0.180  0.934 -0.192 -0.332 -0.366 -0.346 -0.346
 0.182  0.937 -0.189 -0.330 -0.365 -0.345 -0.345
 0.184  0.940 -0.185 -0.327 -0.363 -0.343 -0.343
 0.186  0.944 -0.183 -0.325 -0.362 -0.342 -0.342
 0.188  0.948 -0.179 -0.324 -0.361 -0.341 -0.341
 0.190  0.951 -0.176 -0.321 -0.359 -0.340 -0.340
 0.192  0.955 -0.172 -0.319 -0.358 -0.338 -0.338
 0.194  0.958 -0.169 -0.317 -0.356 -0.337 -0.337
 0.196  0.962 -0.165 -0.315 -0.355 -0.335 -0.335
 0.198  0.965 -0.162 -0.313 -0.354 -0.335 -0.335
 0.200  0.968 -0.158 -0.311 -0.352 -0.333 -0.333
 0.202  0.972 -0.155 -0.309 -0.351 -0.332 -0.332
 0.204  0.975 -0.151 -0.308 -0.350 -0.330 -0.330
 0.206  0.978 -0.148 -0.306 -0.349 -0.330 -0.330
 0.208  0.982 -0.144 -0.304 -0.347 -0.328 -0.328
 0.210  0.985 -0.141 -0.302 -0.346 -0.327 -0.327
 0.212  0.988 -0.137 -0.300 -0.345 -0.325 -0.325
 0.214  0.992 -0.134 -0.298 -0.343 -0.325 -0.325
 0.216  0.995 -0.130 -0.297 -0.342 -0.323 -0.323
 0.218  0.998 -0.127 -0.295 -0.341 -0.322 -0.322
 0.220  1.001 -0.123 -0.294 -0.339 -0.320 -0.320
 0.222  1.004 -0.120 -0.292 -0.338 -0.319 -0.319
 0.224  1.008 -0.116 -0.290 -0.337 -0.318 -0.318
 0.226  1.010 -0.113 -0.289 -0.335 -0.317 -0.317
 0.228  1.014 -0.108 -0.287 -0.334 -0.315 -0.315
 0.230  1.017 -0.105 -0.285 -0.333 -0.314 -0.314
 0.232  1.020 -0.101 -0.283 -0.332 -0.313 -0.313
 0.234  1.023 -0.098 -0.282 -0.330 -0.312 -0.312
 0.236  1.026 -0.094 -0.280 -0.329 -0.311 -0.311
 0.238  1.029 -0.091 -0.278 -0.328 -0.309 -0.309
 0.240  1.032 -0.087 -0.276 -0.326 -0.308 -0.308
 0.242  1.035 -0.084 -0.275 -0.325 -0.307 -0.307
 0.244  1.038 -0.080 -0.273 -0.324 -0.306 -0.306
 0.246  1.041 -0.077 -0.272 -0.322 -0.304 -0.304
 0.248  1.044 -0.073 -0.270 -0.321 -0.303 -0.303
 0.250  1.047 -0.070 -0.268 -0.320 -0.302 -0.302
 0.252  1.049 -0.067 -0.266 -0.319 -0.301 -0.301
 0.254  1.052 -0.063 -0.265 -0.318 -0.300 -0.300
 0.256  1.055 -0.061 -0.263 -0.317 -0.299 -0.299
 0.258  1.058 -0.057 -0.261 -0.315 -0.298 -0.298
 0.260  1.061 -0.054 -0.259 -0.314 -0.297 -0.297
 0.262  1.063 -0.051 -0.257 -0.313 -0.295 -0.295
 0.264  1.066 -0.048 -0.256 -0.311 -0.294 -0.294
 0.266  1.068 -0.045 -0.254 -0.310 -0.293 -0.293
 0.268  1.072 -0.042 -0.253 -0.309 -0.292 -0.292
 0.270  1.074 -0.039 -0.251 -0.308 -0.291 -0.291
 0.272  1.077 -0.036 -0.249 -0.306 -0.290 -0.290
 0.274  1.079 -0.033 -0.247 -0.305 -0.289 -0.289
 0.276  1.083 -0.030 -0.245 -0.304 -0.287 -0.287
 0.278  1.085 -0.028 -0.243 -0.303 -0.287 -0.287
 0.280  1.088 -0.025 -0.242 -0.302 -0.286 -0.286
 0.282  1.090 -0.022 -0.240 -0.300 -0.284 -0.284
 0.284  1.093 -0.019 -0.238 -0.299 -0.283 -0.283
 0.286  1.096 -0.016 -0.236 -0.298 -0.282 -0.282
 0.288  1.099 -0.013 -0.234 -0.297 -0.282 -0.282
 0.290  1.101 -0.011 -0.232 -0.295 -0.280 -0.280
 0.292  1.104 -0.009 -0.231 -0.294 -0.279 -0.279
 0.294  1.106 -0.006 -0.229 -0.293 -0.278 -0.278
 0.296  1.110 -0.004 -0.227 -0.291 -0.277 -0.277
 0.298  1.112 -0.001 -0.226 -0.290 -0.276 -0.276
 0.300  1.115  0.001 -0.224 -0.289 -0.276 -0.276
 0.302  1.117  0.003 -0.222 -0.288 -0.275 -0.275
 0.304  1.120  0.006 -0.220 -0.287 -0.273 -0.273
 0.306  1.123  0.008 -0.218 -0.286 -0.272 -0.272
 0.308  1.126  0.011 -0.216 -0.284 -0.271 -0.271
 0.310  1.128  0.013 -0.215 -0.283 -0.271 -0.271
 0.312  1.131  0.015 -0.213 -0.282 -0.270 -0.270
 0.314  1.133  0.018 -0.211 -0.280 -0.269 -0.269
 0.316  1.136  0.020 -0.210 -0.279 -0.267 -0.267
 0.318  1.139  0.022 -0.208 -0.278 -0.266 -0.266
 0.320  1.142  0.025 -0.206 -0.276 -0.266 -0.266
 0.322  1.144  0.028 -0.204 -0.275 -0.264 -0.264
 0.324  1.147  0.030 -0.202 -0.274 -0.263 -0.263
 0.326  1.149  0.032 -0.201 -0.273 -0.262 -0.262
 0.328  1.152  0.035 -0.199 -0.272 -0.261 -0.261
 0.330  1.155  0.037 -0.198 -0.270 -0.260 -0.260
 0.332  1.158  0.040 -0.196 -0.269 -0.259 -0.259
 0.334  1.160  0.042 -0.194 -0.268 -0.258 -0.258
 0.336  1.163  0.044 -0.192 -0.266 -0.257 -0.257
 0.338  1.165  0.047 -0.190 -0.265 -0.255 -0.255
 0.340  1.168  0.050 -0.189 -0.264 -0.255 -0.255
 0.342  1.170  0.052 -0.187 -0.262 -0.253 -0.253
 0.344  1.173  0.055 -0.185 -0.261 -0.252 -0.252
 0.346  1.175  0.058 -0.183 -0.260 -0.251 -0.251
 0.348  1.179  0.060 -0.182 -0.259 -0.250 -0.250
 0.350  1.181  0.063 -0.180 -0.258 -0.249 -0.249
 0.352  1.184  0.065 -0.179 -0.256 -0.248 -0.248
 0.354  1.186  0.068 -0.177 -0.255 -0.246 -0.246
 0.356  1.188  0.071 -0.175 -0.253 -0.245 -0.245
 0.358  1.191  0.073 -0.174 -0.252 -0.244 -0.244
 0.360  1.193  0.076 -0.172 -0.251 -0.243 -0.243
 0.362  1.196  0.079 -0.170 -0.249 -0.241 -0.241
 0.364  1.198  0.081 -0.168 -0.248 -0.240 -0.240
 0.366  1.201  0.084 -0.167 -0.247 -0.239 -0.239
 0.368  1.203  0.087 -0.165 -0.245 -0.238 -0.238
 0.370  1.206  0.089 -0.163 -0.245 -0.236 -0.236
 0.372  1.207  0.092 -0.162 -0.243 -0.235 -0.235
 0.374  1.210  0.094 -0.160 -0.242 -0.234 -0.234
 0.376  1.212  0.097 -0.158 -0.240 -0.233 -0.233
 0.378  1.215  0.100 -0.157 -0.239 -0.231 -0.231
 0.380  1.217  0.102 -0.155 -0.238 -0.230 -0.230
 0.382  1.219  0.105 -0.153 -0.236 -0.229 -0.229
 0.384  1.222  0.108 -0.152 -0.235 -0.228 -0.228
 0.386  1.223  0.110 -0.150 -0.234 -0.226 -0.226
 0.388  1.226  0.113 -0.149 -0.232 -0.225 -0.225
 0.390  1.228  0.115 -0.147 -0.231 -0.224 -0.224
 0.392  1.230  0.118 -0.146 -0.230 -0.223 -0.223
 0.394  1.233  0.121 -0.144 -0.229 -0.221 -0.221
 0.396  1.234  0.123 -0.142 -0.227 -0.220 -0.220
 0.398  1.237  0.125 -0.141 -0.226 -0.219 -0.219
 0.400  1.238  0.128 -0.139 -0.224 -0.217 -0.217
 0.402  1.241  0.130 -0.138 -0.223 -0.217 -0.217
 0.404  1.243  0.132 -0.136 -0.222 -0.215 -0.215
 0.406  1.245  0.135 -0.135 -0.220 -0.214 -0.214
 0.408  1.247  0.137 -0.133 -0.219 -0.213 -0.213
 0.410  1.249  0.139 -0.131 -0.218 -0.212 -0.212
 0.412  1.251  0.141 -0.130 -0.216 -0.211 -0.211
 0.414  1.254  0.144 -0.129 -0.215 -0.209 -0.209
 0.416  1.255  0.145 -0.127 -0.214 -0.208 -0.208
 0.418  1.257  0.148 -0.126 -0.213 -0.207 -0.207
 0.420  1.260  0.150 -0.124 -0.211 -0.206 -0.206
 0.422  1.261  0.151 -0.123 -0.210 -0.205 -0.205
 0.424  1.263  0.153 -0.121 -0.208 -0.204 -0.204
 0.426  1.265  0.156 -0.120 -0.207 -0.202 -0.202
 0.428  1.267  0.158 -0.118 -0.206 -0.201 -0.201
 0.430  1.269  0.159 -0.117 -0.205 -0.200 -0.200
 0.432  1.270  0.161 -0.116 -0.203 -0.199 -0.199
 0.434  1.272  0.163 -0.114 -0.202 -0.198 -0.198
 0.436  1.275  0.165 -0.112 -0.201 -0.197 -0.197
 0.438  1.276  0.166 -0.111 -0.200 -0.196 -0.196
 0.440  1.278  0.168 -0.109 -0.199 -0.195 -0.195
 0.442  1.280  0.170 -0.108 -0.198 -0.194 -0.194
 0.444  1.281  0.172 -0.107 -0.197 -0.192 -0.192
 0.446  1.283  0.173 -0.106 -0.195 -0.191 -0.191
 0.448  1.285  0.175 -0.105 -0.194 -0.191 -0.191
 0.450  1.286  0.176 -0.103 -0.193 -0.189 -0.189
 0.452  1.288  0.178 -0.101 -0.192 -0.188 -0.188
 0.454  1.290  0.180 -0.100 -0.191 -0.187 -0.187
 0.456  1.292  0.180 -0.099 -0.190 -0.186 -0.186
 0.458  1.293  0.182 -0.098 -0.189 -0.185 -0.185
 0.460  1.295  0.184 -0.097 -0.188 -0.184 -0.184
 0.462  1.297  0.185 -0.095 -0.187 -0.183 -0.183
 0.464  1.298  0.187 -0.094 -0.186 -0.182 -0.182
 0.466  1.300  0.187 -0.094 -0.185 -0.181 -0.181
 0.468  1.302  0.189 -0.092 -0.184 -0.180 -0.180
 0.470  1.303  0.190 -0.091 -0.183 -0.179 -0.179
 0.472  1.305  0.192 -0.090 -0.182 -0.178 -0.178
 0.474  1.307  0.193 -0.089 -0.182 -0.177 -0.177
 0.476  1.308  0.194 -0.088 -0.181 -0.176 -0.176
 0.478  1.309  0.195 -0.087 -0.180 -0.175 -0.175
 0.480  1.311  0.197 -0.086 -0.179 -0.175 -0.175
 0.482  1.313  0.198 -0.085 -0.178 -0.174 -0.174
 0.484  1.314  0.199 -0.084 -0.177 -0.173 -0.173
 0.486  1.315  0.200 -0.083 -0.176 -0.172 -0.172
 0.488  1.317  0.201 -0.082 -0.175 -0.171 -0.171
 0.490  1.318  0.202 -0.081 -0.175 -0.170 -0.170
 0.492  1.319  0.203 -0.080 -0.174 -0.169 -0.169
 0.494  1.321  0.204 -0.079 -0.173 -0.169 -0.169
 0.496  1.322  0.205 -0.078 -0.172 -0.168 -0.168
 0.498  1.324  0.206 -0.078 -0.171 -0.167 -0.167
 0.500  1.324  0.207 -0.076 -0.171 -0.167 -0.167
 0.502  1.326  0.208 -0.076 -0.170 -0.166 -0.166
 0.504  1.327  0.209 -0.075 -0.170 -0.165 -0.165
 0.506  1.329  0.210 -0.075 -0.169 -0.164 -0.164
 0.508  1.329  0.211 -0.073 -0.168 -0.164 -0.164
 0.510  1.330  0.211 -0.073 -0.167 -0.163 -0.163
 0.512  1.332  0.212 -0.072 -0.167 -0.162 -0.162
 0.514  1.333  0.213 -0.071 -0.166 -0.162 -0.162
 0.516  1.334  0.214 -0.070 -0.165 -0.161 -0.161
 0.518  1.335  0.215 -0.070 -0.164 -0.160 -0.160
 0.520  1.336  0.215 -0.069 -0.163 -0.159 -0.159
 0.522  1.337  0.215 -0.068 -0.163 -0.159 -0.159
 0.524  1.338  0.216 -0.067 -0.162 -0.158 -0.158
 0.526  1.339  0.217 -0.067 -0.161 -0.158 -0.158
 0.528  1.340  0.218 -0.065 -0.161 -0.157 -0.157
 0.530  1.340  0.218 -0.065 -0.160 -0.156 -0.156
 0.532  1.341  0.219 -0.064 -0.159 -0.155 -0.155
 0.534  1.342  0.220 -0.063 -0.158 -0.155 -0.155
 0.536  1.343  0.220 -0.062 -0.158 -0.154 -0.154
 0.538  1.344  0.221 -0.062 -0.157 -0.153 -0.153
 0.540  1.345  0.221 -0.060 -0.156 -0.153 -0.153
 0.542  1.345  0.222 -0.060 -0.156 -0.152 -0.152
 0.544  1.346  0.222 -0.059 -0.155 -0.151 -0.151
 0.546  1.347  0.223 -0.058 -0.155 -0.151 -0.151
 0.548  1.348  0.223 -0.057 -0.154 -0.150 -0.150
 0.550  1.348  0.223 -0.057 -0.153 -0.149 -0.149
 0.552  1.349  0.223 -0.056 -0.153 -0.149 -0.149
 0.554  1.350  0.223 -0.055 -0.152 -0.148 -0.148
 0.556  1.350  0.224 -0.054 -0.151 -0.148 -0.148
 0.558  1.350  0.224 -0.053 -0.151 -0.147 -0.147
 0.560  1.351  0.225 -0.053 -0.150 -0.146 -0.146
 0.562  1.351  0.225 -0.052 -0.149 -0.145 -0.145
 0.564  1.352  0.225 -0.051 -0.149 -0.145 -0.145
 0.566  1.352  0.225 -0.050 -0.148 -0.144 -0.144
 0.568  1.352  0.226 -0.049 -0.147 -0.143 -0.143
 0.570  1.353  0.226 -0.048 -0.147 -0.142 -0.142
 0.572  1.353  0.226 -0.048 -0.146 -0.142 -0.142
 0.574  1.354  0.226 -0.046 -0.146 -0.141 -0.141
 0.576  1.354  0.226 -0.046 -0.145 -0.141 -0.141
 0.578  1.354  0.226 -0.045 -0.145 -0.140 -0.140
 0.580  1.354  0.226 -0.044 -0.144 -0.139 -0.139
 0.582  1.354  0.226 -0.043 -0.143 -0.138 -0.138
 0.584  1.354  0.226 -0.043 -0.143 -0.138 -0.138
 0.586  1.355  0.226 -0.042 -0.142 -0.137 -0.137
 0.588  1.355  0.226 -0.042 -0.142 -0.137 -0.137
 0.590  1.355  0.226 -0.040 -0.141 -0.136 -0.136
 0.592  1.355  0.226 -0.040 -0.141 -0.135 -0.135
 0.594  1.354  0.226 -0.039 -0.140 -0.135 -0.135
 0.596  1.354  0.226 -0.038 -0.140 -0.134 -0.134
 0.598  1.354  0.226 -0.038 -0.140 -0.133 -0.133
 0.600  1.354  0.226 -0.038 -0.139 -0.133 -0.133
 0.602  1.354  0.226 -0.037 -0.139 -0.132 -0.132
 0.604  1.354  0.226 -0.037 -0.138 -0.132 -0.132
 0.606  1.353  0.226 -0.036 -0.138 -0.131 -0.131
 0.608  1.353  0.226 -0.035 -0.137 -0.130 -0.130
 0.610  1.353  0.225 -0.035 -0.137 -0.130 -0.130
 0.612  1.352  0.225 -0.035 -0.137 -0.129 -0.129
 0.614  1.352  0.225 -0.034 -0.136 -0.129 -0.129
 0.616  1.351  0.225 -0.034 -0.136 -0.128 -0.128
 0.618  1.351  0.225 -0.034 -0.135 -0.127 -0.127
 0.620  1.350  0.225 -0.034 -0.135 -0.127 -0.127
 0.622  1.350  0.225 -0.033 -0.135 -0.126 -0.126
 0.624  1.350  0.225 -0.033 -0.134 -0.126 -0.126
 0.626  1.349  0.225 -0.033 -0.134 -0.126 -0.126
 0.628  1.349  0.225 -0.032 -0.133 -0.125 -0.125
 0.630  1.348  0.224 -0.032 -0.133 -0.125 -0.125
 0.632  1.348  0.224 -0.032 -0.133 -0.124 -0.124
 0.634  1.347  0.224 -0.032 -0.132 -0.124 -0.124
 0.636  1.347  0.224 -0.032 -0.132 -0.123 -0.123
 0.638  1.346  0.224 -0.032 -0.132 -0.123 -0.123
 0.640  1.346  0.224 -0.032 -0.131 -0.123 -0.123
 0.642  1.345  0.224 -0.032 -0.131 -0.122 -0.122
 0.644  1.345  0.224 -0.032 -0.131 -0.122 -0.122
 0.646  1.345  0.223 -0.032 -0.131 -0.121 -0.121
 0.648  1.345  0.223 -0.032 -0.130 -0.121 -0.121
 0.650  1.345  0.223 -0.032 -0.130 -0.121 -0.121
 0.652  1.345  0.223 -0.032 -0.130 -0.121 -0.121
 0.654  1.344  0.223 -0.032 -0.130 -0.120 -0.120
 0.656  1.344  0.223 -0.032 -0.129 -0.120 -0.120
 0.658  1.344  0.223 -0.032 -0.129 -0.120 -0.120
 0.660  1.343  0.223 -0.032 -0.129 -0.119 -0.119
 0.662  1.343  0.223 -0.032 -0.129 -0.119 -0.119
 0.664  1.343  0.223 -0.032 -0.129 -0.119 -0.119
 0.666  1.343  0.223 -0.031 -0.129 -0.118 -0.118
 0.668  1.343  0.223 -0.031 -0.128 -0.118 -0.118
 0.670  1.342  0.223 -0.031 -0.128 -0.117 -0.117
 0.672  1.342  0.223 -0.031 -0.128 -0.117 -0.117
 0.674  1.342  0.223 -0.030 -0.128 -0.116 -0.116
 0.676  1.342  0.223 -0.029 -0.128 -0.116 -0.116
 0.678  1.342  0.223 -0.029 -0.128 -0.115 -0.115
 0.680  1.342  0.223 -0.029 -0.128 -0.115 -0.115
 0.682  1.342  0.223 -0.028 -0.127 -0.115 -0.115
 0.684  1.342  0.223 -0.027 -0.127 -0.114 -0.114
 0.686  1.342  0.224 -0.027 -0.127 -0.113 -0.113
 0.688  1.342  0.224 -0.026 -0.127 -0.113 -0.113
 0.690  1.342  0.225 -0.026 -0.127 -0.112 -0.112
 0.692  1.342  0.225 -0.025 -0.127 -0.111 -0.111
 0.694  1.342  0.226 -0.024 -0.127 -0.111 -0.111
 0.696  1.342  0.227 -0.023 -0.127 -0.110 -0.110
 0.698  1.342  0.227 -0.023 -0.127 -0.110 -0.110
 0.700  1.342  0.228 -0.022 -0.127 -0.109 -0.109
 0.702  1.342  0.229 -0.021 -0.127 -0.108 -0.108
 0.704  1.342  0.230 -0.020 -0.127 -0.107 -0.107
 0.706  1.342  0.230 -0.019 -0.127 -0.106 -0.106
 0.708  1.342  0.231 -0.018 -0.127 -0.105 -0.105
 0.710  1.343  0.232 -0.017 -0.127 -0.105 -0.105
 0.712  1.343  0.233 -0.016 -0.126 -0.104 -0.104
 0.714  1.343  0.234 -0.015 -0.126 -0.103 -0.103
 0.716  1.343  0.235 -0.014 -0.125 -0.102 -0.102
 0.718  1.343  0.236 -0.013 -0.125 -0.101 -0.101
 0.720  1.343  0.237 -0.012 -0.125 -0.100 -0.100
 0.722  1.343  0.238 -0.010 -0.124 -0.099 -0.099
 0.724  1.344  0.239 -0.009 -0.123 -0.098 -0.098
 0.726  1.344  0.241 -0.008 -0.123 -0.097 -0.097
 0.728  1.344  0.242 -0.007 -0.122 -0.095 -0.095
 0.730  1.344  0.244 -0.005 -0.121 -0.094 -0.094
 0.732  1.345  0.244 -0.004 -0.120 -0.093 -0.093
 0.734  1.345  0.246 -0.002 -0.119 -0.092 -0.092
 0.736  1.345  0.248 -0.001 -0.118 -0.091 -0.091
 0.738  1.345  0.249  0.001 -0.117 -0.090 -0.090
 0.740  1.345  0.251  0.003 -0.116 -0.089 -0.089
 0.742  1.345  0.252  0.004 -0.114 -0.087 -0.087
 0.744  1.346  0.253  0.006 -0.113 -0.086 -0.086
 0.746  1.346  0.255  0.007 -0.112 -0.084 -0.084
 0.748  1.346  0.257  0.009 -0.110 -0.083 -0.083
 0.750  1.347  0.258  0.011 -0.109 -0.082 -0.082
 0.752  1.347  0.260  0.013 -0.108 -0.080 -0.080
 0.754  1.347  0.262  0.015 -0.106 -0.079 -0.079
 0.756  1.347  0.264  0.017 -0.104 -0.077 -0.077
 0.758  1.348  0.266  0.018 -0.102 -0.076 -0.076
 0.760  1.348  0.268  0.020 -0.100 -0.074 -0.074
 0.762  1.349  0.270  0.022 -0.099 -0.072 -0.072
 0.764  1.349  0.272  0.024 -0.097 -0.071 -0.071
 0.766  1.350  0.273  0.026 -0.095 -0.069 -0.069
 0.768  1.350  0.275  0.028 -0.093 -0.067 -0.067
 0.770  1.350  0.278  0.030 -0.091 -0.066 -0.066
 0.772  1.351  0.280  0.032 -0.089 -0.064 -0.064
 0.774  1.352  0.281  0.035 -0.087 -0.062 -0.062
 0.776  1.353  0.283  0.037 -0.084 -0.061 -0.061
 0.778  1.355  0.286  0.040 -0.082 -0.059 -0.059
 0.780  1.355  0.287  0.042 -0.080 -0.057 -0.057
 0.782  1.357  0.289  0.045 -0.079 -0.055 -0.055
 0.784  1.358  0.292  0.047 -0.076 -0.053 -0.053
 0.786  1.360  0.294  0.050 -0.074 -0.051 -0.051
 0.788  1.361  0.296  0.052 -0.072 -0.049 -0.049
 0.790  1.363  0.299  0.054 -0.070 -0.047 -0.047
 0.792  1.365  0.301  0.056 -0.068 -0.045 -0.045
 0.794  1.366  0.304  0.058 -0.066 -0.043 -0.043
 0.796  1.369  0.307  0.060 -0.064 -0.040 -0.040
 0.798  1.371  0.309  0.062 -0.062 -0.039 -0.039
 0.800  1.373  0.312  0.064 -0.060 -0.036 -0.036
 0.802  1.376  0.315  0.065 -0.058 -0.035 -0.035
 0.804  1.377  0.317  0.066 -0.057 -0.032 -0.032
 0.806  1.380  0.319  0.067 -0.055 -0.031 -0.031
 0.808  1.383  0.321  0.068 -0.053 -0.030 -0.030
