# IsPeriodic    : True
# Period        : 0.621680 days
# Normalization : <g_mag>=0
# 
# Phase u_mag  g_mag  r_mag  i_mag  z_mag  y_mag
 0.000  0.720 -0.522 -0.513 -0.455 -0.438 -0.438
 0.002  0.720 -0.522 -0.513 -0.455 -0.438 -0.438
 0.004  0.720 -0.521 -0.512 -0.455 -0.438 -0.438
 0.006  0.721 -0.521 -0.512 -0.454 -0.437 -0.437
 0.008  0.722 -0.519 -0.511 -0.454 -0.437 -0.437
 0.010  0.722 -0.518 -0.509 -0.454 -0.437 -0.437
 0.012  0.723 -0.515 -0.508 -0.453 -0.437 -0.437
 0.014  0.725 -0.513 -0.507 -0.452 -0.436 -0.436
 0.016  0.726 -0.511 -0.505 -0.451 -0.436 -0.436
 0.018  0.727 -0.508 -0.504 -0.451 -0.436 -0.436
 0.020  0.729 -0.505 -0.502 -0.450 -0.435 -0.435
 0.022  0.731 -0.501 -0.500 -0.449 -0.435 -0.435
 0.024  0.733 -0.498 -0.498 -0.448 -0.434 -0.434
 0.026  0.736 -0.495 -0.496 -0.447 -0.433 -0.433
 0.028  0.738 -0.492 -0.495 -0.446 -0.433 -0.433
 0.030  0.741 -0.488 -0.493 -0.445 -0.432 -0.432
 0.032  0.745 -0.485 -0.491 -0.444 -0.432 -0.432
 0.034  0.748 -0.482 -0.489 -0.444 -0.431 -0.431
 0.036  0.752 -0.478 -0.487 -0.442 -0.431 -0.431
 0.038  0.755 -0.475 -0.486 -0.442 -0.430 -0.430
 0.040  0.760 -0.472 -0.484 -0.441 -0.429 -0.429
 0.042  0.763 -0.468 -0.482 -0.440 -0.428 -0.428
 0.044  0.768 -0.464 -0.480 -0.439 -0.428 -0.428
 0.046  0.772 -0.460 -0.478 -0.438 -0.427 -0.427
 0.048  0.777 -0.456 -0.476 -0.437 -0.426 -0.426
 0.050  0.782 -0.452 -0.474 -0.436 -0.425 -0.425
 0.052  0.786 -0.448 -0.472 -0.435 -0.424 -0.424
 0.054  0.791 -0.443 -0.469 -0.434 -0.423 -0.423
 0.056  0.796 -0.439 -0.467 -0.433 -0.422 -0.422
 0.058  0.801 -0.434 -0.465 -0.432 -0.421 -0.421
 0.060  0.805 -0.429 -0.463 -0.431 -0.420 -0.420
 0.062  0.810 -0.424 -0.460 -0.430 -0.419 -0.419
 0.064  0.815 -0.419 -0.458 -0.429 -0.418 -0.418
 0.066  0.820 -0.414 -0.455 -0.428 -0.417 -0.417
 0.068  0.824 -0.409 -0.453 -0.428 -0.415 -0.415
 0.070  0.829 -0.403 -0.450 -0.426 -0.414 -0.414
 0.072  0.833 -0.398 -0.447 -0.426 -0.413 -0.413
 0.074  0.837 -0.393 -0.445 -0.425 -0.412 -0.412
 0.076  0.842 -0.387 -0.442 -0.423 -0.411 -0.411
 0.078  0.845 -0.382 -0.440 -0.423 -0.409 -0.409
 0.080  0.850 -0.377 -0.437 -0.422 -0.408 -0.408
 0.082  0.854 -0.371 -0.434 -0.420 -0.407 -0.407
 0.084  0.858 -0.366 -0.432 -0.420 -0.405 -0.405
 0.086  0.862 -0.360 -0.429 -0.419 -0.404 -0.404
 0.088  0.865 -0.355 -0.427 -0.417 -0.403 -0.403
 0.090  0.869 -0.350 -0.424 -0.417 -0.402 -0.402
 0.092  0.873 -0.344 -0.422 -0.416 -0.401 -0.401
 0.094  0.877 -0.339 -0.419 -0.415 -0.400 -0.400
 0.096  0.881 -0.334 -0.416 -0.413 -0.399 -0.399
 0.098  0.884 -0.329 -0.414 -0.413 -0.397 -0.397
 0.100  0.888 -0.324 -0.411 -0.412 -0.396 -0.396
 0.102  0.892 -0.319 -0.409 -0.410 -0.395 -0.395
 0.104  0.895 -0.315 -0.406 -0.409 -0.394 -0.394
 0.106  0.898 -0.310 -0.404 -0.408 -0.393 -0.393
 0.108  0.902 -0.305 -0.402 -0.407 -0.392 -0.392
 0.110  0.905 -0.301 -0.400 -0.406 -0.391 -0.391
 0.112  0.908 -0.296 -0.397 -0.404 -0.390 -0.390
 0.114  0.911 -0.292 -0.395 -0.403 -0.389 -0.389
 0.116  0.914 -0.288 -0.393 -0.402 -0.388 -0.388
 0.118  0.917 -0.284 -0.391 -0.401 -0.387 -0.387
 0.120  0.920 -0.279 -0.388 -0.400 -0.386 -0.386
 0.122  0.923 -0.275 -0.386 -0.398 -0.385 -0.385
 0.124  0.926 -0.272 -0.384 -0.397 -0.384 -0.384
 0.126  0.929 -0.268 -0.382 -0.396 -0.383 -0.383
 0.128  0.932 -0.264 -0.379 -0.394 -0.382 -0.382
 0.130  0.935 -0.260 -0.378 -0.393 -0.381 -0.381
 0.132  0.938 -0.256 -0.375 -0.392 -0.380 -0.380
 0.134  0.941 -0.252 -0.373 -0.391 -0.379 -0.379
 0.136  0.944 -0.249 -0.371 -0.389 -0.379 -0.379
 0.138  0.947 -0.246 -0.369 -0.388 -0.377 -0.377
 0.140  0.950 -0.243 -0.367 -0.387 -0.377 -0.377
 0.142  0.953 -0.239 -0.365 -0.385 -0.376 -0.376
 0.144  0.956 -0.236 -0.364 -0.384 -0.375 -0.375
 0.146  0.959 -0.233 -0.362 -0.382 -0.374 -0.374
 0.148  0.962 -0.230 -0.360 -0.381 -0.373 -0.373
 0.150  0.965 -0.226 -0.358 -0.379 -0.372 -0.372
 0.152  0.968 -0.223 -0.356 -0.378 -0.372 -0.372
 0.154  0.971 -0.220 -0.354 -0.376 -0.371 -0.371
 0.156  0.974 -0.217 -0.352 -0.375 -0.370 -0.370
 0.158  0.977 -0.214 -0.351 -0.373 -0.369 -0.369
 0.160  0.980 -0.212 -0.348 -0.371 -0.368 -0.368
 0.162  0.982 -0.209 -0.347 -0.370 -0.367 -0.367
 0.164  0.985 -0.206 -0.345 -0.368 -0.367 -0.367
 0.166  0.988 -0.203 -0.343 -0.367 -0.366 -0.366
 0.168  0.992 -0.200 -0.342 -0.365 -0.365 -0.365
 0.170  0.995 -0.197 -0.339 -0.364 -0.364 -0.364
 0.172  0.998 -0.194 -0.338 -0.362 -0.363 -0.363
 0.174  1.001 -0.190 -0.336 -0.361 -0.362 -0.362
 0.176  1.004 -0.187 -0.334 -0.360 -0.361 -0.361
 0.178  1.007 -0.184 -0.332 -0.358 -0.360 -0.360
 0.180  1.010 -0.181 -0.330 -0.357 -0.360 -0.360
 0.182  1.013 -0.178 -0.329 -0.355 -0.359 -0.359
 0.184  1.015 -0.175 -0.327 -0.354 -0.358 -0.358
 0.186  1.018 -0.172 -0.325 -0.353 -0.357 -0.357
 0.188  1.022 -0.168 -0.323 -0.351 -0.356 -0.356
 0.190  1.025 -0.165 -0.321 -0.350 -0.355 -0.355
 0.192  1.028 -0.162 -0.320 -0.349 -0.354 -0.354
 0.194  1.031 -0.159 -0.318 -0.347 -0.353 -0.353
 0.196  1.034 -0.156 -0.316 -0.346 -0.352 -0.352
 0.198  1.037 -0.153 -0.314 -0.345 -0.352 -0.352
 0.200  1.040 -0.150 -0.312 -0.344 -0.351 -0.351
 0.202  1.043 -0.147 -0.311 -0.343 -0.350 -0.350
 0.204  1.045 -0.144 -0.309 -0.342 -0.349 -0.349
 0.206  1.048 -0.140 -0.307 -0.341 -0.348 -0.348
 0.208  1.051 -0.137 -0.306 -0.339 -0.347 -0.347
 0.210  1.054 -0.134 -0.303 -0.338 -0.346 -0.346
 0.212  1.057 -0.131 -0.302 -0.337 -0.345 -0.345
 0.214  1.060 -0.127 -0.300 -0.336 -0.344 -0.344
 0.216  1.063 -0.124 -0.298 -0.335 -0.343 -0.343
 0.218  1.065 -0.121 -0.297 -0.334 -0.343 -0.343
 0.220  1.068 -0.118 -0.295 -0.333 -0.341 -0.341
 0.222  1.071 -0.114 -0.293 -0.332 -0.341 -0.341
 0.224  1.074 -0.111 -0.291 -0.331 -0.340 -0.340
 0.226  1.076 -0.108 -0.289 -0.330 -0.339 -0.339
 0.228  1.079 -0.105 -0.288 -0.329 -0.338 -0.338
 0.230  1.082 -0.102 -0.286 -0.328 -0.337 -0.337
 0.232  1.084 -0.099 -0.284 -0.328 -0.336 -0.336
 0.234  1.087 -0.095 -0.282 -0.326 -0.335 -0.335
 0.236  1.090 -0.092 -0.281 -0.326 -0.334 -0.334
 0.238  1.092 -0.089 -0.279 -0.325 -0.333 -0.333
 0.240  1.095 -0.086 -0.277 -0.324 -0.332 -0.332
 0.242  1.098 -0.083 -0.276 -0.323 -0.332 -0.332
 0.244  1.100 -0.080 -0.274 -0.322 -0.331 -0.331
 0.246  1.103 -0.077 -0.272 -0.321 -0.330 -0.330
 0.248  1.106 -0.075 -0.271 -0.320 -0.329 -0.329
 0.250  1.108 -0.072 -0.269 -0.319 -0.328 -0.328
 0.252  1.110 -0.069 -0.267 -0.318 -0.327 -0.327
 0.254  1.113 -0.066 -0.265 -0.317 -0.326 -0.326
 0.256  1.115 -0.063 -0.263 -0.316 -0.325 -0.325
 0.258  1.117 -0.060 -0.262 -0.314 -0.324 -0.324
 0.260  1.120 -0.058 -0.260 -0.313 -0.324 -0.324
 0.262  1.122 -0.055 -0.258 -0.312 -0.323 -0.323
 0.264  1.125 -0.053 -0.257 -0.311 -0.322 -0.322
 0.266  1.127 -0.050 -0.255 -0.310 -0.321 -0.321
 0.268  1.130 -0.047 -0.253 -0.309 -0.320 -0.320
 0.270  1.132 -0.045 -0.251 -0.308 -0.319 -0.319
 0.272  1.134 -0.043 -0.250 -0.307 -0.319 -0.319
 0.274  1.136 -0.040 -0.249 -0.305 -0.318 -0.318
 0.276  1.139 -0.037 -0.247 -0.304 -0.317 -0.317
 0.278  1.141 -0.035 -0.245 -0.303 -0.316 -0.316
 0.280  1.144 -0.033 -0.244 -0.301 -0.315 -0.315
 0.282  1.146 -0.030 -0.242 -0.300 -0.315 -0.315
 0.284  1.148 -0.028 -0.240 -0.299 -0.313 -0.313
 0.286  1.151 -0.026 -0.239 -0.298 -0.313 -0.313
 0.288  1.153 -0.023 -0.237 -0.296 -0.312 -0.312
 0.290  1.155 -0.021 -0.235 -0.295 -0.311 -0.311
 0.292  1.158 -0.019 -0.233 -0.294 -0.310 -0.310
 0.294  1.160 -0.017 -0.232 -0.292 -0.309 -0.309
 0.296  1.163 -0.014 -0.230 -0.291 -0.309 -0.309
 0.298  1.165 -0.012 -0.229 -0.289 -0.308 -0.308
 0.300  1.167 -0.010 -0.227 -0.288 -0.307 -0.307
 0.302  1.169 -0.007 -0.226 -0.287 -0.306 -0.306
 0.304  1.172 -0.006 -0.224 -0.285 -0.305 -0.305
 0.306  1.174 -0.004 -0.222 -0.284 -0.304 -0.304
 0.308  1.177 -0.001 -0.221 -0.282 -0.304 -0.304
 0.310  1.179  0.001 -0.219 -0.281 -0.303 -0.303
 0.312  1.181  0.003 -0.218 -0.279 -0.302 -0.302
 0.314  1.183  0.005 -0.216 -0.278 -0.301 -0.301
 0.316  1.185  0.007 -0.215 -0.276 -0.300 -0.300
 0.318  1.188  0.009 -0.213 -0.275 -0.299 -0.299
 0.320  1.191  0.012 -0.212 -0.273 -0.298 -0.298
 0.322  1.193  0.014 -0.210 -0.272 -0.297 -0.297
 0.324  1.195  0.016 -0.209 -0.270 -0.297 -0.297
 0.326  1.197  0.018 -0.208 -0.269 -0.296 -0.296
 0.328  1.199  0.020 -0.206 -0.268 -0.295 -0.295
 0.330  1.202  0.023 -0.204 -0.266 -0.294 -0.294
 0.332  1.204  0.025 -0.203 -0.265 -0.293 -0.293
 0.334  1.207  0.026 -0.201 -0.264 -0.292 -0.292
 0.336  1.209  0.029 -0.200 -0.262 -0.291 -0.291
 0.338  1.211  0.031 -0.199 -0.261 -0.290 -0.290
 0.340  1.213  0.033 -0.197 -0.260 -0.289 -0.289
 0.342  1.215  0.036 -0.196 -0.258 -0.288 -0.288
 0.344  1.218  0.037 -0.195 -0.257 -0.287 -0.287
 0.346  1.220  0.039 -0.193 -0.256 -0.286 -0.286
 0.348  1.223  0.042 -0.192 -0.254 -0.285 -0.285
 0.350  1.225  0.043 -0.191 -0.253 -0.284 -0.284
 0.352  1.227  0.045 -0.190 -0.251 -0.284 -0.284
 0.354  1.229  0.048 -0.188 -0.250 -0.283 -0.283
 0.356  1.231  0.050 -0.187 -0.249 -0.281 -0.281
 0.358  1.233  0.052 -0.186 -0.248 -0.280 -0.280
 0.360  1.235  0.054 -0.184 -0.246 -0.280 -0.280
 0.362  1.237  0.056 -0.183 -0.245 -0.279 -0.279
 0.364  1.240  0.058 -0.182 -0.244 -0.277 -0.277
 0.366  1.242  0.060 -0.181 -0.242 -0.277 -0.277
 0.368  1.244  0.062 -0.179 -0.241 -0.276 -0.276
 0.370  1.246  0.065 -0.178 -0.240 -0.275 -0.275
 0.372  1.248  0.066 -0.177 -0.239 -0.274 -0.274
 0.374  1.250  0.068 -0.175 -0.237 -0.273 -0.273
 0.376  1.252  0.071 -0.174 -0.236 -0.272 -0.272
 0.378  1.254  0.072 -0.173 -0.235 -0.271 -0.271
 0.380  1.256  0.075 -0.172 -0.234 -0.270 -0.270
 0.382  1.258  0.077 -0.170 -0.232 -0.269 -0.269
 0.384  1.260  0.079 -0.169 -0.231 -0.268 -0.268
 0.386  1.262  0.081 -0.168 -0.230 -0.267 -0.267
 0.388  1.264  0.083 -0.166 -0.229 -0.266 -0.266
 0.390  1.266  0.085 -0.165 -0.228 -0.265 -0.265
 0.392  1.268  0.088 -0.164 -0.226 -0.264 -0.264
 0.394  1.270  0.089 -0.163 -0.225 -0.263 -0.263
 0.396  1.271  0.091 -0.161 -0.224 -0.263 -0.263
 0.398  1.273  0.094 -0.160 -0.223 -0.261 -0.261
 0.400  1.275  0.095 -0.159 -0.222 -0.261 -0.261
 0.402  1.277  0.098 -0.157 -0.220 -0.260 -0.260
 0.404  1.279  0.100 -0.156 -0.219 -0.259 -0.259
 0.406  1.281  0.102 -0.155 -0.218 -0.258 -0.258
 0.408  1.282  0.104 -0.154 -0.217 -0.257 -0.257
 0.410  1.284  0.106 -0.152 -0.216 -0.256 -0.256
 0.412  1.286  0.108 -0.151 -0.215 -0.255 -0.255
 0.414  1.288  0.111 -0.150 -0.214 -0.255 -0.255
 0.416  1.289  0.112 -0.148 -0.212 -0.254 -0.254
 0.418  1.291  0.114 -0.147 -0.211 -0.253 -0.253
 0.420  1.293  0.117 -0.146 -0.210 -0.252 -0.252
 0.422  1.295  0.119 -0.144 -0.209 -0.251 -0.251
 0.424  1.296  0.121 -0.143 -0.208 -0.250 -0.250
 0.426  1.298  0.123 -0.142 -0.207 -0.249 -0.249
 0.428  1.300  0.125 -0.141 -0.206 -0.249 -0.249
 0.430  1.301  0.127 -0.139 -0.205 -0.248 -0.248
 0.432  1.303  0.130 -0.138 -0.204 -0.247 -0.247
 0.434  1.304  0.131 -0.137 -0.203 -0.246 -0.246
 0.436  1.306  0.134 -0.135 -0.201 -0.245 -0.245
 0.438  1.308  0.136 -0.134 -0.200 -0.244 -0.244
 0.440  1.309  0.138 -0.133 -0.199 -0.244 -0.244
 0.442  1.311  0.140 -0.132 -0.198 -0.243 -0.243
 0.444  1.312  0.142 -0.130 -0.197 -0.242 -0.242
 0.446  1.314  0.144 -0.129 -0.196 -0.241 -0.241
 0.448  1.315  0.146 -0.128 -0.195 -0.240 -0.240
 0.450  1.317  0.147 -0.126 -0.194 -0.240 -0.240
 0.452  1.318  0.150 -0.125 -0.193 -0.239 -0.239
 0.454  1.320  0.151 -0.124 -0.192 -0.238 -0.238
 0.456  1.322  0.153 -0.123 -0.191 -0.237 -0.237
 0.458  1.322  0.155 -0.122 -0.190 -0.236 -0.236
 0.460  1.324  0.157 -0.121 -0.189 -0.236 -0.236
 0.462  1.325  0.158 -0.119 -0.188 -0.235 -0.235
 0.464  1.327  0.160 -0.118 -0.187 -0.234 -0.234
 0.466  1.328  0.161 -0.117 -0.186 -0.233 -0.233
 0.468  1.330  0.163 -0.116 -0.185 -0.232 -0.232
 0.470  1.331  0.164 -0.115 -0.184 -0.232 -0.232
 0.472  1.333  0.166 -0.114 -0.183 -0.231 -0.231
 0.474  1.334  0.167 -0.112 -0.182 -0.230 -0.230
 0.476  1.336  0.169 -0.111 -0.181 -0.229 -0.229
 0.478  1.336  0.170 -0.110 -0.180 -0.228 -0.228
 0.480  1.338  0.171 -0.108 -0.179 -0.228 -0.228
 0.482  1.339  0.173 -0.107 -0.178 -0.227 -0.227
 0.484  1.341  0.174 -0.106 -0.177 -0.226 -0.226
 0.486  1.342  0.175 -0.105 -0.176 -0.225 -0.225
 0.488  1.343  0.176 -0.104 -0.175 -0.224 -0.224
 0.490  1.344  0.177 -0.103 -0.174 -0.224 -0.224
 0.492  1.345  0.179 -0.102 -0.173 -0.223 -0.223
 0.494  1.347  0.180 -0.101 -0.172 -0.222 -0.222
 0.496  1.347  0.180 -0.099 -0.171 -0.221 -0.221
 0.498  1.349  0.182 -0.098 -0.170 -0.220 -0.220
 0.500  1.350  0.183 -0.097 -0.169 -0.220 -0.220
 0.502  1.351  0.183 -0.097 -0.168 -0.219 -0.219
 0.504  1.352  0.184 -0.096 -0.167 -0.218 -0.218
 0.506  1.353  0.185 -0.094 -0.166 -0.217 -0.217
 0.508  1.354  0.186 -0.093 -0.165 -0.216 -0.216
 0.510  1.355  0.186 -0.092 -0.164 -0.216 -0.216
 0.512  1.356  0.187 -0.091 -0.163 -0.215 -0.215
 0.514  1.357  0.188 -0.090 -0.162 -0.214 -0.214
 0.516  1.358  0.189 -0.089 -0.161 -0.214 -0.214
 0.518  1.359  0.189 -0.088 -0.160 -0.213 -0.213
 0.520  1.360  0.190 -0.087 -0.159 -0.212 -0.212
 0.522  1.361  0.191 -0.086 -0.158 -0.211 -0.211
 0.524  1.361  0.192 -0.085 -0.157 -0.211 -0.211
 0.526  1.362  0.193 -0.085 -0.156 -0.210 -0.210
 0.528  1.363  0.193 -0.084 -0.155 -0.209 -0.209
 0.530  1.364  0.193 -0.083 -0.154 -0.209 -0.209
 0.532  1.364  0.194 -0.082 -0.153 -0.208 -0.208
 0.534  1.365  0.195 -0.081 -0.152 -0.207 -0.207
 0.536  1.366  0.196 -0.080 -0.151 -0.207 -0.207
 0.538  1.366  0.196 -0.080 -0.151 -0.206 -0.206
 0.540  1.367  0.196 -0.079 -0.150 -0.206 -0.206
 0.542  1.368  0.197 -0.078 -0.149 -0.205 -0.205
 0.544  1.369  0.197 -0.077 -0.148 -0.204 -0.204
 0.546  1.369  0.198 -0.077 -0.147 -0.204 -0.204
 0.548  1.370  0.198 -0.076 -0.146 -0.203 -0.203
 0.550  1.370  0.199 -0.075 -0.145 -0.202 -0.202
 0.552  1.371  0.199 -0.075 -0.144 -0.202 -0.202
 0.554  1.372  0.199 -0.074 -0.144 -0.201 -0.201
 0.556  1.372  0.199 -0.074 -0.143 -0.201 -0.201
 0.558  1.372  0.200 -0.073 -0.142 -0.200 -0.200
 0.560  1.373  0.200 -0.072 -0.141 -0.200 -0.200
 0.562  1.373  0.200 -0.072 -0.141 -0.199 -0.199
 0.564  1.374  0.201 -0.071 -0.140 -0.199 -0.199
 0.566  1.374  0.201 -0.071 -0.139 -0.198 -0.198
 0.568  1.374  0.201 -0.071 -0.138 -0.198 -0.198
 0.570  1.374  0.202 -0.070 -0.137 -0.197 -0.197
 0.572  1.374  0.202 -0.070 -0.137 -0.196 -0.196
 0.574  1.375  0.202 -0.069 -0.136 -0.196 -0.196
 0.576  1.375  0.202 -0.069 -0.135 -0.195 -0.195
 0.578  1.375  0.202 -0.068 -0.135 -0.195 -0.195
 0.580  1.375  0.203 -0.068 -0.134 -0.195 -0.195
 0.582  1.375  0.203 -0.068 -0.133 -0.194 -0.194
 0.584  1.375  0.203 -0.067 -0.132 -0.194 -0.194
 0.586  1.376  0.203 -0.067 -0.132 -0.193 -0.193
 0.588  1.376  0.203 -0.067 -0.131 -0.192 -0.192
 0.590  1.376  0.203 -0.067 -0.131 -0.192 -0.192
 0.592  1.376  0.203 -0.066 -0.130 -0.192 -0.192
 0.594  1.375  0.203 -0.066 -0.129 -0.191 -0.191
 0.596  1.375  0.203 -0.066 -0.128 -0.191 -0.191
 0.598  1.375  0.203 -0.066 -0.128 -0.190 -0.190
 0.600  1.375  0.203 -0.065 -0.127 -0.190 -0.190
 0.602  1.375  0.203 -0.065 -0.126 -0.189 -0.189
 0.604  1.375  0.203 -0.065 -0.126 -0.188 -0.188
 0.606  1.374  0.203 -0.065 -0.125 -0.188 -0.188
 0.608  1.374  0.203 -0.065 -0.125 -0.188 -0.188
 0.610  1.374  0.203 -0.065 -0.124 -0.187 -0.187
 0.612  1.374  0.203 -0.064 -0.123 -0.187 -0.187
 0.614  1.374  0.203 -0.064 -0.123 -0.186 -0.186
 0.616  1.373  0.203 -0.064 -0.122 -0.186 -0.186
 0.618  1.373  0.203 -0.063 -0.122 -0.185 -0.185
 0.620  1.372  0.203 -0.063 -0.121 -0.184 -0.184
 0.622  1.372  0.203 -0.063 -0.121 -0.184 -0.184
 0.624  1.372  0.203 -0.063 -0.120 -0.184 -0.184
 0.626  1.371  0.203 -0.063 -0.120 -0.183 -0.183
 0.628  1.371  0.203 -0.063 -0.119 -0.183 -0.183
 0.630  1.370  0.203 -0.063 -0.119 -0.182 -0.182
 0.632  1.370  0.203 -0.063 -0.118 -0.182 -0.182
 0.634  1.369  0.202 -0.063 -0.117 -0.181 -0.181
 0.636  1.369  0.202 -0.063 -0.117 -0.180 -0.180
 0.638  1.369  0.202 -0.063 -0.116 -0.180 -0.180
 0.640  1.369  0.202 -0.063 -0.116 -0.179 -0.179
 0.642  1.368  0.202 -0.063 -0.116 -0.179 -0.179
 0.644  1.368  0.202 -0.063 -0.115 -0.179 -0.179
 0.646  1.368  0.201 -0.063 -0.114 -0.178 -0.178
 0.648  1.367  0.201 -0.063 -0.114 -0.178 -0.178
 0.650  1.367  0.201 -0.063 -0.114 -0.177 -0.177
 0.652  1.367  0.201 -0.063 -0.113 -0.176 -0.176
 0.654  1.366  0.200 -0.063 -0.113 -0.176 -0.176
 0.656  1.366  0.200 -0.063 -0.112 -0.175 -0.175
 0.658  1.366  0.200 -0.063 -0.112 -0.175 -0.175
 0.660  1.366  0.200 -0.063 -0.112 -0.174 -0.174
 0.662  1.366  0.199 -0.063 -0.111 -0.174 -0.174
 0.664  1.366  0.199 -0.062 -0.110 -0.173 -0.173
 0.666  1.366  0.199 -0.062 -0.110 -0.172 -0.172
 0.668  1.366  0.199 -0.062 -0.110 -0.172 -0.172
 0.670  1.365  0.199 -0.062 -0.109 -0.171 -0.171
 0.672  1.365  0.199 -0.061 -0.109 -0.171 -0.171
 0.674  1.365  0.198 -0.061 -0.108 -0.170 -0.170
 0.676  1.365  0.198 -0.061 -0.107 -0.170 -0.170
 0.678  1.365  0.198 -0.060 -0.107 -0.169 -0.169
 0.680  1.365  0.197 -0.059 -0.106 -0.168 -0.168
 0.682  1.365  0.197 -0.059 -0.106 -0.167 -0.167
 0.684  1.365  0.196 -0.058 -0.105 -0.167 -0.167
 0.686  1.365  0.196 -0.058 -0.104 -0.166 -0.166
 0.688  1.365  0.196 -0.057 -0.104 -0.166 -0.166
 0.690  1.365  0.196 -0.056 -0.103 -0.165 -0.165
 0.692  1.365  0.196 -0.056 -0.102 -0.164 -0.164
 0.694  1.365  0.195 -0.054 -0.102 -0.163 -0.163
 0.696  1.365  0.195 -0.054 -0.101 -0.163 -0.163
 0.698  1.365  0.194 -0.053 -0.100 -0.162 -0.162
 0.700  1.365  0.194 -0.052 -0.100 -0.161 -0.161
 0.702  1.365  0.193 -0.051 -0.099 -0.160 -0.160
 0.704  1.365  0.193 -0.050 -0.098 -0.160 -0.160
 0.706  1.365  0.193 -0.049 -0.097 -0.159 -0.159
 0.708  1.365  0.193 -0.048 -0.097 -0.158 -0.158
 0.710  1.366  0.192 -0.047 -0.095 -0.158 -0.158
 0.712  1.366  0.192 -0.046 -0.095 -0.157 -0.157
 0.714  1.366  0.191 -0.045 -0.094 -0.156 -0.156
 0.716  1.366  0.191 -0.044 -0.093 -0.155 -0.155
 0.718  1.366  0.190 -0.042 -0.092 -0.154 -0.154
 0.720  1.366  0.189 -0.041 -0.091 -0.154 -0.154
 0.722  1.366  0.189 -0.040 -0.090 -0.153 -0.153
 0.724  1.366  0.189 -0.038 -0.089 -0.152 -0.152
 0.726  1.366  0.189 -0.037 -0.088 -0.151 -0.151
 0.728  1.366  0.188 -0.035 -0.087 -0.150 -0.150
 0.730  1.366  0.188 -0.034 -0.086 -0.148 -0.148
 0.732  1.367  0.188 -0.032 -0.085 -0.147 -0.147
 0.734  1.367  0.188 -0.031 -0.085 -0.146 -0.146
 0.736  1.367  0.187 -0.029 -0.084 -0.145 -0.145
 0.738  1.368  0.187 -0.027 -0.083 -0.143 -0.143
 0.740  1.368  0.187 -0.026 -0.083 -0.142 -0.142
 0.742  1.368  0.187 -0.024 -0.082 -0.140 -0.140
 0.744  1.369  0.187 -0.022 -0.082 -0.139 -0.139
 0.746  1.369  0.187 -0.020 -0.082 -0.138 -0.138
 0.748  1.369  0.187 -0.018 -0.082 -0.136 -0.136
 0.750  1.369  0.188 -0.017 -0.082 -0.134 -0.134
 0.752  1.369  0.188 -0.015 -0.082 -0.132 -0.132
 0.754  1.369  0.188 -0.013 -0.082 -0.131 -0.131
 0.756  1.369  0.188 -0.011 -0.083 -0.129 -0.129
 0.758  1.370  0.189 -0.009 -0.084 -0.127 -0.127
 0.760  1.370  0.189 -0.007 -0.084 -0.126 -0.126
 0.762  1.371  0.189 -0.005 -0.085 -0.123 -0.123
 0.764  1.371  0.189 -0.003 -0.086 -0.122 -0.122
 0.766  1.372  0.190 -0.000 -0.087 -0.119 -0.119
 0.768  1.372  0.191  0.002 -0.088 -0.117 -0.117
 0.770  1.372  0.191  0.004 -0.090 -0.115 -0.115
 0.772  1.373  0.192  0.006 -0.091 -0.113 -0.113
 0.774  1.374  0.193  0.009 -0.093 -0.110 -0.110
 0.776  1.374  0.193  0.011 -0.095 -0.108 -0.108
 0.778  1.376  0.194  0.014 -0.097 -0.105 -0.105
 0.780  1.377  0.195  0.017 -0.098 -0.103 -0.103
 0.782  1.378  0.196  0.019 -0.100 -0.100 -0.100
 0.784  1.379  0.196  0.022 -0.103 -0.098 -0.098
 0.786  1.380  0.198  0.024 -0.105 -0.095 -0.095
 0.788  1.382  0.199  0.027 -0.107 -0.093 -0.093
 0.790  1.383  0.199  0.029 -0.110 -0.090 -0.090
 0.792  1.385  0.200  0.032 -0.113 -0.088 -0.088
 0.794  1.386  0.202  0.034 -0.116 -0.086 -0.086
 0.796  1.388  0.203  0.036 -0.119 -0.084 -0.084
 0.798  1.390  0.203  0.039 -0.122 -0.082 -0.082
 0.800  1.392  0.205  0.040 -0.125 -0.080 -0.080
 0.802  1.394  0.206  0.042 -0.128 -0.079 -0.079
 0.804  1.396  0.206  0.044 -0.132 -0.078 -0.078
 0.806  1.398  0.208  0.045 -0.135 -0.077 -0.077
 0.808  1.401  0.209  0.047 -0.138 -0.076 -0.076
