# IsPeriodic    : True
# Period        : 0.594217 days
# Normalization : <g_mag>=0
# 
# Phase u_mag  g_mag  r_mag  i_mag  z_mag  y_mag
 0.000  0.712 -0.484 -0.504 -0.468 -0.450 -0.450
 0.002  0.712 -0.483 -0.504 -0.468 -0.450 -0.450
 0.004  0.712 -0.482 -0.504 -0.467 -0.450 -0.450
 0.006  0.714 -0.481 -0.504 -0.467 -0.449 -0.449
 0.008  0.715 -0.480 -0.503 -0.466 -0.449 -0.449
 0.010  0.718 -0.478 -0.503 -0.465 -0.448 -0.448
 0.012  0.721 -0.476 -0.502 -0.465 -0.448 -0.448
 0.014  0.723 -0.474 -0.502 -0.464 -0.447 -0.447
 0.016  0.726 -0.472 -0.501 -0.462 -0.446 -0.446
 0.018  0.730 -0.468 -0.500 -0.461 -0.446 -0.446
 0.020  0.734 -0.466 -0.499 -0.460 -0.445 -0.445
 0.022  0.738 -0.463 -0.498 -0.459 -0.444 -0.444
 0.024  0.741 -0.460 -0.497 -0.457 -0.443 -0.443
 0.026  0.745 -0.457 -0.496 -0.456 -0.442 -0.442
 0.028  0.749 -0.454 -0.495 -0.455 -0.441 -0.441
 0.030  0.752 -0.451 -0.493 -0.453 -0.440 -0.440
 0.032  0.756 -0.449 -0.492 -0.452 -0.439 -0.439
 0.034  0.759 -0.445 -0.490 -0.450 -0.438 -0.438
 0.036  0.763 -0.442 -0.489 -0.449 -0.437 -0.437
 0.038  0.766 -0.440 -0.487 -0.448 -0.436 -0.436
 0.040  0.770 -0.437 -0.485 -0.446 -0.435 -0.435
 0.042  0.773 -0.433 -0.483 -0.445 -0.433 -0.433
 0.044  0.776 -0.431 -0.481 -0.444 -0.432 -0.432
 0.046  0.780 -0.428 -0.478 -0.442 -0.431 -0.431
 0.048  0.784 -0.424 -0.476 -0.441 -0.429 -0.429
 0.050  0.787 -0.421 -0.474 -0.440 -0.428 -0.428
 0.052  0.791 -0.418 -0.471 -0.438 -0.427 -0.427
 0.054  0.795 -0.414 -0.469 -0.436 -0.425 -0.425
 0.056  0.799 -0.410 -0.466 -0.435 -0.424 -0.424
 0.058  0.802 -0.407 -0.463 -0.434 -0.422 -0.422
 0.060  0.806 -0.403 -0.460 -0.432 -0.420 -0.420
 0.062  0.810 -0.399 -0.457 -0.431 -0.419 -0.419
 0.064  0.814 -0.395 -0.454 -0.429 -0.417 -0.417
 0.066  0.818 -0.391 -0.451 -0.427 -0.416 -0.416
 0.068  0.822 -0.388 -0.447 -0.426 -0.414 -0.414
 0.070  0.825 -0.384 -0.444 -0.424 -0.412 -0.412
 0.072  0.829 -0.380 -0.441 -0.422 -0.410 -0.410
 0.074  0.833 -0.376 -0.438 -0.421 -0.408 -0.408
 0.076  0.837 -0.371 -0.434 -0.419 -0.406 -0.406
 0.078  0.841 -0.367 -0.431 -0.417 -0.405 -0.405
 0.080  0.845 -0.363 -0.427 -0.416 -0.403 -0.403
 0.082  0.849 -0.359 -0.424 -0.414 -0.401 -0.401
 0.084  0.853 -0.355 -0.420 -0.412 -0.399 -0.399
 0.086  0.856 -0.351 -0.417 -0.411 -0.398 -0.398
 0.088  0.860 -0.348 -0.414 -0.409 -0.396 -0.396
 0.090  0.865 -0.344 -0.411 -0.407 -0.394 -0.394
 0.092  0.868 -0.340 -0.408 -0.406 -0.393 -0.393
 0.094  0.872 -0.335 -0.405 -0.404 -0.391 -0.391
 0.096  0.876 -0.331 -0.402 -0.403 -0.389 -0.389
 0.098  0.880 -0.327 -0.399 -0.401 -0.388 -0.388
 0.100  0.883 -0.323 -0.397 -0.399 -0.386 -0.386
 0.102  0.888 -0.319 -0.394 -0.398 -0.385 -0.385
 0.104  0.891 -0.315 -0.391 -0.396 -0.383 -0.383
 0.106  0.895 -0.312 -0.389 -0.394 -0.382 -0.382
 0.108  0.899 -0.308 -0.387 -0.393 -0.380 -0.380
 0.110  0.903 -0.304 -0.384 -0.391 -0.379 -0.379
 0.112  0.906 -0.300 -0.382 -0.390 -0.378 -0.378
 0.114  0.909 -0.296 -0.379 -0.388 -0.376 -0.376
 0.116  0.913 -0.293 -0.377 -0.387 -0.375 -0.375
 0.118  0.917 -0.289 -0.375 -0.385 -0.374 -0.374
 0.120  0.920 -0.285 -0.373 -0.384 -0.373 -0.373
 0.122  0.923 -0.281 -0.370 -0.383 -0.371 -0.371
 0.124  0.927 -0.278 -0.368 -0.381 -0.370 -0.370
 0.126  0.930 -0.274 -0.366 -0.379 -0.369 -0.369
 0.128  0.934 -0.270 -0.364 -0.378 -0.368 -0.368
 0.130  0.937 -0.267 -0.362 -0.377 -0.366 -0.366
 0.132  0.940 -0.263 -0.360 -0.375 -0.366 -0.366
 0.134  0.944 -0.260 -0.359 -0.374 -0.365 -0.365
 0.136  0.947 -0.256 -0.357 -0.373 -0.363 -0.363
 0.138  0.951 -0.253 -0.355 -0.371 -0.362 -0.362
 0.140  0.954 -0.250 -0.354 -0.370 -0.362 -0.362
 0.142  0.957 -0.246 -0.352 -0.369 -0.360 -0.360
 0.144  0.960 -0.243 -0.351 -0.367 -0.360 -0.360
 0.146  0.963 -0.239 -0.349 -0.366 -0.359 -0.359
 0.148  0.966 -0.235 -0.347 -0.365 -0.357 -0.357
 0.150  0.970 -0.232 -0.346 -0.364 -0.357 -0.357
 0.152  0.973 -0.229 -0.344 -0.362 -0.356 -0.356
 0.154  0.976 -0.226 -0.343 -0.361 -0.355 -0.355
 0.156  0.979 -0.223 -0.341 -0.360 -0.354 -0.354
 0.158  0.982 -0.219 -0.339 -0.359 -0.353 -0.353
 0.160  0.985 -0.216 -0.338 -0.357 -0.352 -0.352
 0.162  0.988 -0.212 -0.336 -0.356 -0.351 -0.351
 0.164  0.991 -0.209 -0.334 -0.355 -0.350 -0.350
 0.166  0.994 -0.206 -0.333 -0.354 -0.349 -0.349
 0.168  0.997 -0.203 -0.331 -0.353 -0.348 -0.348
 0.170  1.000 -0.200 -0.329 -0.351 -0.347 -0.347
 0.172  1.003 -0.196 -0.327 -0.350 -0.346 -0.346
 0.174  1.006 -0.193 -0.326 -0.349 -0.345 -0.345
 0.176  1.009 -0.190 -0.324 -0.348 -0.344 -0.344
 0.178  1.012 -0.187 -0.322 -0.347 -0.343 -0.343
 0.180  1.015 -0.184 -0.320 -0.345 -0.342 -0.342
 0.182  1.018 -0.181 -0.319 -0.344 -0.341 -0.341
 0.184  1.021 -0.178 -0.317 -0.343 -0.340 -0.340
 0.186  1.024 -0.175 -0.315 -0.342 -0.339 -0.339
 0.188  1.027 -0.172 -0.313 -0.341 -0.338 -0.338
 0.190  1.030 -0.169 -0.311 -0.340 -0.337 -0.337
 0.192  1.033 -0.165 -0.309 -0.339 -0.336 -0.336
 0.194  1.036 -0.162 -0.308 -0.337 -0.334 -0.334
 0.196  1.038 -0.159 -0.305 -0.336 -0.333 -0.333
 0.198  1.041 -0.157 -0.303 -0.335 -0.333 -0.333
 0.200  1.044 -0.153 -0.302 -0.334 -0.331 -0.331
 0.202  1.047 -0.150 -0.300 -0.333 -0.330 -0.330
 0.204  1.050 -0.147 -0.297 -0.332 -0.329 -0.329
 0.206  1.052 -0.145 -0.296 -0.331 -0.328 -0.328
 0.208  1.055 -0.142 -0.294 -0.330 -0.327 -0.327
 0.210  1.058 -0.138 -0.291 -0.329 -0.326 -0.326
 0.212  1.061 -0.136 -0.289 -0.328 -0.325 -0.325
 0.214  1.063 -0.133 -0.287 -0.326 -0.323 -0.323
 0.216  1.066 -0.130 -0.286 -0.326 -0.322 -0.322
 0.218  1.069 -0.127 -0.283 -0.325 -0.321 -0.321
 0.220  1.071 -0.124 -0.281 -0.323 -0.320 -0.320
 0.222  1.074 -0.121 -0.279 -0.322 -0.319 -0.319
 0.224  1.077 -0.118 -0.277 -0.321 -0.318 -0.318
 0.226  1.079 -0.115 -0.275 -0.320 -0.317 -0.317
 0.228  1.082 -0.113 -0.273 -0.319 -0.316 -0.316
 0.230  1.085 -0.110 -0.272 -0.318 -0.314 -0.314
 0.232  1.088 -0.107 -0.269 -0.317 -0.313 -0.313
 0.234  1.090 -0.104 -0.268 -0.316 -0.312 -0.312
 0.236  1.093 -0.101 -0.266 -0.315 -0.311 -0.311
 0.238  1.095 -0.099 -0.264 -0.314 -0.310 -0.310
 0.240  1.098 -0.096 -0.262 -0.313 -0.309 -0.309
 0.242  1.100 -0.093 -0.260 -0.312 -0.308 -0.308
 0.244  1.102 -0.091 -0.259 -0.311 -0.307 -0.307
 0.246  1.105 -0.087 -0.257 -0.310 -0.306 -0.306
 0.248  1.108 -0.085 -0.255 -0.308 -0.305 -0.305
 0.250  1.110 -0.083 -0.253 -0.307 -0.304 -0.304
 0.252  1.113 -0.079 -0.252 -0.306 -0.303 -0.303
 0.254  1.115 -0.077 -0.250 -0.305 -0.302 -0.302
 0.256  1.117 -0.075 -0.248 -0.304 -0.300 -0.300
 0.258  1.119 -0.072 -0.247 -0.302 -0.300 -0.300
 0.260  1.122 -0.069 -0.245 -0.302 -0.299 -0.299
 0.262  1.125 -0.067 -0.244 -0.300 -0.297 -0.297
 0.264  1.127 -0.064 -0.243 -0.299 -0.297 -0.297
 0.266  1.129 -0.061 -0.241 -0.298 -0.296 -0.296
 0.268  1.131 -0.059 -0.239 -0.297 -0.294 -0.294
 0.270  1.134 -0.056 -0.238 -0.295 -0.294 -0.294
 0.272  1.136 -0.054 -0.237 -0.294 -0.293 -0.293
 0.274  1.138 -0.051 -0.235 -0.293 -0.291 -0.291
 0.276  1.140 -0.048 -0.234 -0.292 -0.291 -0.291
 0.278  1.143 -0.046 -0.232 -0.290 -0.290 -0.290
 0.280  1.145 -0.044 -0.231 -0.289 -0.289 -0.289
 0.282  1.147 -0.041 -0.230 -0.288 -0.288 -0.288
 0.284  1.149 -0.039 -0.229 -0.287 -0.287 -0.287
 0.286  1.151 -0.037 -0.227 -0.285 -0.286 -0.286
 0.288  1.153 -0.034 -0.226 -0.284 -0.285 -0.285
 0.290  1.155 -0.032 -0.225 -0.283 -0.284 -0.284
 0.292  1.157 -0.029 -0.223 -0.281 -0.283 -0.283
 0.294  1.159 -0.027 -0.222 -0.280 -0.282 -0.282
 0.296  1.161 -0.025 -0.221 -0.278 -0.281 -0.281
 0.298  1.163 -0.022 -0.219 -0.277 -0.280 -0.280
 0.300  1.165 -0.020 -0.218 -0.276 -0.279 -0.279
 0.302  1.167 -0.017 -0.217 -0.274 -0.279 -0.279
 0.304  1.169 -0.015 -0.216 -0.273 -0.277 -0.277
 0.306  1.171 -0.013 -0.214 -0.272 -0.277 -0.277
 0.308  1.173 -0.010 -0.213 -0.270 -0.276 -0.276
 0.310  1.175 -0.008 -0.211 -0.269 -0.275 -0.275
 0.312  1.177 -0.005 -0.210 -0.268 -0.274 -0.274
 0.314  1.179 -0.003 -0.209 -0.267 -0.273 -0.273
 0.316  1.181 -0.001 -0.207 -0.265 -0.272 -0.272
 0.318  1.183  0.001 -0.206 -0.264 -0.271 -0.271
 0.320  1.185  0.003 -0.204 -0.263 -0.270 -0.270
 0.322  1.187  0.006 -0.203 -0.262 -0.270 -0.270
 0.324  1.189  0.008 -0.202 -0.260 -0.269 -0.269
 0.326  1.192  0.010 -0.200 -0.259 -0.268 -0.268
 0.328  1.194  0.013 -0.199 -0.258 -0.267 -0.267
 0.330  1.195  0.014 -0.197 -0.257 -0.266 -0.266
 0.332  1.198  0.017 -0.196 -0.255 -0.265 -0.265
 0.334  1.200  0.019 -0.194 -0.254 -0.264 -0.264
 0.336  1.202  0.022 -0.193 -0.253 -0.264 -0.264
 0.338  1.203  0.023 -0.192 -0.252 -0.263 -0.263
 0.340  1.206  0.026 -0.190 -0.251 -0.262 -0.262
 0.342  1.208  0.028 -0.188 -0.250 -0.261 -0.261
 0.344  1.210  0.030 -0.187 -0.249 -0.260 -0.260
 0.346  1.212  0.032 -0.185 -0.248 -0.259 -0.259
 0.348  1.215  0.034 -0.183 -0.246 -0.258 -0.258
 0.350  1.217  0.037 -0.182 -0.245 -0.257 -0.257
 0.352  1.218  0.038 -0.181 -0.245 -0.257 -0.257
 0.354  1.221  0.041 -0.179 -0.244 -0.256 -0.256
 0.356  1.223  0.043 -0.178 -0.242 -0.255 -0.255
 0.358  1.225  0.045 -0.176 -0.241 -0.254 -0.254
 0.360  1.227  0.047 -0.174 -0.240 -0.253 -0.253
 0.362  1.229  0.049 -0.173 -0.240 -0.253 -0.253
 0.364  1.232  0.051 -0.171 -0.238 -0.252 -0.252
 0.366  1.234  0.053 -0.170 -0.237 -0.251 -0.251
 0.368  1.236  0.055 -0.168 -0.236 -0.250 -0.250
 0.370  1.238  0.057 -0.166 -0.235 -0.249 -0.249
 0.372  1.241  0.060 -0.165 -0.235 -0.248 -0.248
 0.374  1.242  0.061 -0.163 -0.234 -0.247 -0.247
 0.376  1.244  0.064 -0.161 -0.232 -0.247 -0.247
 0.378  1.247  0.065 -0.160 -0.231 -0.246 -0.246
 0.380  1.249  0.068 -0.159 -0.230 -0.245 -0.245
 0.382  1.251  0.069 -0.157 -0.230 -0.244 -0.244
 0.384  1.253  0.072 -0.156 -0.228 -0.243 -0.243
 0.386  1.255  0.073 -0.154 -0.227 -0.242 -0.242
 0.388  1.257  0.075 -0.153 -0.226 -0.241 -0.241
 0.390  1.259  0.077 -0.151 -0.226 -0.240 -0.240
 0.392  1.261  0.079 -0.150 -0.224 -0.239 -0.239
 0.394  1.263  0.081 -0.149 -0.223 -0.239 -0.239
 0.396  1.265  0.083 -0.147 -0.222 -0.237 -0.237
 0.398  1.267  0.084 -0.145 -0.221 -0.237 -0.237
 0.400  1.269  0.087 -0.144 -0.220 -0.236 -0.236
 0.402  1.271  0.088 -0.143 -0.219 -0.235 -0.235
 0.404  1.273  0.090 -0.141 -0.217 -0.234 -0.234
 0.406  1.275  0.092 -0.140 -0.216 -0.233 -0.233
 0.408  1.276  0.094 -0.138 -0.215 -0.232 -0.232
 0.410  1.278  0.096 -0.137 -0.214 -0.231 -0.231
 0.412  1.280  0.097 -0.136 -0.213 -0.230 -0.230
 0.414  1.282  0.099 -0.134 -0.211 -0.229 -0.229
 0.416  1.284  0.100 -0.133 -0.211 -0.228 -0.228
 0.418  1.285  0.103 -0.131 -0.209 -0.227 -0.227
 0.420  1.287  0.104 -0.130 -0.208 -0.226 -0.226
 0.422  1.289  0.106 -0.129 -0.207 -0.225 -0.225
 0.424  1.290  0.107 -0.128 -0.206 -0.224 -0.224
 0.426  1.293  0.109 -0.126 -0.204 -0.223 -0.223
 0.428  1.294  0.111 -0.125 -0.203 -0.222 -0.222
 0.430  1.296  0.112 -0.123 -0.202 -0.221 -0.221
 0.432  1.297  0.114 -0.122 -0.201 -0.220 -0.220
 0.434  1.299  0.115 -0.121 -0.199 -0.219 -0.219
 0.436  1.301  0.117 -0.120 -0.198 -0.218 -0.218
 0.438  1.302  0.119 -0.118 -0.197 -0.217 -0.217
 0.440  1.304  0.120 -0.117 -0.195 -0.216 -0.216
 0.442  1.305  0.122 -0.116 -0.194 -0.215 -0.215
 0.444  1.307  0.123 -0.115 -0.192 -0.214 -0.214
 0.446  1.308  0.125 -0.114 -0.191 -0.213 -0.213
 0.448  1.310  0.127 -0.113 -0.190 -0.212 -0.212
 0.450  1.311  0.128 -0.111 -0.189 -0.211 -0.211
 0.452  1.313  0.130 -0.110 -0.187 -0.211 -0.211
 0.454  1.314  0.131 -0.109 -0.186 -0.210 -0.210
 0.456  1.316  0.132 -0.108 -0.185 -0.209 -0.209
 0.458  1.317  0.134 -0.107 -0.184 -0.208 -0.208
 0.460  1.319  0.135 -0.106 -0.183 -0.207 -0.207
 0.462  1.319  0.137 -0.105 -0.182 -0.206 -0.206
 0.464  1.321  0.138 -0.104 -0.181 -0.205 -0.205
 0.466  1.322  0.139 -0.103 -0.180 -0.204 -0.204
 0.468  1.324  0.141 -0.102 -0.178 -0.204 -0.204
 0.470  1.325  0.142 -0.101 -0.178 -0.203 -0.203
 0.472  1.326  0.143 -0.100 -0.177 -0.202 -0.202
 0.474  1.328  0.145 -0.099 -0.176 -0.201 -0.201
 0.476  1.328  0.146 -0.098 -0.175 -0.201 -0.201
 0.478  1.330  0.147 -0.098 -0.174 -0.199 -0.199
 0.480  1.330  0.149 -0.096 -0.173 -0.199 -0.199
 0.482  1.332  0.150 -0.095 -0.172 -0.198 -0.198
 0.484  1.333  0.151 -0.095 -0.171 -0.197 -0.197
 0.486  1.334  0.152 -0.094 -0.171 -0.196 -0.196
 0.488  1.335  0.154 -0.093 -0.170 -0.196 -0.196
 0.490  1.336  0.154 -0.092 -0.169 -0.195 -0.195
 0.492  1.337  0.156 -0.092 -0.168 -0.194 -0.194
 0.494  1.338  0.157 -0.091 -0.168 -0.194 -0.194
 0.496  1.339  0.158 -0.090 -0.167 -0.193 -0.193
 0.498  1.340  0.159 -0.089 -0.166 -0.192 -0.192
 0.500  1.341  0.160 -0.089 -0.166 -0.191 -0.191
 0.502  1.342  0.162 -0.088 -0.165 -0.191 -0.191
 0.504  1.343  0.162 -0.087 -0.164 -0.190 -0.190
 0.506  1.344  0.164 -0.087 -0.164 -0.190 -0.190
 0.508  1.345  0.165 -0.086 -0.163 -0.189 -0.189
 0.510  1.345  0.166 -0.085 -0.163 -0.188 -0.188
 0.512  1.346  0.166 -0.085 -0.163 -0.188 -0.188
 0.514  1.347  0.168 -0.084 -0.162 -0.187 -0.187
 0.516  1.348  0.169 -0.083 -0.161 -0.186 -0.186
 0.518  1.348  0.170 -0.082 -0.161 -0.186 -0.186
 0.520  1.349  0.170 -0.082 -0.160 -0.185 -0.185
 0.522  1.350  0.171 -0.081 -0.160 -0.184 -0.184
 0.524  1.351  0.173 -0.081 -0.159 -0.184 -0.184
 0.526  1.351  0.173 -0.080 -0.159 -0.183 -0.183
 0.528  1.352  0.174 -0.079 -0.159 -0.183 -0.183
 0.530  1.353  0.175 -0.079 -0.158 -0.182 -0.182
 0.532  1.354  0.176 -0.078 -0.158 -0.181 -0.181
 0.534  1.354  0.177 -0.078 -0.157 -0.181 -0.181
 0.536  1.355  0.177 -0.077 -0.156 -0.180 -0.180
 0.538  1.355  0.178 -0.076 -0.156 -0.180 -0.180
 0.540  1.356  0.179 -0.075 -0.155 -0.179 -0.179
 0.542  1.357  0.179 -0.075 -0.154 -0.179 -0.179
 0.544  1.357  0.180 -0.074 -0.154 -0.178 -0.178
 0.546  1.357  0.181 -0.074 -0.154 -0.178 -0.178
 0.548  1.358  0.181 -0.073 -0.153 -0.177 -0.177
 0.550  1.359  0.182 -0.073 -0.152 -0.176 -0.176
 0.552  1.359  0.182 -0.072 -0.152 -0.176 -0.176
 0.554  1.359  0.183 -0.071 -0.151 -0.175 -0.175
 0.556  1.360  0.184 -0.071 -0.150 -0.175 -0.175
 0.558  1.360  0.185 -0.070 -0.150 -0.175 -0.175
 0.560  1.361  0.185 -0.070 -0.149 -0.174 -0.174
 0.562  1.361  0.185 -0.069 -0.149 -0.173 -0.173
 0.564  1.362  0.185 -0.068 -0.148 -0.173 -0.173
 0.566  1.362  0.186 -0.068 -0.147 -0.172 -0.172
 0.568  1.362  0.187 -0.067 -0.147 -0.172 -0.172
 0.570  1.362  0.187 -0.067 -0.146 -0.171 -0.171
 0.572  1.363  0.188 -0.066 -0.145 -0.171 -0.171
 0.574  1.363  0.188 -0.066 -0.144 -0.170 -0.170
 0.576  1.363  0.188 -0.065 -0.144 -0.170 -0.170
 0.578  1.364  0.189 -0.065 -0.143 -0.170 -0.170
 0.580  1.364  0.189 -0.064 -0.143 -0.169 -0.169
 0.582  1.364  0.189 -0.064 -0.142 -0.168 -0.168
 0.584  1.365  0.189 -0.063 -0.141 -0.168 -0.168
 0.586  1.365  0.189 -0.063 -0.140 -0.168 -0.168
 0.588  1.365  0.190 -0.062 -0.140 -0.167 -0.167
 0.590  1.365  0.190 -0.062 -0.139 -0.167 -0.167
 0.592  1.365  0.190 -0.062 -0.139 -0.166 -0.166
 0.594  1.365  0.191 -0.061 -0.138 -0.166 -0.166
 0.596  1.365  0.191 -0.060 -0.137 -0.165 -0.165
 0.598  1.365  0.191 -0.060 -0.136 -0.165 -0.165
 0.600  1.365  0.192 -0.060 -0.136 -0.165 -0.165
 0.602  1.366  0.192 -0.059 -0.135 -0.164 -0.164
 0.604  1.366  0.192 -0.059 -0.135 -0.164 -0.164
 0.606  1.366  0.193 -0.059 -0.134 -0.163 -0.163
 0.608  1.366  0.193 -0.058 -0.133 -0.163 -0.163
 0.610  1.366  0.193 -0.058 -0.133 -0.162 -0.162
 0.612  1.366  0.193 -0.058 -0.132 -0.162 -0.162
 0.614  1.366  0.193 -0.057 -0.132 -0.161 -0.161
 0.616  1.366  0.193 -0.057 -0.131 -0.161 -0.161
 0.618  1.366  0.194 -0.057 -0.130 -0.161 -0.161
 0.620  1.367  0.194 -0.057 -0.130 -0.160 -0.160
 0.622  1.367  0.194 -0.056 -0.130 -0.160 -0.160
 0.624  1.367  0.195 -0.056 -0.129 -0.159 -0.159
 0.626  1.367  0.195 -0.056 -0.129 -0.159 -0.159
 0.628  1.367  0.195 -0.056 -0.128 -0.158 -0.158
 0.630  1.367  0.195 -0.056 -0.128 -0.158 -0.158
 0.632  1.366  0.196 -0.055 -0.127 -0.158 -0.158
 0.634  1.366  0.196 -0.055 -0.127 -0.157 -0.157
 0.636  1.366  0.196 -0.055 -0.126 -0.157 -0.157
 0.638  1.366  0.196 -0.055 -0.126 -0.156 -0.156
 0.640  1.366  0.197 -0.055 -0.125 -0.156 -0.156
 0.642  1.366  0.197 -0.055 -0.125 -0.156 -0.156
 0.644  1.366  0.197 -0.054 -0.125 -0.155 -0.155
 0.646  1.366  0.197 -0.054 -0.124 -0.155 -0.155
 0.648  1.366  0.197 -0.054 -0.124 -0.155 -0.155
 0.650  1.365  0.197 -0.054 -0.124 -0.154 -0.154
 0.652  1.365  0.197 -0.054 -0.123 -0.153 -0.153
 0.654  1.365  0.197 -0.054 -0.123 -0.153 -0.153
 0.656  1.365  0.198 -0.054 -0.122 -0.153 -0.153
 0.658  1.365  0.198 -0.054 -0.122 -0.153 -0.153
 0.660  1.365  0.198 -0.054 -0.122 -0.152 -0.152
 0.662  1.365  0.198 -0.054 -0.121 -0.152 -0.152
 0.664  1.365  0.198 -0.054 -0.121 -0.152 -0.152
 0.666  1.365  0.199 -0.054 -0.120 -0.151 -0.151
 0.668  1.364  0.199 -0.054 -0.120 -0.151 -0.151
 0.670  1.364  0.199 -0.054 -0.120 -0.150 -0.150
 0.672  1.363  0.199 -0.054 -0.119 -0.150 -0.150
 0.674  1.363  0.199 -0.054 -0.119 -0.150 -0.150
 0.676  1.362  0.200 -0.054 -0.118 -0.150 -0.150
 0.678  1.362  0.200 -0.055 -0.117 -0.149 -0.149
 0.680  1.362  0.200 -0.055 -0.117 -0.149 -0.149
 0.682  1.362  0.200 -0.055 -0.116 -0.149 -0.149
 0.684  1.361  0.200 -0.055 -0.116 -0.148 -0.148
 0.686  1.360  0.200 -0.055 -0.115 -0.148 -0.148
 0.688  1.360  0.201 -0.055 -0.114 -0.148 -0.148
 0.690  1.359  0.201 -0.055 -0.113 -0.148 -0.148
 0.692  1.359  0.201 -0.056 -0.113 -0.148 -0.148
 0.694  1.359  0.201 -0.056 -0.112 -0.147 -0.147
 0.696  1.358  0.201 -0.056 -0.111 -0.147 -0.147
 0.698  1.357  0.201 -0.056 -0.110 -0.147 -0.147
 0.700  1.357  0.201 -0.057 -0.109 -0.147 -0.147
 0.702  1.357  0.201 -0.057 -0.108 -0.147 -0.147
 0.704  1.356  0.201 -0.057 -0.108 -0.147 -0.147
 0.706  1.355  0.201 -0.057 -0.107 -0.146 -0.146
 0.708  1.354  0.201 -0.058 -0.106 -0.146 -0.146
 0.710  1.354  0.201 -0.058 -0.105 -0.146 -0.146
 0.712  1.353  0.201 -0.058 -0.104 -0.146 -0.146
 0.714  1.352  0.201 -0.059 -0.103 -0.145 -0.145
 0.716  1.351  0.201 -0.059 -0.102 -0.145 -0.145
 0.718  1.350  0.201 -0.059 -0.101 -0.145 -0.145
 0.720  1.349  0.202 -0.059 -0.100 -0.145 -0.145
 0.722  1.348  0.202 -0.059 -0.099 -0.145 -0.145
 0.724  1.348  0.202 -0.060 -0.098 -0.145 -0.145
 0.726  1.347  0.202 -0.060 -0.097 -0.144 -0.144
 0.728  1.346  0.203 -0.059 -0.095 -0.144 -0.144
 0.730  1.345  0.203 -0.059 -0.094 -0.144 -0.144
 0.732  1.345  0.204 -0.059 -0.093 -0.143 -0.143
 0.734  1.345  0.204 -0.059 -0.092 -0.142 -0.142
 0.736  1.345  0.205 -0.058 -0.090 -0.142 -0.142
 0.738  1.345  0.207 -0.058 -0.089 -0.141 -0.141
 0.740  1.345  0.208 -0.057 -0.087 -0.141 -0.141
 0.742  1.345  0.208 -0.057 -0.086 -0.140 -0.140
 0.744  1.345  0.210 -0.056 -0.084 -0.139 -0.139
 0.746  1.346  0.212 -0.055 -0.083 -0.138 -0.138
 0.748  1.347  0.213 -0.055 -0.081 -0.138 -0.138
 0.750  1.348  0.215 -0.053 -0.080 -0.137 -0.137
 0.752  1.349  0.216 -0.052 -0.078 -0.136 -0.136
 0.754  1.350  0.219 -0.051 -0.076 -0.135 -0.135
 0.756  1.351  0.220 -0.050 -0.074 -0.134 -0.134
 0.758  1.353  0.223 -0.049 -0.073 -0.133 -0.133
 0.760  1.355  0.225 -0.048 -0.071 -0.132 -0.132
 0.762  1.357  0.227 -0.046 -0.069 -0.130 -0.130
 0.764  1.359  0.230 -0.045 -0.067 -0.129 -0.129
 0.766  1.361  0.232 -0.044 -0.065 -0.128 -0.128
 0.768  1.363  0.235 -0.042 -0.063 -0.127 -0.127
 0.770  1.366  0.238 -0.041 -0.061 -0.125 -0.125
 0.772  1.369  0.241 -0.039 -0.058 -0.124 -0.124
 0.774  1.371  0.244 -0.037 -0.057 -0.122 -0.122
 0.776  1.375  0.248 -0.035 -0.054 -0.121 -0.121
 0.778  1.378  0.251 -0.033 -0.052 -0.119 -0.119
 0.780  1.382  0.255 -0.031 -0.049 -0.118 -0.118
 0.782  1.385  0.259 -0.029 -0.047 -0.116 -0.116
 0.784  1.388  0.263 -0.027 -0.045 -0.114 -0.114
 0.786  1.393  0.267 -0.024 -0.042 -0.113 -0.113
 0.788  1.397  0.271 -0.022 -0.040 -0.111 -0.111
 0.790  1.401  0.274 -0.020 -0.037 -0.109 -0.109
 0.792  1.405  0.278 -0.018 -0.035 -0.108 -0.108
 0.794  1.409  0.282 -0.016 -0.032 -0.106 -0.106
 0.796  1.414  0.286 -0.014 -0.030 -0.104 -0.104
 0.798  1.419  0.290 -0.012 -0.027 -0.103 -0.103
 0.800  1.423  0.294 -0.009 -0.025 -0.101 -0.101
 0.802  1.427  0.297 -0.007 -0.023 -0.099 -0.099
 0.804  1.432  0.300 -0.006 -0.020 -0.098 -0.098
 0.806  1.435  0.302 -0.003 -0.019 -0.096 -0.096
 0.808  1.439  0.305 -0.002 -0.017 -0.095 -0.095
