# IsPeriodic    : True
# Period        : 0.570165 days
# Normalization : <g_mag>=0
# 
# Phase u_mag  g_mag  r_mag  i_mag  z_mag  y_mag
 0.000  0.376 -0.768 -0.694 -0.603 -0.540 -0.540
 0.002  0.376 -0.768 -0.694 -0.603 -0.540 -0.540
 0.004  0.378 -0.768 -0.694 -0.603 -0.540 -0.540
 0.006  0.381 -0.767 -0.694 -0.602 -0.539 -0.539
 0.008  0.384 -0.766 -0.693 -0.602 -0.538 -0.538
 0.010  0.389 -0.763 -0.692 -0.601 -0.537 -0.537
 0.012  0.394 -0.762 -0.691 -0.600 -0.537 -0.537
 0.014  0.401 -0.760 -0.691 -0.598 -0.535 -0.535
 0.016  0.407 -0.757 -0.690 -0.597 -0.534 -0.534
 0.018  0.415 -0.755 -0.688 -0.595 -0.533 -0.533
 0.020  0.422 -0.751 -0.687 -0.593 -0.531 -0.531
 0.022  0.431 -0.749 -0.685 -0.591 -0.530 -0.530
 0.024  0.438 -0.745 -0.684 -0.590 -0.529 -0.529
 0.026  0.446 -0.741 -0.681 -0.588 -0.527 -0.527
 0.028  0.454 -0.738 -0.679 -0.586 -0.525 -0.525
 0.030  0.461 -0.734 -0.676 -0.583 -0.524 -0.524
 0.032  0.470 -0.730 -0.675 -0.581 -0.522 -0.522
 0.034  0.477 -0.727 -0.672 -0.579 -0.520 -0.520
 0.036  0.484 -0.723 -0.669 -0.577 -0.519 -0.519
 0.038  0.491 -0.718 -0.666 -0.575 -0.517 -0.517
 0.040  0.498 -0.714 -0.663 -0.573 -0.515 -0.515
 0.042  0.507 -0.710 -0.660 -0.570 -0.512 -0.512
 0.044  0.514 -0.705 -0.656 -0.568 -0.510 -0.510
 0.046  0.521 -0.700 -0.653 -0.565 -0.509 -0.509
 0.048  0.528 -0.695 -0.649 -0.562 -0.506 -0.506
 0.050  0.535 -0.689 -0.645 -0.560 -0.504 -0.504
 0.052  0.542 -0.684 -0.641 -0.557 -0.502 -0.502
 0.054  0.549 -0.678 -0.637 -0.554 -0.499 -0.499
 0.056  0.558 -0.672 -0.632 -0.551 -0.497 -0.497
 0.058  0.565 -0.666 -0.627 -0.548 -0.494 -0.494
 0.060  0.572 -0.658 -0.623 -0.545 -0.491 -0.491
 0.062  0.579 -0.652 -0.617 -0.541 -0.489 -0.489
 0.064  0.586 -0.646 -0.612 -0.538 -0.486 -0.486
 0.066  0.593 -0.639 -0.608 -0.534 -0.483 -0.483
 0.068  0.601 -0.631 -0.601 -0.531 -0.480 -0.480
 0.070  0.608 -0.624 -0.596 -0.527 -0.477 -0.477
 0.072  0.615 -0.617 -0.591 -0.523 -0.474 -0.474
 0.074  0.622 -0.609 -0.585 -0.519 -0.471 -0.471
 0.076  0.629 -0.602 -0.579 -0.516 -0.468 -0.468
 0.078  0.636 -0.595 -0.574 -0.512 -0.466 -0.466
 0.080  0.643 -0.587 -0.569 -0.508 -0.462 -0.462
 0.082  0.649 -0.580 -0.562 -0.505 -0.459 -0.459
 0.084  0.656 -0.573 -0.557 -0.501 -0.456 -0.456
 0.086  0.664 -0.565 -0.552 -0.498 -0.454 -0.454
 0.088  0.671 -0.558 -0.547 -0.493 -0.451 -0.451
 0.090  0.677 -0.551 -0.542 -0.490 -0.448 -0.448
 0.092  0.684 -0.543 -0.537 -0.487 -0.445 -0.445
 0.094  0.691 -0.536 -0.532 -0.484 -0.443 -0.443
 0.096  0.697 -0.530 -0.527 -0.480 -0.440 -0.440
 0.098  0.704 -0.523 -0.523 -0.477 -0.438 -0.438
 0.100  0.710 -0.517 -0.518 -0.474 -0.435 -0.435
 0.102  0.717 -0.509 -0.514 -0.470 -0.433 -0.433
 0.104  0.723 -0.503 -0.509 -0.467 -0.430 -0.430
 0.106  0.729 -0.496 -0.506 -0.465 -0.428 -0.428
 0.108  0.736 -0.490 -0.501 -0.461 -0.425 -0.425
 0.110  0.742 -0.484 -0.497 -0.458 -0.423 -0.423
 0.112  0.748 -0.476 -0.494 -0.456 -0.421 -0.421
 0.114  0.754 -0.470 -0.489 -0.453 -0.418 -0.418
 0.116  0.760 -0.464 -0.486 -0.450 -0.416 -0.416
 0.118  0.766 -0.458 -0.482 -0.447 -0.414 -0.414
 0.120  0.772 -0.452 -0.478 -0.445 -0.412 -0.412
 0.122  0.778 -0.446 -0.475 -0.442 -0.410 -0.410
 0.124  0.782 -0.440 -0.471 -0.439 -0.408 -0.408
 0.126  0.788 -0.433 -0.468 -0.437 -0.406 -0.406
 0.128  0.794 -0.429 -0.464 -0.434 -0.404 -0.404
 0.130  0.799 -0.422 -0.462 -0.432 -0.402 -0.402
 0.132  0.805 -0.416 -0.458 -0.430 -0.401 -0.401
 0.134  0.810 -0.411 -0.456 -0.428 -0.399 -0.399
 0.136  0.816 -0.405 -0.453 -0.426 -0.397 -0.397
 0.138  0.820 -0.400 -0.450 -0.424 -0.395 -0.395
 0.140  0.826 -0.394 -0.448 -0.422 -0.394 -0.394
 0.142  0.831 -0.389 -0.445 -0.420 -0.392 -0.392
 0.144  0.836 -0.385 -0.442 -0.418 -0.391 -0.391
 0.146  0.841 -0.378 -0.440 -0.416 -0.389 -0.389
 0.148  0.845 -0.374 -0.437 -0.414 -0.387 -0.387
 0.150  0.850 -0.369 -0.434 -0.412 -0.386 -0.386
 0.152  0.855 -0.364 -0.432 -0.410 -0.384 -0.384
 0.154  0.860 -0.359 -0.429 -0.408 -0.383 -0.383
 0.156  0.864 -0.353 -0.426 -0.406 -0.381 -0.381
 0.158  0.869 -0.348 -0.424 -0.405 -0.380 -0.380
 0.160  0.874 -0.343 -0.421 -0.403 -0.378 -0.378
 0.162  0.877 -0.338 -0.418 -0.401 -0.376 -0.376
 0.164  0.882 -0.333 -0.416 -0.399 -0.375 -0.375
 0.166  0.887 -0.328 -0.413 -0.397 -0.373 -0.373
 0.168  0.892 -0.324 -0.410 -0.396 -0.371 -0.371
 0.170  0.895 -0.319 -0.407 -0.394 -0.370 -0.370
 0.172  0.900 -0.314 -0.404 -0.392 -0.368 -0.368
 0.174  0.905 -0.308 -0.402 -0.389 -0.366 -0.366
 0.176  0.910 -0.303 -0.399 -0.388 -0.365 -0.365
 0.178  0.913 -0.298 -0.395 -0.386 -0.363 -0.363
 0.180  0.918 -0.293 -0.393 -0.384 -0.361 -0.361
 0.182  0.923 -0.288 -0.390 -0.382 -0.360 -0.360
 0.184  0.926 -0.283 -0.387 -0.380 -0.358 -0.358
 0.186  0.931 -0.278 -0.384 -0.378 -0.357 -0.357
 0.188  0.936 -0.273 -0.380 -0.376 -0.355 -0.355
 0.190  0.939 -0.270 -0.378 -0.374 -0.353 -0.353
 0.192  0.944 -0.265 -0.374 -0.373 -0.351 -0.351
 0.194  0.948 -0.260 -0.372 -0.370 -0.349 -0.349
 0.196  0.952 -0.255 -0.368 -0.368 -0.347 -0.347
 0.198  0.957 -0.250 -0.364 -0.366 -0.346 -0.346
 0.200  0.961 -0.245 -0.362 -0.365 -0.344 -0.344
 0.202  0.965 -0.240 -0.358 -0.363 -0.342 -0.342
 0.204  0.969 -0.236 -0.355 -0.361 -0.340 -0.340
 0.206  0.974 -0.232 -0.352 -0.359 -0.338 -0.338
 0.208  0.979 -0.227 -0.349 -0.356 -0.337 -0.337
 0.210  0.982 -0.222 -0.345 -0.355 -0.335 -0.335
 0.212  0.987 -0.217 -0.341 -0.353 -0.333 -0.333
 0.214  0.990 -0.212 -0.338 -0.351 -0.331 -0.331
 0.216  0.995 -0.209 -0.335 -0.349 -0.329 -0.329
 0.218  0.999 -0.204 -0.332 -0.347 -0.327 -0.327
 0.220  1.003 -0.199 -0.328 -0.344 -0.325 -0.325
 0.222  1.007 -0.194 -0.325 -0.342 -0.323 -0.323
 0.224  1.012 -0.190 -0.321 -0.341 -0.322 -0.322
 0.226  1.015 -0.185 -0.319 -0.339 -0.320 -0.320
 0.228  1.020 -0.181 -0.315 -0.337 -0.318 -0.318
 0.230  1.024 -0.177 -0.312 -0.335 -0.316 -0.316
 0.232  1.028 -0.172 -0.309 -0.333 -0.314 -0.314
 0.234  1.032 -0.168 -0.306 -0.330 -0.312 -0.312
 0.236  1.036 -0.164 -0.303 -0.329 -0.310 -0.310
 0.238  1.040 -0.160 -0.300 -0.327 -0.309 -0.309
 0.240  1.044 -0.155 -0.296 -0.325 -0.307 -0.307
 0.242  1.047 -0.151 -0.294 -0.323 -0.305 -0.305
 0.244  1.052 -0.146 -0.291 -0.321 -0.304 -0.304
 0.246  1.056 -0.143 -0.288 -0.319 -0.302 -0.302
 0.248  1.059 -0.138 -0.286 -0.317 -0.300 -0.300
 0.250  1.063 -0.134 -0.282 -0.315 -0.299 -0.299
 0.252  1.066 -0.129 -0.280 -0.314 -0.297 -0.297
 0.254  1.070 -0.126 -0.277 -0.311 -0.295 -0.295
 0.256  1.074 -0.122 -0.274 -0.309 -0.293 -0.293
 0.258  1.077 -0.117 -0.272 -0.308 -0.292 -0.292
 0.260  1.081 -0.113 -0.269 -0.306 -0.290 -0.290
 0.262  1.084 -0.110 -0.266 -0.304 -0.288 -0.288
 0.264  1.088 -0.106 -0.265 -0.302 -0.287 -0.287
 0.266  1.091 -0.101 -0.262 -0.300 -0.285 -0.285
 0.268  1.095 -0.098 -0.259 -0.298 -0.283 -0.283
 0.270  1.097 -0.094 -0.257 -0.297 -0.282 -0.282
 0.272  1.101 -0.090 -0.255 -0.295 -0.280 -0.280
 0.274  1.105 -0.087 -0.252 -0.292 -0.278 -0.278
 0.276  1.108 -0.082 -0.250 -0.291 -0.277 -0.277
 0.278  1.110 -0.078 -0.248 -0.289 -0.275 -0.275
 0.280  1.114 -0.074 -0.246 -0.287 -0.274 -0.274
 0.282  1.116 -0.071 -0.243 -0.285 -0.272 -0.272
 0.284  1.120 -0.067 -0.242 -0.283 -0.270 -0.270
 0.286  1.124 -0.063 -0.239 -0.282 -0.269 -0.269
 0.288  1.126 -0.060 -0.237 -0.280 -0.267 -0.267
 0.290  1.128 -0.056 -0.235 -0.278 -0.266 -0.266
 0.292  1.132 -0.052 -0.233 -0.276 -0.264 -0.264
 0.294  1.134 -0.049 -0.231 -0.274 -0.262 -0.262
 0.296  1.137 -0.045 -0.228 -0.273 -0.261 -0.261
 0.298  1.140 -0.041 -0.227 -0.271 -0.260 -0.260
 0.300  1.143 -0.038 -0.225 -0.269 -0.258 -0.258
 0.302  1.145 -0.034 -0.222 -0.267 -0.257 -0.257
 0.304  1.148 -0.030 -0.220 -0.266 -0.255 -0.255
 0.306  1.151 -0.027 -0.218 -0.264 -0.254 -0.254
 0.308  1.153 -0.023 -0.216 -0.262 -0.252 -0.252
 0.310  1.156 -0.019 -0.213 -0.260 -0.251 -0.251
 0.312  1.159 -0.016 -0.212 -0.258 -0.249 -0.249
 0.314  1.162 -0.012 -0.209 -0.257 -0.247 -0.247
 0.316  1.164 -0.008 -0.206 -0.255 -0.246 -0.246
 0.318  1.168 -0.005 -0.205 -0.253 -0.245 -0.245
 0.320  1.170  0.000 -0.202 -0.251 -0.243 -0.243
 0.322  1.172  0.004 -0.199 -0.249 -0.242 -0.242
 0.324  1.176  0.008 -0.197 -0.248 -0.241 -0.241
 0.326  1.178  0.011 -0.195 -0.245 -0.239 -0.239
 0.328  1.182  0.015 -0.192 -0.244 -0.237 -0.237
 0.330  1.184  0.018 -0.190 -0.242 -0.236 -0.236
 0.332  1.188  0.022 -0.188 -0.240 -0.234 -0.234
 0.334  1.190  0.026 -0.185 -0.238 -0.233 -0.233
 0.336  1.192  0.031 -0.182 -0.236 -0.232 -0.232
 0.338  1.196  0.034 -0.181 -0.234 -0.231 -0.231
 0.340  1.200  0.038 -0.178 -0.233 -0.229 -0.229
 0.342  1.202  0.042 -0.175 -0.231 -0.227 -0.227
 0.344  1.206  0.045 -0.173 -0.229 -0.226 -0.226
 0.346  1.208  0.049 -0.170 -0.227 -0.225 -0.225
 0.348  1.211  0.054 -0.167 -0.225 -0.223 -0.223
 0.350  1.214  0.058 -0.165 -0.224 -0.222 -0.222
 0.352  1.217  0.061 -0.163 -0.222 -0.221 -0.221
 0.354  1.221  0.065 -0.160 -0.219 -0.219 -0.219
 0.356  1.223  0.069 -0.158 -0.218 -0.218 -0.218
 0.358  1.227  0.073 -0.155 -0.216 -0.216 -0.216
 0.360  1.231  0.077 -0.152 -0.214 -0.215 -0.215
 0.362  1.234  0.081 -0.150 -0.212 -0.214 -0.214
 0.364  1.236  0.084 -0.147 -0.210 -0.213 -0.213
 0.366  1.240  0.088 -0.144 -0.209 -0.211 -0.211
 0.368  1.244  0.092 -0.142 -0.207 -0.209 -0.209
 0.370  1.247  0.095 -0.139 -0.205 -0.208 -0.208
 0.372  1.250  0.099 -0.136 -0.203 -0.207 -0.207
 0.374  1.253  0.103 -0.134 -0.201 -0.205 -0.205
 0.376  1.257  0.106 -0.131 -0.199 -0.204 -0.204
 0.378  1.260  0.110 -0.129 -0.198 -0.203 -0.203
 0.380  1.264  0.114 -0.127 -0.196 -0.201 -0.201
 0.382  1.266  0.117 -0.124 -0.193 -0.199 -0.199
 0.384  1.270  0.121 -0.121 -0.192 -0.198 -0.198
 0.386  1.273  0.124 -0.120 -0.190 -0.196 -0.196
 0.388  1.276  0.127 -0.117 -0.188 -0.195 -0.195
 0.390  1.279  0.131 -0.114 -0.186 -0.193 -0.193
 0.392  1.283  0.133 -0.112 -0.184 -0.192 -0.192
 0.394  1.285  0.137 -0.110 -0.182 -0.191 -0.191
 0.396  1.289  0.141 -0.107 -0.181 -0.189 -0.189
 0.398  1.291  0.143 -0.105 -0.179 -0.188 -0.188
 0.400  1.295  0.147 -0.103 -0.177 -0.186 -0.186
 0.402  1.297  0.149 -0.100 -0.175 -0.184 -0.184
 0.404  1.301  0.153 -0.098 -0.173 -0.183 -0.183
 0.406  1.303  0.155 -0.096 -0.171 -0.181 -0.181
 0.408  1.307  0.158 -0.093 -0.170 -0.180 -0.180
 0.410  1.309  0.161 -0.090 -0.167 -0.178 -0.178
 0.412  1.313  0.164 -0.089 -0.165 -0.176 -0.176
 0.414  1.315  0.166 -0.086 -0.164 -0.175 -0.175
 0.416  1.317  0.169 -0.084 -0.162 -0.173 -0.173
 0.418  1.321  0.171 -0.082 -0.160 -0.171 -0.171
 0.420  1.323  0.174 -0.080 -0.158 -0.170 -0.170
 0.422  1.326  0.177 -0.077 -0.156 -0.168 -0.168
 0.424  1.328  0.180 -0.075 -0.154 -0.167 -0.167
 0.426  1.332  0.182 -0.073 -0.153 -0.165 -0.165
 0.428  1.334  0.185 -0.071 -0.151 -0.163 -0.163
 0.430  1.336  0.186 -0.068 -0.148 -0.162 -0.162
 0.432  1.339  0.188 -0.067 -0.147 -0.160 -0.160
 0.434  1.341  0.191 -0.065 -0.145 -0.158 -0.158
 0.436  1.343  0.193 -0.062 -0.143 -0.157 -0.157
 0.438  1.346  0.196 -0.060 -0.141 -0.155 -0.155
 0.440  1.348  0.198 -0.059 -0.139 -0.154 -0.154
 0.442  1.351  0.199 -0.057 -0.138 -0.152 -0.152
 0.444  1.353  0.202 -0.054 -0.136 -0.150 -0.150
 0.446  1.355  0.204 -0.052 -0.134 -0.149 -0.149
 0.448  1.358  0.207 -0.051 -0.132 -0.147 -0.147
 0.450  1.360  0.208 -0.049 -0.131 -0.146 -0.146
 0.452  1.362  0.210 -0.047 -0.129 -0.145 -0.145
 0.454  1.365  0.213 -0.045 -0.127 -0.143 -0.143
 0.456  1.367  0.214 -0.044 -0.126 -0.141 -0.141
 0.458  1.370  0.216 -0.042 -0.125 -0.140 -0.140
 0.460  1.372  0.218 -0.040 -0.123 -0.138 -0.138
 0.462  1.374  0.220 -0.038 -0.122 -0.137 -0.137
 0.464  1.376  0.222 -0.037 -0.120 -0.136 -0.136
 0.466  1.378  0.224 -0.035 -0.118 -0.134 -0.134
 0.468  1.380  0.226 -0.033 -0.117 -0.133 -0.133
 0.470  1.383  0.227 -0.032 -0.115 -0.132 -0.132
 0.472  1.384  0.229 -0.030 -0.114 -0.130 -0.130
 0.474  1.386  0.231 -0.029 -0.113 -0.129 -0.129
 0.476  1.389  0.232 -0.027 -0.112 -0.128 -0.128
 0.478  1.391  0.235 -0.026 -0.110 -0.126 -0.126
 0.480  1.392  0.236 -0.024 -0.109 -0.125 -0.125
 0.482  1.395  0.237 -0.022 -0.108 -0.123 -0.123
 0.484  1.397  0.240 -0.022 -0.106 -0.122 -0.122
 0.486  1.398  0.241 -0.020 -0.106 -0.121 -0.121
 0.488  1.400  0.242 -0.019 -0.104 -0.120 -0.120
 0.490  1.402  0.244 -0.017 -0.103 -0.118 -0.118
 0.492  1.404  0.246 -0.016 -0.102 -0.118 -0.118
 0.494  1.405  0.247 -0.015 -0.101 -0.117 -0.117
 0.496  1.408  0.248 -0.014 -0.100 -0.115 -0.115
 0.498  1.410  0.249 -0.013 -0.099 -0.114 -0.114
 0.500  1.411  0.251 -0.012 -0.098 -0.113 -0.113
 0.502  1.414  0.253 -0.010 -0.096 -0.112 -0.112
 0.504  1.415  0.254 -0.009 -0.096 -0.111 -0.111
 0.506  1.416  0.255 -0.008 -0.094 -0.110 -0.110
 0.508  1.418  0.257 -0.007 -0.094 -0.108 -0.108
 0.510  1.420  0.258 -0.006 -0.093 -0.107 -0.107
 0.512  1.422  0.259 -0.005 -0.092 -0.107 -0.107
 0.514  1.423  0.260 -0.004 -0.091 -0.105 -0.105
 0.516  1.424  0.262 -0.002 -0.090 -0.104 -0.104
 0.518  1.427  0.263 -0.001 -0.089 -0.103 -0.103
 0.520  1.428  0.264 -0.000 -0.088 -0.102 -0.102
 0.522  1.429  0.265  0.001 -0.087 -0.101 -0.101
 0.524  1.430  0.266  0.001 -0.087 -0.100 -0.100
 0.526  1.433  0.268  0.003 -0.086 -0.099 -0.099
 0.528  1.434  0.269  0.004 -0.084 -0.098 -0.098
 0.530  1.435  0.270  0.005 -0.084 -0.097 -0.097
 0.532  1.436  0.271  0.006 -0.083 -0.096 -0.096
 0.534  1.437  0.273  0.007 -0.082 -0.095 -0.095
 0.536  1.437  0.274  0.008 -0.082 -0.094 -0.094
 0.538  1.439  0.275  0.009 -0.081 -0.093 -0.093
 0.540  1.440  0.276  0.010 -0.080 -0.092 -0.092
 0.542  1.441  0.277  0.011 -0.079 -0.092 -0.092
 0.544  1.441  0.279  0.012 -0.078 -0.090 -0.090
 0.546  1.442  0.280  0.013 -0.077 -0.090 -0.090
 0.548  1.443  0.281  0.014 -0.077 -0.089 -0.089
 0.550  1.443  0.282  0.015 -0.076 -0.088 -0.088
 0.552  1.444  0.284  0.016 -0.075 -0.087 -0.087
 0.554  1.444  0.285  0.017 -0.075 -0.086 -0.086
 0.556  1.444  0.286  0.018 -0.074 -0.085 -0.085
 0.558  1.446  0.287  0.019 -0.073 -0.085 -0.085
 0.560  1.446  0.288  0.020 -0.073 -0.084 -0.084
 0.562  1.446  0.290  0.021 -0.072 -0.083 -0.083
 0.564  1.447  0.290  0.022 -0.071 -0.082 -0.082
 0.566  1.447  0.291  0.023 -0.070 -0.081 -0.081
 0.568  1.447  0.292  0.024 -0.070 -0.080 -0.080
 0.570  1.447  0.293  0.024 -0.070 -0.080 -0.080
 0.572  1.447  0.295  0.025 -0.069 -0.079 -0.079
 0.574  1.447  0.296  0.026 -0.068 -0.078 -0.078
 0.576  1.447  0.296  0.027 -0.068 -0.077 -0.077
 0.578  1.446  0.297  0.028 -0.067 -0.077 -0.077
 0.580  1.446  0.298  0.029 -0.066 -0.076 -0.076
 0.582  1.446  0.299  0.030 -0.066 -0.075 -0.075
 0.584  1.446  0.299  0.031 -0.065 -0.074 -0.074
 0.586  1.444  0.301  0.031 -0.065 -0.074 -0.074
 0.588  1.444  0.302  0.032 -0.064 -0.073 -0.073
 0.590  1.444  0.302  0.033 -0.063 -0.072 -0.072
 0.592  1.443  0.303  0.033 -0.063 -0.071 -0.071
 0.594  1.443  0.304  0.034 -0.062 -0.070 -0.070
 0.596  1.443  0.304  0.035 -0.061 -0.070 -0.070
 0.598  1.442  0.306  0.036 -0.061 -0.069 -0.069
 0.600  1.442  0.306  0.036 -0.060 -0.069 -0.069
 0.602  1.442  0.307  0.037 -0.059 -0.067 -0.067
 0.604  1.441  0.307  0.038 -0.059 -0.067 -0.067
 0.606  1.441  0.307  0.038 -0.058 -0.066 -0.066
 0.608  1.441  0.308  0.039 -0.058 -0.065 -0.065
 0.610  1.440  0.308  0.039 -0.057 -0.065 -0.065
 0.612  1.440  0.308  0.039 -0.056 -0.064 -0.064
 0.614  1.440  0.309  0.040 -0.056 -0.063 -0.063
 0.616  1.440  0.309  0.040 -0.055 -0.062 -0.062
 0.618  1.439  0.309  0.041 -0.054 -0.062 -0.062
 0.620  1.439  0.309  0.041 -0.054 -0.061 -0.061
 0.622  1.439  0.310  0.042 -0.053 -0.060 -0.060
 0.624  1.439  0.310  0.042 -0.052 -0.060 -0.060
 0.626  1.439  0.310  0.043 -0.051 -0.059 -0.059
 0.628  1.437  0.310  0.043 -0.051 -0.058 -0.058
 0.630  1.437  0.310  0.043 -0.050 -0.057 -0.057
 0.632  1.437  0.310  0.044 -0.049 -0.057 -0.057
 0.634  1.437  0.310  0.044 -0.049 -0.056 -0.056
 0.636  1.437  0.310  0.044 -0.048 -0.055 -0.055
 0.638  1.437  0.310  0.045 -0.047 -0.055 -0.055
 0.640  1.437  0.310  0.045 -0.047 -0.054 -0.054
 0.642  1.437  0.310  0.045 -0.046 -0.054 -0.054
 0.644  1.437  0.310  0.046 -0.045 -0.053 -0.053
 0.646  1.436  0.310  0.046 -0.044 -0.052 -0.052
 0.648  1.436  0.310  0.046 -0.044 -0.052 -0.052
 0.650  1.436  0.309  0.046 -0.043 -0.050 -0.050
 0.652  1.436  0.309  0.046 -0.042 -0.050 -0.050
 0.654  1.436  0.309  0.046 -0.042 -0.049 -0.049
 0.656  1.436  0.309  0.046 -0.041 -0.049 -0.049
 0.658  1.436  0.309  0.046 -0.041 -0.049 -0.049
 0.660  1.436  0.308  0.046 -0.040 -0.048 -0.048
 0.662  1.436  0.308  0.046 -0.040 -0.047 -0.047
 0.664  1.437  0.308  0.046 -0.039 -0.047 -0.047
 0.666  1.437  0.308  0.046 -0.039 -0.046 -0.046
 0.668  1.437  0.308  0.046 -0.038 -0.046 -0.046
 0.670  1.436  0.307  0.046 -0.037 -0.045 -0.045
 0.672  1.436  0.307  0.046 -0.037 -0.044 -0.044
 0.674  1.436  0.307  0.046 -0.037 -0.044 -0.044
 0.676  1.436  0.307  0.046 -0.037 -0.044 -0.044
 0.678  1.436  0.306  0.045 -0.036 -0.043 -0.043
 0.680  1.436  0.306  0.045 -0.036 -0.042 -0.042
 0.682  1.436  0.306  0.045 -0.035 -0.042 -0.042
 0.684  1.436  0.306  0.045 -0.035 -0.042 -0.042
 0.686  1.436  0.304  0.044 -0.035 -0.041 -0.041
 0.688  1.435  0.304  0.044 -0.035 -0.041 -0.041
 0.690  1.435  0.304  0.044 -0.035 -0.041 -0.041
 0.692  1.435  0.303  0.043 -0.035 -0.041 -0.041
 0.694  1.435  0.303  0.043 -0.035 -0.040 -0.040
 0.696  1.435  0.303  0.042 -0.034 -0.040 -0.040
 0.698  1.435  0.302  0.042 -0.034 -0.039 -0.039
 0.700  1.434  0.302  0.041 -0.034 -0.039 -0.039
 0.702  1.434  0.302  0.041 -0.034 -0.039 -0.039
 0.704  1.434  0.301  0.040 -0.034 -0.039 -0.039
 0.706  1.434  0.301  0.040 -0.034 -0.038 -0.038
 0.708  1.433  0.301  0.039 -0.034 -0.038 -0.038
 0.710  1.433  0.299  0.039 -0.034 -0.037 -0.037
 0.712  1.433  0.299  0.039 -0.035 -0.037 -0.037
 0.714  1.431  0.299  0.038 -0.035 -0.037 -0.037
 0.716  1.431  0.298  0.038 -0.035 -0.037 -0.037
 0.718  1.430  0.298  0.037 -0.035 -0.037 -0.037
 0.720  1.430  0.298  0.037 -0.035 -0.036 -0.036
 0.722  1.430  0.298  0.037 -0.035 -0.036 -0.036
 0.724  1.429  0.298  0.036 -0.035 -0.036 -0.036
 0.726  1.429  0.298  0.036 -0.035 -0.035 -0.035
 0.728  1.429  0.298  0.037 -0.035 -0.034 -0.034
 0.730  1.428  0.299  0.037 -0.035 -0.034 -0.034
 0.732  1.428  0.299  0.037 -0.034 -0.033 -0.033
 0.734  1.428  0.301  0.038 -0.033 -0.032 -0.032
 0.736  1.428  0.302  0.039 -0.032 -0.031 -0.031
 0.738  1.428  0.303  0.039 -0.032 -0.030 -0.030
 0.740  1.428  0.306  0.040 -0.031 -0.029 -0.029
 0.742  1.428  0.307  0.041 -0.030 -0.028 -0.028
 0.744  1.429  0.309  0.042 -0.029 -0.027 -0.027
 0.746  1.430  0.310  0.044 -0.028 -0.025 -0.025
 0.748  1.430  0.313  0.045 -0.027 -0.024 -0.024
 0.750  1.431  0.315  0.046 -0.025 -0.022 -0.022
 0.752  1.433  0.318  0.048 -0.024 -0.021 -0.021
 0.754  1.435  0.320  0.050 -0.023 -0.019 -0.019
 0.756  1.436  0.323  0.052 -0.021 -0.017 -0.017
 0.758  1.439  0.325  0.054 -0.019 -0.016 -0.016
 0.760  1.441  0.329  0.055 -0.018 -0.014 -0.014
 0.762  1.443  0.331  0.058 -0.016 -0.012 -0.012
 0.764  1.446  0.335  0.060 -0.014 -0.010 -0.010
 0.766  1.448  0.339  0.062 -0.012 -0.008 -0.008
 0.768  1.452  0.342  0.065 -0.009 -0.006 -0.006
 0.770  1.455  0.347  0.068 -0.007 -0.004 -0.004
 0.772  1.458  0.351  0.070 -0.005 -0.001 -0.001
 0.774  1.461  0.356  0.074 -0.002  0.001  0.001
 0.776  1.465  0.361  0.077  0.001  0.004  0.004
 0.778  1.468  0.365  0.080  0.003  0.006  0.006
 0.780  1.472  0.370  0.084  0.006  0.009  0.009
 0.782  1.477  0.375  0.087  0.009  0.012  0.012
 0.784  1.481  0.380  0.091  0.012  0.015  0.015
 0.786  1.485  0.385  0.094  0.015  0.017  0.017
 0.788  1.490  0.391  0.098  0.018  0.021  0.021
 0.790  1.496  0.396  0.101  0.022  0.023  0.023
 0.792  1.500  0.401  0.105  0.024  0.026  0.026
 0.794  1.506  0.406  0.108  0.027  0.029  0.029
 0.796  1.512  0.409  0.112  0.031  0.031  0.031
 0.798  1.518  0.414  0.115  0.034  0.034  0.034
 0.800  1.523  0.419  0.119  0.037  0.037  0.037
 0.802  1.529  0.423  0.123  0.040  0.039  0.039
 0.804  1.535  0.426  0.125  0.043  0.042  0.042
 0.806  1.540  0.430  0.129  0.046  0.044  0.044
 0.808  1.544  0.434  0.131  0.048  0.046  0.046
