# IsPeriodic    : True
# Period        : 0.597985 days
# Normalization : <g_mag>=0
# 
# Phase u_mag  g_mag  r_mag  i_mag  z_mag  y_mag
 0.000  0.564 -0.649 -0.600 -0.558 -0.512 -0.512
 0.002  0.564 -0.649 -0.600 -0.558 -0.512 -0.512
 0.004  0.564 -0.649 -0.599 -0.558 -0.511 -0.511
 0.006  0.565 -0.648 -0.598 -0.557 -0.511 -0.511
 0.008  0.566 -0.647 -0.597 -0.557 -0.510 -0.510
 0.010  0.567 -0.646 -0.596 -0.555 -0.510 -0.510
 0.012  0.568 -0.645 -0.594 -0.554 -0.509 -0.509
 0.014  0.569 -0.644 -0.592 -0.552 -0.509 -0.509
 0.016  0.571 -0.642 -0.590 -0.551 -0.508 -0.508
 0.018  0.573 -0.640 -0.587 -0.549 -0.507 -0.507
 0.020  0.575 -0.638 -0.585 -0.548 -0.506 -0.506
 0.022  0.578 -0.636 -0.582 -0.546 -0.505 -0.505
 0.024  0.581 -0.633 -0.580 -0.543 -0.504 -0.504
 0.026  0.584 -0.631 -0.577 -0.541 -0.503 -0.503
 0.028  0.587 -0.628 -0.574 -0.540 -0.502 -0.502
 0.030  0.591 -0.624 -0.572 -0.537 -0.501 -0.501
 0.032  0.595 -0.621 -0.569 -0.535 -0.499 -0.499
 0.034  0.599 -0.617 -0.566 -0.533 -0.498 -0.498
 0.036  0.604 -0.613 -0.564 -0.531 -0.496 -0.496
 0.038  0.608 -0.609 -0.561 -0.529 -0.494 -0.494
 0.040  0.614 -0.605 -0.559 -0.527 -0.492 -0.492
 0.042  0.618 -0.600 -0.556 -0.524 -0.490 -0.490
 0.044  0.624 -0.595 -0.553 -0.522 -0.488 -0.488
 0.046  0.629 -0.590 -0.550 -0.519 -0.486 -0.486
 0.048  0.635 -0.585 -0.546 -0.517 -0.483 -0.483
 0.050  0.641 -0.580 -0.544 -0.515 -0.481 -0.481
 0.052  0.647 -0.574 -0.540 -0.512 -0.478 -0.478
 0.054  0.653 -0.568 -0.537 -0.509 -0.476 -0.476
 0.056  0.659 -0.561 -0.534 -0.506 -0.473 -0.473
 0.058  0.665 -0.555 -0.530 -0.503 -0.470 -0.470
 0.060  0.671 -0.548 -0.526 -0.500 -0.467 -0.467
 0.062  0.677 -0.541 -0.523 -0.497 -0.464 -0.464
 0.064  0.683 -0.534 -0.519 -0.494 -0.461 -0.461
 0.066  0.690 -0.527 -0.515 -0.491 -0.458 -0.458
 0.068  0.695 -0.519 -0.511 -0.487 -0.455 -0.455
 0.070  0.701 -0.512 -0.507 -0.484 -0.452 -0.452
 0.072  0.706 -0.504 -0.503 -0.480 -0.450 -0.450
 0.074  0.712 -0.497 -0.499 -0.477 -0.446 -0.446
 0.076  0.717 -0.489 -0.495 -0.474 -0.444 -0.444
 0.078  0.722 -0.481 -0.491 -0.470 -0.441 -0.441
 0.080  0.727 -0.474 -0.487 -0.467 -0.438 -0.438
 0.082  0.732 -0.466 -0.483 -0.463 -0.435 -0.435
 0.084  0.738 -0.459 -0.479 -0.460 -0.433 -0.433
 0.086  0.742 -0.452 -0.475 -0.457 -0.430 -0.430
 0.088  0.747 -0.445 -0.472 -0.454 -0.427 -0.427
 0.090  0.751 -0.439 -0.467 -0.451 -0.425 -0.425
 0.092  0.757 -0.433 -0.464 -0.448 -0.423 -0.423
 0.094  0.762 -0.426 -0.459 -0.445 -0.420 -0.420
 0.096  0.766 -0.420 -0.456 -0.441 -0.418 -0.418
 0.098  0.771 -0.414 -0.452 -0.438 -0.415 -0.415
 0.100  0.775 -0.408 -0.449 -0.436 -0.413 -0.413
 0.102  0.780 -0.402 -0.445 -0.433 -0.411 -0.411
 0.104  0.784 -0.396 -0.442 -0.431 -0.409 -0.409
 0.106  0.788 -0.390 -0.438 -0.427 -0.407 -0.407
 0.108  0.793 -0.385 -0.434 -0.425 -0.405 -0.405
 0.110  0.797 -0.379 -0.431 -0.423 -0.403 -0.403
 0.112  0.800 -0.374 -0.427 -0.420 -0.401 -0.401
 0.114  0.805 -0.369 -0.424 -0.417 -0.399 -0.399
 0.116  0.809 -0.363 -0.421 -0.415 -0.397 -0.397
 0.118  0.812 -0.358 -0.417 -0.413 -0.395 -0.395
 0.120  0.816 -0.353 -0.414 -0.410 -0.393 -0.393
 0.122  0.820 -0.348 -0.411 -0.408 -0.392 -0.392
 0.124  0.823 -0.344 -0.408 -0.406 -0.390 -0.390
 0.126  0.827 -0.339 -0.405 -0.404 -0.389 -0.389
 0.128  0.831 -0.335 -0.402 -0.402 -0.387 -0.387
 0.130  0.834 -0.331 -0.399 -0.400 -0.385 -0.385
 0.132  0.838 -0.327 -0.396 -0.398 -0.384 -0.384
 0.134  0.842 -0.323 -0.393 -0.396 -0.382 -0.382
 0.136  0.846 -0.319 -0.390 -0.395 -0.381 -0.381
 0.138  0.850 -0.315 -0.387 -0.393 -0.380 -0.380
 0.140  0.854 -0.312 -0.385 -0.391 -0.378 -0.378
 0.142  0.858 -0.308 -0.382 -0.389 -0.377 -0.377
 0.144  0.861 -0.304 -0.380 -0.388 -0.375 -0.375
 0.146  0.865 -0.301 -0.377 -0.386 -0.374 -0.374
 0.148  0.869 -0.298 -0.374 -0.384 -0.373 -0.373
 0.150  0.872 -0.295 -0.372 -0.383 -0.372 -0.372
 0.152  0.876 -0.291 -0.369 -0.381 -0.370 -0.370
 0.154  0.880 -0.288 -0.366 -0.380 -0.368 -0.368
 0.156  0.883 -0.284 -0.364 -0.379 -0.367 -0.367
 0.158  0.887 -0.280 -0.361 -0.377 -0.366 -0.366
 0.160  0.891 -0.277 -0.359 -0.376 -0.364 -0.364
 0.162  0.894 -0.273 -0.357 -0.374 -0.363 -0.363
 0.164  0.898 -0.269 -0.354 -0.373 -0.362 -0.362
 0.166  0.902 -0.266 -0.352 -0.371 -0.360 -0.360
 0.168  0.906 -0.262 -0.349 -0.370 -0.358 -0.358
 0.170  0.910 -0.258 -0.347 -0.368 -0.357 -0.357
 0.172  0.914 -0.254 -0.344 -0.367 -0.356 -0.356
 0.174  0.918 -0.250 -0.342 -0.365 -0.354 -0.354
 0.176  0.921 -0.247 -0.340 -0.364 -0.353 -0.353
 0.178  0.925 -0.243 -0.337 -0.362 -0.351 -0.351
 0.180  0.929 -0.239 -0.335 -0.360 -0.350 -0.350
 0.182  0.932 -0.235 -0.332 -0.359 -0.348 -0.348
 0.184  0.936 -0.231 -0.330 -0.357 -0.347 -0.347
 0.186  0.940 -0.227 -0.327 -0.355 -0.346 -0.346
 0.188  0.944 -0.223 -0.325 -0.354 -0.344 -0.344
 0.190  0.948 -0.219 -0.322 -0.352 -0.342 -0.342
 0.192  0.952 -0.215 -0.320 -0.351 -0.341 -0.341
 0.194  0.955 -0.211 -0.318 -0.349 -0.340 -0.340
 0.196  0.959 -0.207 -0.316 -0.347 -0.338 -0.338
 0.198  0.963 -0.203 -0.313 -0.345 -0.337 -0.337
 0.200  0.966 -0.199 -0.311 -0.344 -0.335 -0.335
 0.202  0.970 -0.195 -0.309 -0.342 -0.333 -0.333
 0.204  0.974 -0.191 -0.307 -0.340 -0.332 -0.332
 0.206  0.978 -0.187 -0.305 -0.339 -0.331 -0.331
 0.208  0.981 -0.183 -0.303 -0.337 -0.329 -0.329
 0.210  0.985 -0.179 -0.300 -0.335 -0.328 -0.328
 0.212  0.989 -0.175 -0.298 -0.334 -0.326 -0.326
 0.214  0.992 -0.170 -0.295 -0.332 -0.324 -0.324
 0.216  0.996 -0.166 -0.293 -0.331 -0.323 -0.323
 0.218  0.999 -0.162 -0.291 -0.329 -0.322 -0.322
 0.220  1.002 -0.158 -0.289 -0.327 -0.320 -0.320
 0.222  1.006 -0.155 -0.287 -0.325 -0.319 -0.319
 0.224  1.010 -0.151 -0.285 -0.323 -0.317 -0.317
 0.226  1.013 -0.147 -0.283 -0.322 -0.315 -0.315
 0.228  1.016 -0.143 -0.280 -0.320 -0.314 -0.314
 0.230  1.020 -0.139 -0.278 -0.318 -0.313 -0.313
 0.232  1.023 -0.135 -0.276 -0.317 -0.311 -0.311
 0.234  1.026 -0.131 -0.274 -0.315 -0.310 -0.310
 0.236  1.030 -0.127 -0.272 -0.314 -0.308 -0.308
 0.238  1.033 -0.124 -0.270 -0.312 -0.306 -0.306
 0.240  1.037 -0.120 -0.268 -0.310 -0.305 -0.305
 0.242  1.039 -0.116 -0.265 -0.309 -0.304 -0.304
 0.244  1.043 -0.113 -0.263 -0.307 -0.302 -0.302
 0.246  1.046 -0.109 -0.261 -0.305 -0.300 -0.300
 0.248  1.050 -0.105 -0.259 -0.304 -0.299 -0.299
 0.250  1.052 -0.102 -0.257 -0.302 -0.297 -0.297
 0.252  1.055 -0.098 -0.255 -0.300 -0.296 -0.296
 0.254  1.059 -0.095 -0.253 -0.299 -0.295 -0.295
 0.256  1.062 -0.091 -0.250 -0.297 -0.293 -0.293
 0.258  1.064 -0.088 -0.248 -0.296 -0.291 -0.291
 0.260  1.068 -0.084 -0.246 -0.294 -0.290 -0.290
 0.262  1.071 -0.081 -0.244 -0.293 -0.288 -0.288
 0.264  1.074 -0.077 -0.242 -0.291 -0.287 -0.287
 0.266  1.076 -0.074 -0.240 -0.289 -0.286 -0.286
 0.268  1.080 -0.071 -0.238 -0.288 -0.284 -0.284
 0.270  1.083 -0.068 -0.236 -0.287 -0.282 -0.282
 0.272  1.086 -0.064 -0.234 -0.285 -0.281 -0.281
 0.274  1.088 -0.061 -0.232 -0.284 -0.279 -0.279
 0.276  1.092 -0.058 -0.230 -0.282 -0.278 -0.278
 0.278  1.095 -0.055 -0.228 -0.281 -0.277 -0.277
 0.280  1.098 -0.052 -0.225 -0.279 -0.275 -0.275
 0.282  1.100 -0.049 -0.223 -0.278 -0.273 -0.273
 0.284  1.103 -0.046 -0.221 -0.276 -0.272 -0.272
 0.286  1.107 -0.043 -0.220 -0.275 -0.271 -0.271
 0.288  1.110 -0.040 -0.218 -0.273 -0.269 -0.269
 0.290  1.112 -0.037 -0.216 -0.272 -0.268 -0.268
 0.292  1.115 -0.034 -0.213 -0.270 -0.267 -0.267
 0.294  1.118 -0.030 -0.211 -0.269 -0.265 -0.265
 0.296  1.122 -0.027 -0.209 -0.267 -0.263 -0.263
 0.298  1.124 -0.024 -0.207 -0.266 -0.262 -0.262
 0.300  1.127 -0.021 -0.206 -0.264 -0.261 -0.261
 0.302  1.130 -0.018 -0.203 -0.263 -0.259 -0.259
 0.304  1.133 -0.016 -0.201 -0.262 -0.258 -0.258
 0.306  1.136 -0.013 -0.199 -0.260 -0.256 -0.256
 0.308  1.139 -0.010 -0.197 -0.259 -0.255 -0.255
 0.310  1.142 -0.007 -0.196 -0.257 -0.254 -0.254
 0.312  1.145 -0.004 -0.193 -0.256 -0.253 -0.253
 0.314  1.147 -0.001 -0.191 -0.254 -0.251 -0.251
 0.316  1.150  0.002 -0.189 -0.253 -0.250 -0.250
 0.318  1.154  0.005 -0.187 -0.251 -0.248 -0.248
 0.320  1.157  0.008 -0.186 -0.250 -0.247 -0.247
 0.322  1.159  0.011 -0.183 -0.248 -0.246 -0.246
 0.324  1.162  0.014 -0.181 -0.247 -0.245 -0.245
 0.326  1.165  0.017 -0.179 -0.245 -0.244 -0.244
 0.328  1.168  0.020 -0.177 -0.243 -0.243 -0.243
 0.330  1.171  0.023 -0.176 -0.242 -0.241 -0.241
 0.332  1.174  0.026 -0.173 -0.240 -0.240 -0.240
 0.334  1.177  0.029 -0.171 -0.239 -0.239 -0.239
 0.336  1.180  0.032 -0.169 -0.237 -0.237 -0.237
 0.338  1.183  0.035 -0.168 -0.236 -0.236 -0.236
 0.340  1.185  0.038 -0.166 -0.234 -0.235 -0.235
 0.342  1.188  0.041 -0.163 -0.233 -0.234 -0.234
 0.344  1.191  0.044 -0.161 -0.231 -0.233 -0.233
 0.346  1.194  0.047 -0.160 -0.229 -0.232 -0.232
 0.348  1.197  0.050 -0.158 -0.228 -0.230 -0.230
 0.350  1.200  0.053 -0.156 -0.226 -0.229 -0.229
 0.352  1.203  0.056 -0.154 -0.225 -0.228 -0.228
 0.354  1.206  0.059 -0.152 -0.223 -0.227 -0.227
 0.356  1.207  0.062 -0.150 -0.222 -0.226 -0.226
 0.358  1.210  0.065 -0.148 -0.220 -0.225 -0.225
 0.360  1.213  0.068 -0.146 -0.219 -0.224 -0.224
 0.362  1.216  0.071 -0.144 -0.217 -0.222 -0.222
 0.364  1.219  0.074 -0.142 -0.215 -0.221 -0.221
 0.366  1.221  0.077 -0.141 -0.214 -0.220 -0.220
 0.368  1.224  0.080 -0.138 -0.212 -0.219 -0.219
 0.370  1.227  0.083 -0.136 -0.211 -0.218 -0.218
 0.372  1.229  0.086 -0.135 -0.209 -0.217 -0.217
 0.374  1.231  0.089 -0.133 -0.208 -0.215 -0.215
 0.376  1.234  0.092 -0.131 -0.206 -0.214 -0.214
 0.378  1.237  0.094 -0.129 -0.205 -0.212 -0.212
 0.380  1.239  0.097 -0.127 -0.203 -0.211 -0.211
 0.382  1.242  0.100 -0.125 -0.201 -0.210 -0.210
 0.384  1.244  0.103 -0.124 -0.200 -0.209 -0.209
 0.386  1.246  0.106 -0.121 -0.198 -0.207 -0.207
 0.388  1.249  0.109 -0.119 -0.197 -0.206 -0.206
 0.390  1.252  0.111 -0.118 -0.195 -0.204 -0.204
 0.392  1.254  0.114 -0.116 -0.194 -0.203 -0.203
 0.394  1.256  0.117 -0.114 -0.192 -0.202 -0.202
 0.396  1.258  0.120 -0.112 -0.191 -0.200 -0.200
 0.398  1.261  0.122 -0.110 -0.189 -0.199 -0.199
 0.400  1.263  0.124 -0.109 -0.188 -0.198 -0.198
 0.402  1.266  0.127 -0.106 -0.187 -0.196 -0.196
 0.404  1.267  0.130 -0.104 -0.185 -0.194 -0.194
 0.406  1.270  0.132 -0.103 -0.184 -0.193 -0.193
 0.408  1.272  0.135 -0.101 -0.183 -0.192 -0.192
 0.410  1.275  0.138 -0.099 -0.181 -0.190 -0.190
 0.412  1.277  0.140 -0.097 -0.180 -0.189 -0.189
 0.414  1.279  0.143 -0.096 -0.178 -0.187 -0.187
 0.416  1.281  0.145 -0.094 -0.176 -0.185 -0.185
 0.418  1.283  0.148 -0.091 -0.175 -0.184 -0.184
 0.420  1.286  0.151 -0.090 -0.174 -0.183 -0.183
 0.422  1.288  0.153 -0.088 -0.172 -0.181 -0.181
 0.424  1.290  0.156 -0.086 -0.171 -0.180 -0.180
 0.426  1.292  0.158 -0.084 -0.170 -0.178 -0.178
 0.428  1.294  0.161 -0.083 -0.168 -0.176 -0.176
 0.430  1.296  0.163 -0.081 -0.167 -0.175 -0.175
 0.432  1.298  0.166 -0.079 -0.166 -0.173 -0.173
 0.434  1.300  0.168 -0.077 -0.164 -0.172 -0.172
 0.436  1.303  0.171 -0.076 -0.163 -0.170 -0.170
 0.438  1.304  0.173 -0.074 -0.161 -0.169 -0.169
 0.440  1.306  0.176 -0.072 -0.160 -0.168 -0.168
 0.442  1.308  0.178 -0.070 -0.159 -0.166 -0.166
 0.444  1.310  0.180 -0.069 -0.158 -0.165 -0.165
 0.446  1.312  0.182 -0.066 -0.156 -0.164 -0.164
 0.448  1.314  0.185 -0.065 -0.155 -0.163 -0.163
 0.450  1.315  0.187 -0.064 -0.153 -0.161 -0.161
 0.452  1.317  0.189 -0.061 -0.152 -0.160 -0.160
 0.454  1.319  0.191 -0.060 -0.151 -0.158 -0.158
 0.456  1.322  0.194 -0.059 -0.149 -0.157 -0.157
 0.458  1.323  0.196 -0.057 -0.148 -0.156 -0.156
 0.460  1.325  0.198 -0.056 -0.147 -0.155 -0.155
 0.462  1.327  0.200 -0.054 -0.145 -0.153 -0.153
 0.464  1.328  0.202 -0.052 -0.144 -0.152 -0.152
 0.466  1.330  0.204 -0.051 -0.142 -0.151 -0.151
 0.468  1.332  0.206 -0.049 -0.141 -0.150 -0.150
 0.470  1.334  0.208 -0.048 -0.140 -0.149 -0.149
 0.472  1.336  0.210 -0.047 -0.138 -0.148 -0.148
 0.474  1.338  0.211 -0.045 -0.137 -0.147 -0.147
 0.476  1.339  0.213 -0.044 -0.136 -0.146 -0.146
 0.478  1.340  0.215 -0.042 -0.134 -0.145 -0.145
 0.480  1.342  0.217 -0.042 -0.133 -0.144 -0.144
 0.482  1.344  0.219 -0.040 -0.131 -0.143 -0.143
 0.484  1.346  0.221 -0.039 -0.130 -0.142 -0.142
 0.486  1.347  0.222 -0.037 -0.129 -0.141 -0.141
 0.488  1.349  0.224 -0.036 -0.127 -0.140 -0.140
 0.490  1.351  0.226 -0.035 -0.126 -0.139 -0.139
 0.492  1.351  0.227 -0.034 -0.125 -0.138 -0.138
 0.494  1.353  0.229 -0.032 -0.123 -0.138 -0.138
 0.496  1.354  0.230 -0.032 -0.122 -0.137 -0.137
 0.498  1.356  0.232 -0.030 -0.120 -0.136 -0.136
 0.500  1.357  0.233 -0.029 -0.119 -0.135 -0.135
 0.502  1.359  0.235 -0.028 -0.117 -0.134 -0.134
 0.504  1.360  0.236 -0.027 -0.116 -0.133 -0.133
 0.506  1.362  0.238 -0.026 -0.115 -0.132 -0.132
 0.508  1.363  0.239 -0.024 -0.114 -0.132 -0.132
 0.510  1.363  0.241 -0.024 -0.113 -0.131 -0.131
 0.512  1.365  0.242 -0.022 -0.111 -0.130 -0.130
 0.514  1.366  0.243 -0.022 -0.110 -0.129 -0.129
 0.516  1.367  0.244 -0.021 -0.109 -0.129 -0.129
 0.518  1.369  0.246 -0.019 -0.108 -0.127 -0.127
 0.520  1.370  0.247 -0.019 -0.106 -0.127 -0.127
 0.522  1.371  0.248 -0.017 -0.105 -0.126 -0.126
 0.524  1.372  0.249 -0.017 -0.104 -0.125 -0.125
 0.526  1.373  0.250 -0.016 -0.103 -0.124 -0.124
 0.528  1.374  0.251 -0.015 -0.102 -0.124 -0.124
 0.530  1.375  0.252 -0.014 -0.101 -0.123 -0.123
 0.532  1.375  0.253 -0.013 -0.100 -0.122 -0.122
 0.534  1.376  0.254 -0.012 -0.099 -0.122 -0.122
 0.536  1.377  0.255 -0.011 -0.098 -0.121 -0.121
 0.538  1.378  0.256 -0.010 -0.097 -0.120 -0.120
 0.540  1.379  0.256 -0.009 -0.097 -0.120 -0.120
 0.542  1.380  0.257 -0.009 -0.095 -0.118 -0.118
 0.544  1.381  0.258 -0.008 -0.095 -0.118 -0.118
 0.546  1.382  0.259 -0.007 -0.094 -0.117 -0.117
 0.548  1.383  0.259 -0.006 -0.094 -0.116 -0.116
 0.550  1.383  0.260 -0.005 -0.092 -0.116 -0.116
 0.552  1.384  0.260 -0.004 -0.092 -0.115 -0.115
 0.554  1.385  0.261 -0.004 -0.091 -0.115 -0.115
 0.556  1.385  0.262 -0.003 -0.091 -0.114 -0.114
 0.558  1.386  0.262 -0.002 -0.090 -0.113 -0.113
 0.560  1.387  0.262 -0.002 -0.090 -0.113 -0.113
 0.562  1.387  0.263 -0.001 -0.089 -0.112 -0.112
 0.564  1.387  0.263 -0.000 -0.089 -0.111 -0.111
 0.566  1.387  0.264  0.001 -0.088 -0.111 -0.111
 0.568  1.387  0.264  0.001 -0.088 -0.110 -0.110
 0.570  1.388  0.264  0.002 -0.088 -0.109 -0.109
 0.572  1.388  0.265  0.003 -0.087 -0.109 -0.109
 0.574  1.389  0.265  0.003 -0.087 -0.108 -0.108
 0.576  1.389  0.265  0.004 -0.086 -0.107 -0.107
 0.578  1.389  0.265  0.005 -0.086 -0.107 -0.107
 0.580  1.389  0.265  0.006 -0.086 -0.106 -0.106
 0.582  1.389  0.265  0.006 -0.086 -0.106 -0.106
 0.584  1.389  0.265  0.007 -0.085 -0.105 -0.105
 0.586  1.390  0.265  0.007 -0.085 -0.105 -0.105
 0.588  1.390  0.265  0.008 -0.085 -0.104 -0.104
 0.590  1.390  0.265  0.008 -0.084 -0.104 -0.104
 0.592  1.390  0.265  0.009 -0.084 -0.103 -0.103
 0.594  1.389  0.265  0.009 -0.084 -0.103 -0.103
 0.596  1.389  0.265  0.010 -0.084 -0.102 -0.102
 0.598  1.389  0.265  0.011 -0.083 -0.101 -0.101
 0.600  1.389  0.265  0.011 -0.083 -0.101 -0.101
 0.602  1.389  0.265  0.011 -0.083 -0.100 -0.100
 0.604  1.389  0.265  0.012 -0.083 -0.100 -0.100
 0.606  1.388  0.265  0.012 -0.083 -0.099 -0.099
 0.608  1.388  0.265  0.013 -0.082 -0.099 -0.099
 0.610  1.388  0.265  0.013 -0.082 -0.098 -0.098
 0.612  1.387  0.265  0.013 -0.081 -0.098 -0.098
 0.614  1.387  0.265  0.013 -0.081 -0.097 -0.097
 0.616  1.387  0.265  0.014 -0.081 -0.097 -0.097
 0.618  1.387  0.265  0.014 -0.081 -0.096 -0.096
 0.620  1.386  0.265  0.015 -0.081 -0.096 -0.096
 0.622  1.385  0.265  0.015 -0.080 -0.095 -0.095
 0.624  1.385  0.265  0.015 -0.080 -0.095 -0.095
 0.626  1.384  0.265  0.016 -0.080 -0.094 -0.094
 0.628  1.384  0.265  0.016 -0.080 -0.094 -0.094
 0.630  1.383  0.265  0.016 -0.080 -0.093 -0.093
 0.632  1.383  0.264  0.016 -0.080 -0.092 -0.092
 0.634  1.382  0.264  0.016 -0.079 -0.092 -0.092
 0.636  1.382  0.264  0.016 -0.079 -0.092 -0.092
 0.638  1.381  0.264  0.016 -0.078 -0.091 -0.091
 0.640  1.381  0.263  0.016 -0.078 -0.091 -0.091
 0.642  1.380  0.263  0.017 -0.078 -0.090 -0.090
 0.644  1.380  0.263  0.017 -0.078 -0.090 -0.090
 0.646  1.380  0.262  0.017 -0.078 -0.090 -0.090
 0.648  1.379  0.262  0.017 -0.078 -0.089 -0.089
 0.650  1.379  0.261  0.017 -0.077 -0.089 -0.089
 0.652  1.379  0.261  0.017 -0.077 -0.088 -0.088
 0.654  1.378  0.260  0.017 -0.077 -0.088 -0.088
 0.656  1.378  0.260  0.017 -0.077 -0.088 -0.088
 0.658  1.378  0.259  0.017 -0.077 -0.087 -0.087
 0.660  1.377  0.259  0.017 -0.077 -0.087 -0.087
 0.662  1.377  0.258  0.017 -0.077 -0.087 -0.087
 0.664  1.377  0.258  0.017 -0.077 -0.086 -0.086
 0.666  1.377  0.257  0.017 -0.077 -0.086 -0.086
 0.668  1.377  0.257  0.016 -0.076 -0.086 -0.086
 0.670  1.376  0.256  0.016 -0.076 -0.086 -0.086
 0.672  1.376  0.255  0.016 -0.076 -0.085 -0.085
 0.674  1.376  0.255  0.016 -0.076 -0.085 -0.085
 0.676  1.376  0.254  0.016 -0.076 -0.085 -0.085
 0.678  1.376  0.254  0.016 -0.076 -0.084 -0.084
 0.680  1.376  0.253  0.016 -0.076 -0.084 -0.084
 0.682  1.376  0.252  0.015 -0.076 -0.083 -0.083
 0.684  1.376  0.251  0.015 -0.076 -0.083 -0.083
 0.686  1.376  0.251  0.014 -0.076 -0.083 -0.083
 0.688  1.376  0.250  0.014 -0.076 -0.083 -0.083
 0.690  1.376  0.249  0.013 -0.076 -0.082 -0.082
 0.692  1.376  0.248  0.013 -0.076 -0.082 -0.082
 0.694  1.376  0.247  0.013 -0.076 -0.082 -0.082
 0.696  1.376  0.246  0.013 -0.077 -0.082 -0.082
 0.698  1.376  0.245  0.012 -0.077 -0.082 -0.082
 0.700  1.376  0.244  0.012 -0.077 -0.081 -0.081
 0.702  1.376  0.244  0.011 -0.077 -0.081 -0.081
 0.704  1.376  0.243  0.011 -0.077 -0.081 -0.081
 0.706  1.376  0.242  0.011 -0.077 -0.081 -0.081
 0.708  1.376  0.241  0.010 -0.077 -0.081 -0.081
 0.710  1.377  0.240  0.009 -0.077 -0.080 -0.080
 0.712  1.377  0.239  0.008 -0.078 -0.080 -0.080
 0.714  1.377  0.238  0.008 -0.078 -0.080 -0.080
 0.716  1.377  0.237  0.007 -0.078 -0.079 -0.079
 0.718  1.377  0.236  0.006 -0.078 -0.079 -0.079
 0.720  1.377  0.236  0.006 -0.078 -0.078 -0.078
 0.722  1.377  0.235  0.006 -0.078 -0.078 -0.078
 0.724  1.378  0.234  0.005 -0.078 -0.077 -0.077
 0.726  1.378  0.234  0.004 -0.078 -0.077 -0.077
 0.728  1.378  0.234  0.004 -0.078 -0.076 -0.076
 0.730  1.378  0.233  0.004 -0.078 -0.075 -0.075
 0.732  1.379  0.233  0.004 -0.078 -0.074 -0.074
 0.734  1.379  0.233  0.004 -0.078 -0.073 -0.073
 0.736  1.379  0.233  0.004 -0.078 -0.073 -0.073
 0.738  1.380  0.234  0.005 -0.077 -0.072 -0.072
 0.740  1.380  0.234  0.005 -0.077 -0.071 -0.071
 0.742  1.380  0.234  0.006 -0.077 -0.070 -0.070
 0.744  1.381  0.235  0.006 -0.076 -0.069 -0.069
 0.746  1.381  0.236  0.007 -0.075 -0.068 -0.068
 0.748  1.381  0.236  0.008 -0.075 -0.066 -0.066
 0.750  1.382  0.237  0.009 -0.074 -0.065 -0.065
 0.752  1.382  0.238  0.011 -0.073 -0.064 -0.064
 0.754  1.382  0.239  0.012 -0.072 -0.062 -0.062
 0.756  1.382  0.240  0.013 -0.071 -0.061 -0.061
 0.758  1.383  0.242  0.014 -0.070 -0.060 -0.060
 0.760  1.383  0.243  0.016 -0.069 -0.058 -0.058
 0.762  1.384  0.244  0.018 -0.068 -0.056 -0.056
 0.764  1.384  0.246  0.020 -0.067 -0.055 -0.055
 0.766  1.385  0.247  0.021 -0.066 -0.053 -0.053
 0.768  1.385  0.249  0.023 -0.064 -0.052 -0.052
 0.770  1.386  0.251  0.026 -0.063 -0.050 -0.050
 0.772  1.387  0.253  0.028 -0.061 -0.048 -0.048
 0.774  1.387  0.255  0.031 -0.060 -0.046 -0.046
 0.776  1.388  0.257  0.033 -0.058 -0.044 -0.044
 0.778  1.390  0.260  0.037 -0.056 -0.043 -0.043
 0.780  1.391  0.262  0.040 -0.054 -0.040 -0.040
 0.782  1.393  0.264  0.043 -0.052 -0.039 -0.039
 0.784  1.394  0.266  0.045 -0.050 -0.037 -0.037
 0.786  1.396  0.268  0.049 -0.049 -0.035 -0.035
 0.788  1.398  0.271  0.052 -0.047 -0.033 -0.033
 0.790  1.399  0.273  0.055 -0.044 -0.031 -0.031
 0.792  1.401  0.276  0.059 -0.042 -0.029 -0.029
 0.794  1.403  0.278  0.062 -0.041 -0.027 -0.027
 0.796  1.406  0.281  0.065 -0.038 -0.026 -0.026
 0.798  1.408  0.283  0.068 -0.036 -0.023 -0.023
 0.800  1.411  0.286  0.072 -0.034 -0.022 -0.022
 0.802  1.413  0.288  0.075 -0.031 -0.020 -0.020
 0.804  1.415  0.291  0.078 -0.030 -0.018 -0.018
 0.806  1.418  0.293  0.081 -0.027 -0.017 -0.017
 0.808  1.422  0.295  0.084 -0.025 -0.014 -0.014
