# IsPeriodic    : True
# Period        : 0.485873 days
# Normalization : <g_mag>=0
# 
# Phase u_mag  g_mag  r_mag  i_mag  z_mag  y_mag
 0.000  0.731 -0.424 -0.327 -0.320 -0.307 -0.307
 0.002  0.731 -0.424 -0.327 -0.320 -0.307 -0.307
 0.004  0.732 -0.424 -0.327 -0.320 -0.306 -0.306
 0.006  0.732 -0.424 -0.327 -0.319 -0.306 -0.306
 0.008  0.733 -0.423 -0.327 -0.319 -0.305 -0.305
 0.010  0.734 -0.422 -0.326 -0.318 -0.304 -0.304
 0.012  0.736 -0.422 -0.326 -0.318 -0.304 -0.304
 0.014  0.737 -0.421 -0.325 -0.317 -0.302 -0.302
 0.016  0.739 -0.420 -0.325 -0.316 -0.302 -0.302
 0.018  0.741 -0.419 -0.324 -0.315 -0.300 -0.300
 0.020  0.743 -0.418 -0.324 -0.314 -0.299 -0.299
 0.022  0.745 -0.417 -0.323 -0.313 -0.298 -0.298
 0.024  0.747 -0.416 -0.322 -0.312 -0.297 -0.297
 0.026  0.749 -0.414 -0.321 -0.311 -0.295 -0.295
 0.028  0.751 -0.413 -0.320 -0.310 -0.294 -0.294
 0.030  0.754 -0.411 -0.319 -0.309 -0.293 -0.293
 0.032  0.757 -0.410 -0.318 -0.308 -0.292 -0.292
 0.034  0.759 -0.408 -0.317 -0.307 -0.291 -0.291
 0.036  0.761 -0.406 -0.316 -0.306 -0.290 -0.290
 0.038  0.764 -0.405 -0.315 -0.305 -0.289 -0.289
 0.040  0.766 -0.403 -0.314 -0.304 -0.288 -0.288
 0.042  0.769 -0.401 -0.312 -0.303 -0.287 -0.287
 0.044  0.772 -0.399 -0.311 -0.302 -0.286 -0.286
 0.046  0.774 -0.397 -0.309 -0.301 -0.285 -0.285
 0.048  0.777 -0.395 -0.308 -0.300 -0.284 -0.284
 0.050  0.780 -0.392 -0.306 -0.299 -0.283 -0.283
 0.052  0.782 -0.389 -0.304 -0.297 -0.282 -0.282
 0.054  0.786 -0.387 -0.302 -0.297 -0.281 -0.281
 0.056  0.788 -0.384 -0.301 -0.295 -0.280 -0.280
 0.058  0.791 -0.382 -0.299 -0.295 -0.279 -0.279
 0.060  0.794 -0.379 -0.297 -0.293 -0.278 -0.278
 0.062  0.797 -0.376 -0.295 -0.292 -0.277 -0.277
 0.064  0.801 -0.373 -0.293 -0.291 -0.276 -0.276
 0.066  0.804 -0.370 -0.291 -0.290 -0.275 -0.275
 0.068  0.807 -0.367 -0.288 -0.289 -0.274 -0.274
 0.070  0.811 -0.364 -0.286 -0.288 -0.273 -0.273
 0.072  0.814 -0.360 -0.284 -0.287 -0.272 -0.272
 0.074  0.817 -0.357 -0.281 -0.286 -0.271 -0.271
 0.076  0.821 -0.354 -0.279 -0.285 -0.270 -0.270
 0.078  0.824 -0.351 -0.277 -0.284 -0.269 -0.269
 0.080  0.828 -0.347 -0.274 -0.282 -0.269 -0.269
 0.082  0.832 -0.343 -0.272 -0.281 -0.268 -0.268
 0.084  0.835 -0.340 -0.270 -0.280 -0.267 -0.267
 0.086  0.839 -0.337 -0.268 -0.279 -0.266 -0.266
 0.088  0.842 -0.333 -0.265 -0.278 -0.265 -0.265
 0.090  0.846 -0.330 -0.263 -0.277 -0.264 -0.264
 0.092  0.849 -0.327 -0.261 -0.276 -0.263 -0.263
 0.094  0.853 -0.324 -0.259 -0.275 -0.262 -0.262
 0.096  0.857 -0.320 -0.257 -0.273 -0.261 -0.261
 0.098  0.861 -0.317 -0.255 -0.272 -0.260 -0.260
 0.100  0.864 -0.313 -0.253 -0.271 -0.259 -0.259
 0.102  0.868 -0.311 -0.251 -0.270 -0.258 -0.258
 0.104  0.871 -0.307 -0.250 -0.269 -0.257 -0.257
 0.106  0.875 -0.304 -0.248 -0.267 -0.255 -0.255
 0.108  0.878 -0.301 -0.246 -0.266 -0.254 -0.254
 0.110  0.882 -0.297 -0.244 -0.265 -0.253 -0.253
 0.112  0.885 -0.294 -0.242 -0.263 -0.252 -0.252
 0.114  0.888 -0.292 -0.240 -0.262 -0.251 -0.251
 0.116  0.891 -0.288 -0.239 -0.261 -0.250 -0.250
 0.118  0.895 -0.285 -0.237 -0.259 -0.248 -0.248
 0.120  0.898 -0.282 -0.235 -0.258 -0.247 -0.247
 0.122  0.901 -0.279 -0.234 -0.257 -0.246 -0.246
 0.124  0.904 -0.276 -0.232 -0.255 -0.244 -0.244
 0.126  0.907 -0.273 -0.231 -0.254 -0.243 -0.243
 0.128  0.911 -0.270 -0.230 -0.252 -0.242 -0.242
 0.130  0.913 -0.267 -0.228 -0.251 -0.240 -0.240
 0.132  0.916 -0.264 -0.227 -0.249 -0.239 -0.239
 0.134  0.920 -0.261 -0.225 -0.248 -0.237 -0.237
 0.136  0.922 -0.258 -0.224 -0.246 -0.236 -0.236
 0.138  0.926 -0.255 -0.223 -0.244 -0.234 -0.234
 0.140  0.928 -0.252 -0.222 -0.243 -0.233 -0.233
 0.142  0.931 -0.249 -0.220 -0.242 -0.231 -0.231
 0.144  0.934 -0.246 -0.219 -0.240 -0.230 -0.230
 0.146  0.937 -0.243 -0.218 -0.238 -0.228 -0.228
 0.148  0.940 -0.241 -0.217 -0.237 -0.227 -0.227
 0.150  0.942 -0.238 -0.216 -0.235 -0.225 -0.225
 0.152  0.945 -0.235 -0.214 -0.233 -0.223 -0.223
 0.154  0.947 -0.232 -0.213 -0.232 -0.222 -0.222
 0.156  0.950 -0.229 -0.212 -0.230 -0.220 -0.220
 0.158  0.953 -0.227 -0.211 -0.228 -0.218 -0.218
 0.160  0.955 -0.224 -0.210 -0.226 -0.217 -0.217
 0.162  0.958 -0.221 -0.208 -0.224 -0.215 -0.215
 0.164  0.961 -0.218 -0.207 -0.223 -0.213 -0.213
 0.166  0.963 -0.215 -0.206 -0.221 -0.212 -0.212
 0.168  0.966 -0.212 -0.204 -0.219 -0.210 -0.210
 0.170  0.968 -0.209 -0.203 -0.218 -0.209 -0.209
 0.172  0.971 -0.205 -0.201 -0.216 -0.207 -0.207
 0.174  0.974 -0.202 -0.200 -0.214 -0.206 -0.206
 0.176  0.976 -0.200 -0.198 -0.213 -0.204 -0.204
 0.178  0.979 -0.197 -0.197 -0.211 -0.203 -0.203
 0.180  0.982 -0.194 -0.195 -0.210 -0.201 -0.201
 0.182  0.985 -0.190 -0.194 -0.208 -0.200 -0.200
 0.184  0.988 -0.187 -0.192 -0.207 -0.199 -0.199
 0.186  0.990 -0.184 -0.191 -0.205 -0.197 -0.197
 0.188  0.993 -0.181 -0.190 -0.204 -0.196 -0.196
 0.190  0.995 -0.178 -0.188 -0.202 -0.195 -0.195
 0.192  0.999 -0.175 -0.186 -0.201 -0.194 -0.194
 0.194  1.001 -0.172 -0.184 -0.199 -0.192 -0.192
 0.196  1.004 -0.168 -0.183 -0.198 -0.191 -0.191
 0.198  1.007 -0.165 -0.181 -0.197 -0.190 -0.190
 0.200  1.010 -0.162 -0.179 -0.196 -0.189 -0.189
 0.202  1.013 -0.159 -0.177 -0.194 -0.188 -0.188
 0.204  1.016 -0.156 -0.176 -0.193 -0.187 -0.187
 0.206  1.018 -0.152 -0.174 -0.192 -0.186 -0.186
 0.208  1.022 -0.149 -0.172 -0.191 -0.184 -0.184
 0.210  1.024 -0.145 -0.170 -0.189 -0.184 -0.184
 0.212  1.028 -0.143 -0.169 -0.188 -0.182 -0.182
 0.214  1.031 -0.139 -0.167 -0.187 -0.182 -0.182
 0.216  1.034 -0.135 -0.165 -0.186 -0.181 -0.181
 0.218  1.037 -0.132 -0.163 -0.185 -0.180 -0.180
 0.220  1.040 -0.129 -0.161 -0.184 -0.179 -0.179
 0.222  1.043 -0.126 -0.159 -0.182 -0.178 -0.178
 0.224  1.046 -0.122 -0.157 -0.181 -0.177 -0.177
 0.226  1.049 -0.119 -0.155 -0.180 -0.176 -0.176
 0.228  1.052 -0.116 -0.153 -0.179 -0.176 -0.176
 0.230  1.055 -0.112 -0.151 -0.178 -0.175 -0.175
 0.232  1.059 -0.109 -0.149 -0.177 -0.174 -0.174
 0.234  1.061 -0.105 -0.148 -0.176 -0.173 -0.173
 0.236  1.065 -0.102 -0.146 -0.175 -0.172 -0.172
 0.238  1.068 -0.099 -0.144 -0.174 -0.171 -0.171
 0.240  1.070 -0.096 -0.142 -0.173 -0.171 -0.171
 0.242  1.074 -0.092 -0.140 -0.172 -0.170 -0.170
 0.244  1.076 -0.089 -0.138 -0.171 -0.169 -0.169
 0.246  1.080 -0.086 -0.136 -0.170 -0.168 -0.168
 0.248  1.082 -0.083 -0.134 -0.169 -0.167 -0.167
 0.250  1.086 -0.079 -0.132 -0.168 -0.166 -0.166
 0.252  1.088 -0.076 -0.130 -0.166 -0.165 -0.165
 0.254  1.091 -0.072 -0.128 -0.165 -0.164 -0.164
 0.256  1.094 -0.070 -0.126 -0.164 -0.163 -0.163
 0.258  1.096 -0.066 -0.124 -0.163 -0.162 -0.162
 0.260  1.099 -0.063 -0.122 -0.161 -0.161 -0.161
 0.262  1.101 -0.059 -0.120 -0.160 -0.160 -0.160
 0.264  1.104 -0.056 -0.118 -0.159 -0.159 -0.159
 0.266  1.107 -0.053 -0.116 -0.158 -0.158 -0.158
 0.268  1.109 -0.050 -0.114 -0.156 -0.157 -0.157
 0.270  1.112 -0.046 -0.112 -0.155 -0.156 -0.156
 0.272  1.115 -0.043 -0.110 -0.154 -0.154 -0.154
 0.274  1.117 -0.040 -0.108 -0.152 -0.153 -0.153
 0.276  1.120 -0.037 -0.107 -0.151 -0.152 -0.152
 0.278  1.122 -0.034 -0.105 -0.150 -0.151 -0.151
 0.280  1.124 -0.030 -0.103 -0.148 -0.150 -0.150
 0.282  1.127 -0.027 -0.101 -0.147 -0.149 -0.149
 0.284  1.129 -0.023 -0.099 -0.145 -0.147 -0.147
 0.286  1.132 -0.021 -0.097 -0.144 -0.146 -0.146
 0.288  1.134 -0.018 -0.095 -0.142 -0.145 -0.145
 0.290  1.136 -0.014 -0.093 -0.141 -0.144 -0.144
 0.292  1.138 -0.011 -0.091 -0.139 -0.142 -0.142
 0.294  1.140 -0.008 -0.089 -0.138 -0.141 -0.141
 0.296  1.142 -0.005 -0.087 -0.136 -0.139 -0.139
 0.298  1.145 -0.002 -0.086 -0.134 -0.138 -0.138
 0.300  1.147  0.001 -0.084 -0.133 -0.137 -0.137
 0.302  1.149  0.004 -0.082 -0.131 -0.136 -0.136
 0.304  1.151  0.007 -0.080 -0.130 -0.134 -0.134
 0.306  1.153  0.010 -0.078 -0.128 -0.133 -0.133
 0.308  1.155  0.013 -0.076 -0.126 -0.132 -0.132
 0.310  1.157  0.016 -0.074 -0.125 -0.131 -0.131
 0.312  1.159  0.019 -0.072 -0.123 -0.129 -0.129
 0.314  1.161  0.021 -0.071 -0.121 -0.128 -0.128
 0.316  1.163  0.024 -0.069 -0.120 -0.127 -0.127
 0.318  1.165  0.027 -0.067 -0.118 -0.126 -0.126
 0.320  1.167  0.029 -0.065 -0.117 -0.124 -0.124
 0.322  1.169  0.032 -0.064 -0.115 -0.123 -0.123
 0.324  1.171  0.034 -0.062 -0.113 -0.122 -0.122
 0.326  1.173  0.037 -0.061 -0.112 -0.121 -0.121
 0.328  1.175  0.039 -0.059 -0.110 -0.120 -0.120
 0.330  1.178  0.042 -0.057 -0.109 -0.119 -0.119
 0.332  1.180  0.044 -0.056 -0.107 -0.118 -0.118
 0.334  1.182  0.047 -0.054 -0.106 -0.116 -0.116
 0.336  1.184  0.050 -0.052 -0.104 -0.115 -0.115
 0.338  1.186  0.052 -0.051 -0.103 -0.114 -0.114
 0.340  1.188  0.054 -0.049 -0.101 -0.113 -0.113
 0.342  1.190  0.056 -0.047 -0.100 -0.112 -0.112
 0.344  1.192  0.058 -0.046 -0.098 -0.111 -0.111
 0.346  1.194  0.060 -0.044 -0.097 -0.110 -0.110
 0.348  1.196  0.063 -0.043 -0.095 -0.109 -0.109
 0.350  1.198  0.065 -0.042 -0.094 -0.108 -0.108
 0.352  1.200  0.067 -0.040 -0.092 -0.107 -0.107
 0.354  1.202  0.069 -0.039 -0.091 -0.106 -0.106
 0.356  1.204  0.071 -0.037 -0.089 -0.105 -0.105
 0.358  1.206  0.073 -0.036 -0.088 -0.104 -0.104
 0.360  1.208  0.074 -0.034 -0.086 -0.104 -0.104
 0.362  1.210  0.077 -0.033 -0.085 -0.103 -0.103
 0.364  1.213  0.079 -0.032 -0.083 -0.102 -0.102
 0.366  1.215  0.080 -0.030 -0.082 -0.101 -0.101
 0.368  1.217  0.082 -0.029 -0.081 -0.100 -0.100
 0.370  1.219  0.085 -0.027 -0.079 -0.099 -0.099
 0.372  1.220  0.086 -0.026 -0.078 -0.098 -0.098
 0.374  1.222  0.088 -0.024 -0.076 -0.098 -0.098
 0.376  1.224  0.090 -0.023 -0.075 -0.097 -0.097
 0.378  1.226  0.093 -0.022 -0.074 -0.096 -0.096
 0.380  1.228  0.094 -0.020 -0.072 -0.095 -0.095
 0.382  1.230  0.096 -0.019 -0.071 -0.094 -0.094
 0.384  1.233  0.098 -0.017 -0.070 -0.093 -0.093
 0.386  1.235  0.101 -0.016 -0.068 -0.092 -0.092
 0.388  1.237  0.103 -0.014 -0.067 -0.091 -0.091
 0.390  1.239  0.104 -0.013 -0.065 -0.091 -0.091
 0.392  1.241  0.107 -0.011 -0.064 -0.089 -0.089
 0.394  1.242  0.109 -0.010 -0.063 -0.089 -0.089
 0.396  1.244  0.111 -0.008 -0.061 -0.088 -0.088
 0.398  1.246  0.113 -0.007 -0.060 -0.087 -0.087
 0.400  1.248  0.115 -0.005 -0.059 -0.086 -0.086
 0.402  1.250  0.117 -0.003 -0.057 -0.084 -0.084
 0.404  1.252  0.120 -0.002 -0.056 -0.084 -0.084
 0.406  1.254  0.122 -0.001 -0.055 -0.083 -0.083
 0.408  1.256  0.124  0.001 -0.054 -0.081 -0.081
 0.410  1.258  0.126  0.002 -0.052 -0.081 -0.081
 0.412  1.259  0.128  0.004 -0.051 -0.079 -0.079
 0.414  1.261  0.131  0.006 -0.050 -0.078 -0.078
 0.416  1.263  0.134  0.007 -0.048 -0.078 -0.078
 0.418  1.265  0.136  0.009 -0.047 -0.076 -0.076
 0.420  1.267  0.138  0.011 -0.046 -0.075 -0.075
 0.422  1.269  0.140  0.012 -0.045 -0.074 -0.074
 0.424  1.271  0.142  0.014 -0.044 -0.073 -0.073
 0.426  1.272  0.145  0.015 -0.042 -0.072 -0.072
 0.428  1.274  0.147  0.017 -0.041 -0.071 -0.071
 0.430  1.276  0.150  0.019 -0.040 -0.070 -0.070
 0.432  1.278  0.152  0.020 -0.039 -0.068 -0.068
 0.434  1.279  0.155  0.021 -0.037 -0.067 -0.067
 0.436  1.281  0.157  0.023 -0.036 -0.066 -0.066
 0.438  1.282  0.159  0.025 -0.035 -0.065 -0.065
 0.440  1.284  0.161  0.026 -0.034 -0.064 -0.064
 0.442  1.286  0.163  0.028 -0.033 -0.063 -0.063
 0.444  1.288  0.166  0.029 -0.032 -0.061 -0.061
 0.446  1.290  0.168  0.031 -0.030 -0.060 -0.060
 0.448  1.291  0.170  0.032 -0.029 -0.059 -0.059
 0.450  1.292  0.172  0.033 -0.028 -0.058 -0.058
 0.452  1.294  0.174  0.035 -0.027 -0.057 -0.057
 0.454  1.296  0.177  0.036 -0.026 -0.056 -0.056
 0.456  1.297  0.179  0.037 -0.025 -0.054 -0.054
 0.458  1.299  0.180  0.039 -0.023 -0.054 -0.054
 0.460  1.300  0.182  0.040 -0.022 -0.053 -0.053
 0.462  1.301  0.185  0.041 -0.021 -0.051 -0.051
 0.464  1.303  0.186  0.042 -0.020 -0.050 -0.050
 0.466  1.304  0.188  0.043 -0.019 -0.049 -0.049
 0.468  1.305  0.190  0.044 -0.018 -0.048 -0.048
 0.470  1.307  0.191  0.045 -0.017 -0.047 -0.047
 0.472  1.308  0.193  0.046 -0.015 -0.046 -0.046
 0.474  1.309  0.195  0.047 -0.015 -0.045 -0.045
 0.476  1.311  0.196  0.048 -0.013 -0.044 -0.044
 0.478  1.312  0.199  0.049 -0.012 -0.043 -0.043
 0.480  1.313  0.200  0.050 -0.011 -0.043 -0.043
 0.482  1.314  0.201  0.051 -0.010 -0.042 -0.042
 0.484  1.315  0.203  0.052 -0.009 -0.041 -0.041
 0.486  1.317  0.204  0.053 -0.007 -0.040 -0.040
 0.488  1.317  0.206  0.053 -0.007 -0.039 -0.039
 0.490  1.319  0.207  0.054 -0.005 -0.038 -0.038
 0.492  1.319  0.209  0.055 -0.004 -0.038 -0.038
 0.494  1.320  0.210  0.056 -0.003 -0.036 -0.036
 0.496  1.321  0.211  0.056 -0.002 -0.036 -0.036
 0.498  1.322  0.212  0.057 -0.001 -0.035 -0.035
 0.500  1.322  0.214  0.058  0.001 -0.034 -0.034
 0.502  1.324  0.215  0.058  0.001 -0.033 -0.033
 0.504  1.324  0.216  0.059  0.003 -0.033 -0.033
 0.506  1.325  0.217  0.060  0.004 -0.032 -0.032
 0.508  1.326  0.218  0.060  0.005 -0.031 -0.031
 0.510  1.326  0.219  0.061  0.006 -0.031 -0.031
 0.512  1.327  0.220  0.061  0.007 -0.030 -0.030
 0.514  1.328  0.221  0.061  0.008 -0.029 -0.029
 0.516  1.328  0.223  0.062  0.009 -0.029 -0.029
 0.518  1.329  0.223  0.063  0.010 -0.028 -0.028
 0.520  1.330  0.225  0.063  0.011 -0.027 -0.027
 0.522  1.330  0.226  0.064  0.013 -0.027 -0.027
 0.524  1.331  0.226  0.065  0.013 -0.026 -0.026
 0.526  1.332  0.228  0.065  0.015 -0.025 -0.025
 0.528  1.332  0.228  0.066  0.016 -0.025 -0.025
 0.530  1.332  0.230  0.067  0.017 -0.024 -0.024
 0.532  1.333  0.231  0.067  0.018 -0.023 -0.023
 0.534  1.334  0.231  0.068  0.019 -0.023 -0.023
 0.536  1.334  0.233  0.069  0.020 -0.022 -0.022
 0.538  1.335  0.234  0.069  0.021 -0.022 -0.022
 0.540  1.336  0.234  0.070  0.022 -0.021 -0.021
 0.542  1.336  0.236  0.071  0.023 -0.020 -0.020
 0.544  1.336  0.237  0.072  0.024 -0.020 -0.020
 0.546  1.337  0.237  0.072  0.025 -0.019 -0.019
 0.548  1.338  0.238  0.073  0.026 -0.019 -0.019
 0.550  1.338  0.239  0.074  0.026 -0.018 -0.018
 0.552  1.338  0.240  0.074  0.028 -0.018 -0.018
 0.554  1.339  0.241  0.075  0.028 -0.017 -0.017
 0.556  1.340  0.242  0.076  0.029 -0.016 -0.016
 0.558  1.340  0.242  0.077  0.030 -0.016 -0.016
 0.560  1.340  0.244  0.077  0.031 -0.015 -0.015
 0.562  1.341  0.245  0.078  0.032 -0.014 -0.014
 0.564  1.342  0.245  0.079  0.033 -0.014 -0.014
 0.566  1.342  0.246  0.080  0.033 -0.013 -0.013
 0.568  1.342  0.247  0.081  0.035 -0.013 -0.013
 0.570  1.343  0.247  0.081  0.036 -0.012 -0.012
 0.572  1.344  0.248  0.082  0.036 -0.012 -0.012
 0.574  1.344  0.249  0.082  0.037 -0.011 -0.011
 0.576  1.344  0.250  0.083  0.038 -0.011 -0.011
 0.578  1.345  0.250  0.084  0.038 -0.010 -0.010
 0.580  1.346  0.251  0.085  0.039 -0.009 -0.009
 0.582  1.346  0.252  0.086  0.040 -0.009 -0.009
 0.584  1.346  0.253  0.086  0.041 -0.008 -0.008
 0.586  1.347  0.253  0.087  0.042 -0.008 -0.008
 0.588  1.347  0.254  0.088  0.043 -0.008 -0.008
 0.590  1.347  0.255  0.089  0.043 -0.007 -0.007
 0.592  1.348  0.256  0.090  0.044 -0.006 -0.006
 0.594  1.348  0.256  0.090  0.045 -0.006 -0.006
 0.596  1.349  0.256  0.091  0.046 -0.005 -0.005
 0.598  1.349  0.257  0.092  0.046 -0.005 -0.005
 0.600  1.349  0.258  0.093  0.047 -0.004 -0.004
 0.602  1.350  0.258  0.094  0.048 -0.004 -0.004
 0.604  1.350  0.258  0.094  0.048 -0.003 -0.003
 0.606  1.351  0.259  0.095  0.049 -0.003 -0.003
 0.608  1.351  0.259  0.096  0.049 -0.002 -0.002
 0.610  1.351  0.260  0.097  0.050 -0.002 -0.002
 0.612  1.351  0.260  0.097  0.051 -0.001 -0.001
 0.614  1.352  0.261  0.098  0.051 -0.001 -0.001
 0.616  1.352  0.261  0.099  0.052  0.000  0.000
 0.618  1.353  0.261  0.100  0.053  0.001  0.001
 0.620  1.353  0.261  0.101  0.054  0.001  0.001
 0.622  1.353  0.262  0.101  0.054  0.002  0.002
 0.624  1.353  0.262  0.102  0.055  0.002  0.002
 0.626  1.353  0.262  0.103  0.055  0.003  0.003
 0.628  1.353  0.263  0.103  0.056  0.003  0.003
 0.630  1.354  0.263  0.104  0.056  0.004  0.004
 0.632  1.354  0.263  0.105  0.057  0.004  0.004
 0.634  1.354  0.263  0.105  0.058  0.005  0.005
 0.636  1.354  0.263  0.106  0.058  0.006  0.006
 0.638  1.355  0.263  0.107  0.059  0.006  0.006
 0.640  1.355  0.264  0.108  0.059  0.007  0.007
 0.642  1.355  0.264  0.108  0.060  0.007  0.007
 0.644  1.355  0.264  0.109  0.061  0.008  0.008
 0.646  1.355  0.264  0.110  0.061  0.008  0.008
 0.648  1.355  0.264  0.111  0.061  0.009  0.009
 0.650  1.355  0.264  0.112  0.062  0.009  0.009
 0.652  1.355  0.264  0.113  0.063  0.010  0.010
 0.654  1.355  0.264  0.113  0.063  0.010  0.010
 0.656  1.355  0.264  0.114  0.064  0.011  0.011
 0.658  1.355  0.264  0.115  0.064  0.012  0.012
 0.660  1.355  0.264  0.116  0.064  0.012  0.012
 0.662  1.355  0.265  0.117  0.065  0.013  0.013
 0.664  1.356  0.265  0.118  0.066  0.014  0.014
 0.666  1.356  0.266  0.119  0.066  0.014  0.014
 0.668  1.356  0.266  0.120  0.066  0.015  0.015
 0.670  1.356  0.266  0.121  0.067  0.015  0.015
 0.672  1.356  0.267  0.122  0.068  0.016  0.016
 0.674  1.357  0.268  0.123  0.069  0.017  0.017
 0.676  1.357  0.269  0.124  0.069  0.017  0.017
 0.678  1.357  0.269  0.125  0.070  0.018  0.018
 0.680  1.357  0.270  0.126  0.070  0.018  0.018
 0.682  1.358  0.271  0.128  0.071  0.019  0.019
 0.684  1.358  0.272  0.129  0.072  0.020  0.020
 0.686  1.359  0.273  0.130  0.072  0.020  0.020
 0.688  1.359  0.274  0.131  0.073  0.021  0.021
 0.690  1.359  0.275  0.133  0.074  0.022  0.022
 0.692  1.360  0.276  0.134  0.075  0.022  0.022
 0.694  1.360  0.277  0.135  0.075  0.023  0.023
 0.696  1.361  0.279  0.137  0.076  0.024  0.024
 0.698  1.361  0.280  0.138  0.077  0.024  0.024
 0.700  1.362  0.281  0.140  0.078  0.025  0.025
 0.702  1.362  0.283  0.141  0.079  0.025  0.025
 0.704  1.363  0.284  0.143  0.079  0.026  0.026
 0.706  1.363  0.285  0.144  0.080  0.027  0.027
 0.708  1.364  0.287  0.145  0.081  0.027  0.027
 0.710  1.365  0.288  0.147  0.082  0.028  0.028
 0.712  1.365  0.291  0.149  0.083  0.029  0.029
 0.714  1.367  0.292  0.150  0.084  0.029  0.029
 0.716  1.367  0.294  0.152  0.085  0.030  0.030
 0.718  1.368  0.296  0.153  0.086  0.031  0.031
 0.720  1.369  0.297  0.155  0.087  0.032  0.032
 0.722  1.370  0.299  0.156  0.089  0.032  0.032
 0.724  1.371  0.300  0.157  0.090  0.033  0.033
 0.726  1.371  0.302  0.158  0.091  0.034  0.034
 0.728  1.372  0.302  0.159  0.092  0.034  0.034
 0.730  1.373  0.304  0.160  0.093  0.035  0.035
 0.732  1.374  0.304  0.161  0.094  0.036  0.036
 0.734  1.375  0.305  0.161  0.094  0.037  0.037
 0.736  1.376  0.305  0.161  0.095  0.038  0.038
 0.738  1.376  0.306  0.161  0.096  0.039  0.039
 0.740  1.377  0.306  0.161  0.097  0.039  0.039
 0.742  1.378  0.306  0.161  0.097  0.040  0.040
 0.744  1.379  0.306  0.160  0.097  0.041  0.041
 0.746  1.380  0.305  0.160  0.098  0.042  0.042
 0.748  1.380  0.304  0.159  0.098  0.043  0.043
 0.750  1.381  0.304  0.158  0.098  0.044  0.044
 0.752  1.382  0.303  0.157  0.097  0.045  0.045
 0.754  1.382  0.302  0.156  0.097  0.046  0.046
 0.756  1.383  0.301  0.155  0.097  0.047  0.047
 0.758  1.384  0.299  0.153  0.096  0.048  0.048
 0.760  1.384  0.298  0.152  0.095  0.049  0.049
 0.762  1.385  0.296  0.150  0.094  0.050  0.050
 0.764  1.385  0.295  0.148  0.093  0.051  0.051
 0.766  1.386  0.293  0.146  0.091  0.052  0.052
 0.768  1.386  0.291  0.144  0.090  0.053  0.053
 0.770  1.386  0.288  0.142  0.089  0.054  0.054
 0.772  1.387  0.286  0.139  0.087  0.055  0.055
 0.774  1.387  0.284  0.137  0.085  0.057  0.057
 0.776  1.387  0.281  0.134  0.083  0.058  0.058
 0.778  1.388  0.278  0.131  0.081  0.059  0.059
 0.780  1.388  0.275  0.128  0.079  0.060  0.060
 0.782  1.388  0.272  0.124  0.077  0.062  0.062
 0.784  1.388  0.269  0.121  0.074  0.063  0.063
 0.786  1.388  0.265  0.118  0.071  0.064  0.064
 0.788  1.388  0.261  0.114  0.069  0.066  0.066
 0.790  1.388  0.257  0.110  0.066  0.067  0.067
 0.792  1.389  0.253  0.106  0.063  0.069  0.069
 0.794  1.389  0.249  0.102  0.060  0.070  0.070
 0.796  1.389  0.245  0.098  0.056  0.071  0.071
 0.798  1.389  0.239  0.094  0.053  0.072  0.072
 0.800  1.389  0.234  0.089  0.049  0.074  0.074
 0.802  1.388  0.229  0.084  0.046  0.075  0.075
 0.804  1.388  0.224  0.080  0.042  0.076  0.076
 0.806  1.388  0.219  0.075  0.038  0.077  0.077
 0.808  1.386  0.213  0.070  0.034  0.077  0.077
