# IsPeriodic    : True
# Period        : 0.533639 days
# Normalization : <g_mag>=0
# 
# Phase u_mag  g_mag  r_mag  i_mag  z_mag  y_mag
 0.000  0.370 -0.785 -0.665 -0.548 -0.499 -0.499
 0.002  0.370 -0.784 -0.665 -0.548 -0.499 -0.499
 0.004  0.373 -0.783 -0.664 -0.547 -0.499 -0.499
 0.006  0.375 -0.780 -0.664 -0.547 -0.498 -0.498
 0.008  0.379 -0.778 -0.663 -0.547 -0.498 -0.498
 0.010  0.383 -0.774 -0.662 -0.546 -0.497 -0.497
 0.012  0.388 -0.771 -0.660 -0.545 -0.496 -0.496
 0.014  0.395 -0.767 -0.659 -0.545 -0.496 -0.496
 0.016  0.401 -0.764 -0.658 -0.543 -0.495 -0.495
 0.018  0.409 -0.759 -0.657 -0.542 -0.495 -0.495
 0.020  0.416 -0.754 -0.655 -0.541 -0.493 -0.493
 0.022  0.425 -0.750 -0.653 -0.540 -0.492 -0.492
 0.024  0.432 -0.744 -0.651 -0.539 -0.491 -0.491
 0.026  0.440 -0.739 -0.648 -0.538 -0.490 -0.490
 0.028  0.448 -0.734 -0.647 -0.536 -0.488 -0.488
 0.030  0.456 -0.730 -0.644 -0.534 -0.486 -0.486
 0.032  0.464 -0.724 -0.641 -0.532 -0.485 -0.485
 0.034  0.471 -0.719 -0.638 -0.530 -0.483 -0.483
 0.036  0.478 -0.714 -0.635 -0.527 -0.481 -0.481
 0.038  0.485 -0.708 -0.632 -0.525 -0.479 -0.479
 0.040  0.492 -0.704 -0.629 -0.522 -0.477 -0.477
 0.042  0.501 -0.698 -0.625 -0.520 -0.474 -0.474
 0.044  0.508 -0.692 -0.622 -0.517 -0.472 -0.472
 0.046  0.515 -0.686 -0.618 -0.514 -0.469 -0.469
 0.048  0.522 -0.680 -0.614 -0.511 -0.466 -0.466
 0.050  0.529 -0.674 -0.610 -0.507 -0.464 -0.464
 0.052  0.536 -0.667 -0.605 -0.504 -0.461 -0.461
 0.054  0.543 -0.661 -0.601 -0.500 -0.457 -0.457
 0.056  0.552 -0.654 -0.597 -0.497 -0.454 -0.454
 0.058  0.559 -0.647 -0.592 -0.494 -0.451 -0.451
 0.060  0.566 -0.640 -0.587 -0.490 -0.448 -0.448
 0.062  0.573 -0.633 -0.582 -0.486 -0.444 -0.444
 0.064  0.580 -0.626 -0.576 -0.482 -0.441 -0.441
 0.066  0.587 -0.619 -0.571 -0.479 -0.437 -0.437
 0.068  0.594 -0.610 -0.566 -0.475 -0.434 -0.434
 0.070  0.601 -0.603 -0.560 -0.471 -0.430 -0.430
 0.072  0.608 -0.596 -0.555 -0.468 -0.427 -0.427
 0.074  0.616 -0.588 -0.549 -0.465 -0.424 -0.424
 0.076  0.623 -0.580 -0.544 -0.461 -0.420 -0.420
 0.078  0.630 -0.573 -0.538 -0.458 -0.417 -0.417
 0.080  0.637 -0.564 -0.533 -0.454 -0.414 -0.414
 0.082  0.643 -0.557 -0.527 -0.451 -0.411 -0.411
 0.084  0.650 -0.549 -0.522 -0.448 -0.408 -0.408
 0.086  0.657 -0.541 -0.516 -0.445 -0.404 -0.404
 0.088  0.664 -0.534 -0.510 -0.442 -0.401 -0.401
 0.090  0.670 -0.527 -0.505 -0.438 -0.398 -0.398
 0.092  0.677 -0.518 -0.501 -0.436 -0.396 -0.396
 0.094  0.684 -0.511 -0.496 -0.433 -0.393 -0.393
 0.096  0.690 -0.504 -0.491 -0.430 -0.390 -0.390
 0.098  0.697 -0.497 -0.487 -0.427 -0.387 -0.387
 0.100  0.703 -0.490 -0.481 -0.425 -0.385 -0.385
 0.102  0.710 -0.483 -0.477 -0.422 -0.382 -0.382
 0.104  0.716 -0.477 -0.473 -0.419 -0.380 -0.380
 0.106  0.722 -0.470 -0.468 -0.417 -0.377 -0.377
 0.108  0.729 -0.463 -0.463 -0.414 -0.375 -0.375
 0.110  0.735 -0.457 -0.459 -0.412 -0.373 -0.373
 0.112  0.741 -0.450 -0.455 -0.409 -0.370 -0.370
 0.114  0.747 -0.444 -0.451 -0.407 -0.368 -0.368
 0.116  0.753 -0.438 -0.447 -0.405 -0.366 -0.366
 0.118  0.759 -0.431 -0.443 -0.403 -0.364 -0.364
 0.120  0.765 -0.425 -0.439 -0.401 -0.362 -0.362
 0.122  0.771 -0.419 -0.435 -0.399 -0.360 -0.360
 0.124  0.776 -0.414 -0.431 -0.397 -0.358 -0.358
 0.126  0.782 -0.408 -0.427 -0.395 -0.356 -0.356
 0.128  0.787 -0.403 -0.424 -0.393 -0.354 -0.354
 0.130  0.792 -0.397 -0.421 -0.391 -0.353 -0.353
 0.132  0.798 -0.391 -0.417 -0.389 -0.351 -0.351
 0.134  0.803 -0.386 -0.414 -0.387 -0.349 -0.349
 0.136  0.809 -0.381 -0.410 -0.385 -0.348 -0.348
 0.138  0.814 -0.376 -0.407 -0.384 -0.346 -0.346
 0.140  0.819 -0.371 -0.404 -0.382 -0.344 -0.344
 0.142  0.824 -0.366 -0.401 -0.380 -0.343 -0.343
 0.144  0.829 -0.361 -0.398 -0.378 -0.341 -0.341
 0.146  0.834 -0.356 -0.395 -0.377 -0.340 -0.340
 0.148  0.838 -0.351 -0.392 -0.375 -0.338 -0.338
 0.150  0.843 -0.346 -0.389 -0.373 -0.337 -0.337
 0.152  0.848 -0.342 -0.386 -0.371 -0.335 -0.335
 0.154  0.853 -0.337 -0.383 -0.369 -0.333 -0.333
 0.156  0.857 -0.333 -0.380 -0.368 -0.332 -0.332
 0.158  0.862 -0.329 -0.377 -0.366 -0.330 -0.330
 0.160  0.867 -0.324 -0.374 -0.364 -0.328 -0.328
 0.162  0.870 -0.319 -0.371 -0.362 -0.327 -0.327
 0.164  0.875 -0.315 -0.368 -0.360 -0.325 -0.325
 0.166  0.880 -0.310 -0.366 -0.358 -0.323 -0.323
 0.168  0.885 -0.305 -0.362 -0.356 -0.321 -0.321
 0.170  0.888 -0.300 -0.360 -0.354 -0.320 -0.320
 0.172  0.893 -0.297 -0.356 -0.353 -0.318 -0.318
 0.174  0.898 -0.292 -0.354 -0.351 -0.316 -0.316
 0.176  0.902 -0.287 -0.350 -0.349 -0.315 -0.315
 0.178  0.906 -0.283 -0.348 -0.347 -0.313 -0.313
 0.180  0.911 -0.278 -0.345 -0.345 -0.311 -0.311
 0.182  0.915 -0.273 -0.342 -0.343 -0.309 -0.309
 0.184  0.919 -0.269 -0.339 -0.341 -0.308 -0.308
 0.186  0.924 -0.264 -0.336 -0.339 -0.306 -0.306
 0.188  0.928 -0.259 -0.333 -0.338 -0.304 -0.304
 0.190  0.932 -0.254 -0.331 -0.336 -0.303 -0.303
 0.192  0.937 -0.250 -0.327 -0.334 -0.301 -0.301
 0.194  0.940 -0.245 -0.325 -0.331 -0.300 -0.300
 0.196  0.945 -0.240 -0.322 -0.329 -0.298 -0.298
 0.198  0.950 -0.237 -0.319 -0.328 -0.296 -0.296
 0.200  0.953 -0.232 -0.316 -0.326 -0.294 -0.294
 0.202  0.958 -0.227 -0.313 -0.324 -0.292 -0.292
 0.204  0.962 -0.223 -0.310 -0.322 -0.291 -0.291
 0.206  0.966 -0.218 -0.308 -0.320 -0.289 -0.289
 0.208  0.971 -0.213 -0.304 -0.318 -0.287 -0.287
 0.210  0.975 -0.208 -0.302 -0.316 -0.285 -0.285
 0.212  0.979 -0.204 -0.299 -0.314 -0.283 -0.283
 0.214  0.983 -0.199 -0.296 -0.312 -0.282 -0.282
 0.216  0.988 -0.194 -0.293 -0.310 -0.280 -0.280
 0.218  0.991 -0.190 -0.291 -0.308 -0.279 -0.279
 0.220  0.996 -0.185 -0.288 -0.306 -0.277 -0.277
 0.222  1.000 -0.181 -0.285 -0.305 -0.275 -0.275
 0.224  1.004 -0.177 -0.282 -0.302 -0.273 -0.273
 0.226  1.008 -0.172 -0.279 -0.300 -0.271 -0.271
 0.228  1.013 -0.167 -0.277 -0.298 -0.269 -0.269
 0.230  1.016 -0.162 -0.273 -0.296 -0.268 -0.268
 0.232  1.021 -0.159 -0.271 -0.295 -0.266 -0.266
 0.234  1.024 -0.154 -0.268 -0.293 -0.264 -0.264
 0.236  1.028 -0.149 -0.266 -0.291 -0.263 -0.263
 0.238  1.033 -0.145 -0.263 -0.289 -0.261 -0.261
 0.240  1.036 -0.141 -0.261 -0.287 -0.259 -0.259
 0.242  1.040 -0.136 -0.258 -0.285 -0.258 -0.258
 0.244  1.045 -0.133 -0.255 -0.283 -0.256 -0.256
 0.246  1.048 -0.128 -0.253 -0.282 -0.254 -0.254
 0.248  1.052 -0.125 -0.250 -0.280 -0.252 -0.252
 0.250  1.055 -0.120 -0.248 -0.278 -0.250 -0.250
 0.252  1.059 -0.116 -0.245 -0.276 -0.248 -0.248
 0.254  1.062 -0.112 -0.243 -0.274 -0.247 -0.247
 0.256  1.066 -0.108 -0.240 -0.272 -0.245 -0.245
 0.258  1.070 -0.105 -0.238 -0.271 -0.243 -0.243
 0.260  1.073 -0.100 -0.236 -0.269 -0.242 -0.242
 0.262  1.077 -0.096 -0.233 -0.267 -0.240 -0.240
 0.264  1.080 -0.093 -0.231 -0.265 -0.238 -0.238
 0.266  1.084 -0.089 -0.228 -0.263 -0.237 -0.237
 0.268  1.087 -0.086 -0.226 -0.262 -0.235 -0.235
 0.270  1.090 -0.081 -0.224 -0.260 -0.233 -0.233
 0.272  1.093 -0.078 -0.221 -0.258 -0.231 -0.231
 0.274  1.097 -0.074 -0.219 -0.256 -0.229 -0.229
 0.276  1.100 -0.070 -0.217 -0.254 -0.228 -0.228
 0.278  1.103 -0.067 -0.214 -0.253 -0.226 -0.226
 0.280  1.106 -0.063 -0.213 -0.251 -0.224 -0.224
 0.282  1.109 -0.060 -0.210 -0.249 -0.222 -0.222
 0.284  1.112 -0.056 -0.208 -0.247 -0.221 -0.221
 0.286  1.116 -0.053 -0.206 -0.245 -0.219 -0.219
 0.288  1.118 -0.050 -0.203 -0.244 -0.217 -0.217
 0.290  1.120 -0.047 -0.202 -0.242 -0.216 -0.216
 0.292  1.124 -0.043 -0.199 -0.240 -0.214 -0.214
 0.294  1.126 -0.040 -0.197 -0.238 -0.213 -0.213
 0.296  1.129 -0.036 -0.195 -0.236 -0.211 -0.211
 0.298  1.132 -0.034 -0.193 -0.235 -0.209 -0.209
 0.300  1.135 -0.030 -0.190 -0.233 -0.208 -0.208
 0.302  1.137 -0.027 -0.188 -0.231 -0.206 -0.206
 0.304  1.141 -0.023 -0.186 -0.229 -0.205 -0.205
 0.306  1.143 -0.020 -0.184 -0.227 -0.203 -0.203
 0.308  1.145 -0.016 -0.182 -0.225 -0.201 -0.201
 0.310  1.148 -0.014 -0.179 -0.224 -0.200 -0.200
 0.312  1.151 -0.010 -0.177 -0.222 -0.198 -0.198
 0.314  1.154 -0.007 -0.175 -0.220 -0.196 -0.196
 0.316  1.156 -0.003 -0.172 -0.218 -0.195 -0.195
 0.318  1.160  0.000 -0.170 -0.216 -0.193 -0.193
 0.320  1.162  0.004 -0.167 -0.214 -0.192 -0.192
 0.322  1.164  0.007 -0.166 -0.213 -0.191 -0.191
 0.324  1.168  0.011 -0.163 -0.211 -0.189 -0.189
 0.326  1.170  0.014 -0.160 -0.209 -0.188 -0.188
 0.328  1.174  0.018 -0.158 -0.207 -0.187 -0.187
 0.330  1.176  0.022 -0.156 -0.205 -0.185 -0.185
 0.332  1.180  0.024 -0.154 -0.203 -0.184 -0.184
 0.334  1.182  0.027 -0.151 -0.201 -0.182 -0.182
 0.336  1.184  0.031 -0.148 -0.200 -0.180 -0.180
 0.338  1.188  0.034 -0.146 -0.198 -0.179 -0.179
 0.340  1.192  0.038 -0.144 -0.196 -0.178 -0.178
 0.342  1.194  0.042 -0.142 -0.194 -0.177 -0.177
 0.344  1.197  0.045 -0.139 -0.192 -0.176 -0.176
 0.346  1.200  0.049 -0.136 -0.190 -0.174 -0.174
 0.348  1.203  0.052 -0.134 -0.188 -0.172 -0.172
 0.350  1.206  0.056 -0.131 -0.186 -0.171 -0.171
 0.352  1.209  0.059 -0.129 -0.185 -0.170 -0.170
 0.354  1.213  0.063 -0.126 -0.183 -0.169 -0.169
 0.356  1.215  0.068 -0.124 -0.180 -0.167 -0.167
 0.358  1.219  0.071 -0.121 -0.178 -0.166 -0.166
 0.360  1.222  0.075 -0.119 -0.177 -0.164 -0.164
 0.362  1.226  0.078 -0.117 -0.175 -0.163 -0.163
 0.364  1.228  0.082 -0.114 -0.173 -0.162 -0.162
 0.366  1.232  0.085 -0.112 -0.171 -0.161 -0.161
 0.368  1.235  0.089 -0.109 -0.169 -0.159 -0.159
 0.370  1.239  0.092 -0.107 -0.167 -0.158 -0.158
 0.372  1.241  0.096 -0.104 -0.166 -0.156 -0.156
 0.374  1.245  0.099 -0.102 -0.164 -0.155 -0.155
 0.376  1.248  0.103 -0.100 -0.162 -0.153 -0.153
 0.378  1.252  0.106 -0.097 -0.160 -0.151 -0.151
 0.380  1.256  0.110 -0.095 -0.158 -0.150 -0.150
 0.382  1.258  0.113 -0.093 -0.157 -0.148 -0.148
 0.384  1.261  0.117 -0.090 -0.155 -0.147 -0.147
 0.386  1.265  0.121 -0.088 -0.153 -0.145 -0.145
 0.388  1.267  0.124 -0.085 -0.151 -0.144 -0.144
 0.390  1.271  0.128 -0.083 -0.149 -0.142 -0.142
 0.392  1.275  0.130 -0.081 -0.148 -0.141 -0.141
 0.394  1.277  0.134 -0.079 -0.146 -0.139 -0.139
 0.396  1.280  0.137 -0.077 -0.145 -0.137 -0.137
 0.398  1.283  0.141 -0.074 -0.143 -0.136 -0.136
 0.400  1.286  0.144 -0.072 -0.141 -0.134 -0.134
 0.402  1.289  0.148 -0.070 -0.139 -0.132 -0.132
 0.404  1.292  0.150 -0.068 -0.138 -0.130 -0.130
 0.406  1.295  0.154 -0.065 -0.136 -0.129 -0.129
 0.408  1.298  0.157 -0.064 -0.134 -0.127 -0.127
 0.410  1.301  0.161 -0.061 -0.132 -0.126 -0.126
 0.412  1.304  0.163 -0.059 -0.131 -0.124 -0.124
 0.414  1.307  0.167 -0.058 -0.129 -0.122 -0.122
 0.416  1.309  0.170 -0.055 -0.127 -0.120 -0.120
 0.418  1.312  0.172 -0.053 -0.126 -0.118 -0.118
 0.420  1.315  0.176 -0.051 -0.124 -0.117 -0.117
 0.422  1.317  0.180 -0.049 -0.123 -0.115 -0.115
 0.424  1.320  0.182 -0.047 -0.121 -0.113 -0.113
 0.426  1.323  0.185 -0.045 -0.119 -0.111 -0.111
 0.428  1.325  0.189 -0.043 -0.118 -0.109 -0.109
 0.430  1.328  0.191 -0.041 -0.116 -0.108 -0.108
 0.432  1.330  0.195 -0.040 -0.114 -0.106 -0.106
 0.434  1.333  0.197 -0.037 -0.113 -0.105 -0.105
 0.436  1.335  0.201 -0.035 -0.111 -0.103 -0.103
 0.438  1.337  0.203 -0.034 -0.109 -0.101 -0.101
 0.440  1.340  0.207 -0.032 -0.108 -0.100 -0.100
 0.442  1.342  0.209 -0.029 -0.107 -0.098 -0.098
 0.444  1.344  0.213 -0.028 -0.105 -0.097 -0.097
 0.446  1.347  0.215 -0.026 -0.103 -0.095 -0.095
 0.448  1.349  0.217 -0.024 -0.102 -0.093 -0.093
 0.450  1.352  0.221 -0.023 -0.100 -0.092 -0.092
 0.452  1.354  0.223 -0.020 -0.098 -0.090 -0.090
 0.454  1.356  0.226 -0.018 -0.097 -0.089 -0.089
 0.456  1.359  0.228 -0.017 -0.096 -0.087 -0.087
 0.458  1.361  0.230 -0.015 -0.094 -0.086 -0.086
 0.460  1.363  0.233 -0.012 -0.093 -0.085 -0.085
 0.462  1.366  0.235 -0.011 -0.091 -0.083 -0.083
 0.464  1.367  0.237 -0.009 -0.089 -0.082 -0.082
 0.466  1.369  0.240 -0.007 -0.088 -0.081 -0.081
 0.468  1.372  0.242 -0.006 -0.087 -0.079 -0.079
 0.470  1.374  0.244 -0.004 -0.085 -0.078 -0.078
 0.472  1.375  0.247 -0.001 -0.084 -0.077 -0.077
 0.474  1.378  0.249  0.000 -0.083 -0.076 -0.076
 0.476  1.380  0.250  0.002 -0.081 -0.074 -0.074
 0.478  1.382  0.253  0.004 -0.080 -0.073 -0.073
 0.480  1.384  0.255  0.006 -0.078 -0.072 -0.072
 0.482  1.386  0.256  0.007 -0.076 -0.071 -0.071
 0.484  1.388  0.259  0.010 -0.075 -0.069 -0.069
 0.486  1.389  0.260  0.012 -0.074 -0.069 -0.069
 0.488  1.392  0.262  0.013 -0.072 -0.068 -0.068
 0.490  1.393  0.263  0.015 -0.071 -0.066 -0.066
 0.492  1.395  0.266  0.017 -0.069 -0.065 -0.065
 0.494  1.397  0.267  0.018 -0.069 -0.064 -0.064
 0.496  1.399  0.268  0.020 -0.067 -0.063 -0.063
 0.498  1.401  0.269  0.022 -0.066 -0.063 -0.063
 0.500  1.403  0.271  0.024 -0.065 -0.061 -0.061
 0.502  1.405  0.273  0.026 -0.063 -0.060 -0.060
 0.504  1.406  0.274  0.028 -0.062 -0.060 -0.060
 0.506  1.407  0.275  0.030 -0.060 -0.058 -0.058
 0.508  1.410  0.276  0.030 -0.060 -0.058 -0.058
 0.510  1.411  0.277  0.032 -0.058 -0.056 -0.056
 0.512  1.413  0.279  0.034 -0.057 -0.056 -0.056
 0.514  1.414  0.280  0.036 -0.056 -0.055 -0.055
 0.516  1.416  0.281  0.037 -0.055 -0.054 -0.054
 0.518  1.418  0.282  0.038 -0.054 -0.053 -0.053
 0.520  1.419  0.283  0.040 -0.053 -0.052 -0.052
 0.522  1.420  0.284  0.041 -0.051 -0.051 -0.051
 0.524  1.421  0.286  0.042 -0.051 -0.050 -0.050
 0.526  1.424  0.286  0.043 -0.049 -0.049 -0.049
 0.528  1.425  0.287  0.045 -0.049 -0.048 -0.048
 0.530  1.426  0.288  0.046 -0.048 -0.047 -0.047
 0.532  1.427  0.288  0.048 -0.047 -0.047 -0.047
 0.534  1.429  0.289  0.048 -0.046 -0.046 -0.046
 0.536  1.429  0.290  0.049 -0.045 -0.045 -0.045
 0.538  1.430  0.290  0.050 -0.044 -0.044 -0.044
 0.540  1.431  0.292  0.051 -0.043 -0.043 -0.043
 0.542  1.432  0.292  0.052 -0.043 -0.042 -0.042
 0.544  1.432  0.293  0.053 -0.042 -0.042 -0.042
 0.546  1.433  0.293  0.054 -0.040 -0.041 -0.041
 0.548  1.435  0.294  0.054 -0.040 -0.040 -0.040
 0.550  1.435  0.294  0.055 -0.039 -0.039 -0.039
 0.552  1.436  0.295  0.056 -0.038 -0.039 -0.039
 0.554  1.436  0.295  0.057 -0.038 -0.038 -0.038
 0.556  1.436  0.295  0.057 -0.037 -0.037 -0.037
 0.558  1.437  0.296  0.058 -0.036 -0.036 -0.036
 0.560  1.437  0.296  0.058 -0.036 -0.035 -0.035
 0.562  1.437  0.296  0.059 -0.035 -0.035 -0.035
 0.564  1.438  0.296  0.059 -0.034 -0.034 -0.034
 0.566  1.438  0.296  0.060 -0.034 -0.033 -0.033
 0.568  1.438  0.296  0.060 -0.033 -0.032 -0.032
 0.570  1.438  0.297  0.060 -0.032 -0.032 -0.032
 0.572  1.438  0.297  0.060 -0.031 -0.031 -0.031
 0.574  1.438  0.297  0.060 -0.031 -0.031 -0.031
 0.576  1.438  0.297  0.061 -0.030 -0.029 -0.029
 0.578  1.437  0.297  0.061 -0.030 -0.029 -0.029
 0.580  1.437  0.297  0.061 -0.029 -0.028 -0.028
 0.582  1.437  0.297  0.061 -0.029 -0.027 -0.027
 0.584  1.437  0.297  0.061 -0.028 -0.027 -0.027
 0.586  1.436  0.297  0.062 -0.027 -0.026 -0.026
 0.588  1.436  0.297  0.062 -0.027 -0.026 -0.026
 0.590  1.436  0.297  0.062 -0.026 -0.025 -0.025
 0.592  1.435  0.297  0.062 -0.025 -0.024 -0.024
 0.594  1.435  0.297  0.062 -0.025 -0.024 -0.024
 0.596  1.435  0.297  0.062 -0.025 -0.023 -0.023
 0.598  1.433  0.297  0.062 -0.024 -0.023 -0.023
 0.600  1.433  0.297  0.063 -0.023 -0.022 -0.022
 0.602  1.433  0.297  0.063 -0.023 -0.021 -0.021
 0.604  1.432  0.297  0.063 -0.022 -0.021 -0.021
 0.606  1.432  0.297  0.063 -0.021 -0.020 -0.020
 0.608  1.432  0.297  0.063 -0.021 -0.019 -0.019
 0.610  1.431  0.297  0.063 -0.020 -0.019 -0.019
 0.612  1.431  0.299  0.063 -0.020 -0.018 -0.018
 0.614  1.431  0.299  0.063 -0.019 -0.018 -0.018
 0.616  1.431  0.299  0.063 -0.018 -0.017 -0.017
 0.618  1.430  0.299  0.063 -0.018 -0.016 -0.016
 0.620  1.430  0.299  0.063 -0.018 -0.016 -0.016
 0.622  1.430  0.299  0.063 -0.017 -0.015 -0.015
 0.624  1.430  0.299  0.063 -0.016 -0.014 -0.014
 0.626  1.430  0.300  0.063 -0.016 -0.014 -0.014
 0.628  1.429  0.300  0.063 -0.016 -0.013 -0.013
 0.630  1.429  0.300  0.062 -0.015 -0.013 -0.013
 0.632  1.429  0.300  0.062 -0.014 -0.012 -0.012
 0.634  1.429  0.301  0.062 -0.014 -0.012 -0.012
 0.636  1.429  0.301  0.062 -0.014 -0.011 -0.011
 0.638  1.429  0.301  0.062 -0.013 -0.011 -0.011
 0.640  1.429  0.301  0.062 -0.013 -0.010 -0.010
 0.642  1.429  0.302  0.061 -0.012 -0.010 -0.010
 0.644  1.429  0.302  0.061 -0.011 -0.009 -0.009
 0.646  1.427  0.302  0.061 -0.011 -0.009 -0.009
 0.648  1.427  0.303  0.061 -0.011 -0.008 -0.008
 0.650  1.427  0.303  0.061 -0.011 -0.008 -0.008
 0.652  1.427  0.303  0.061 -0.011 -0.007 -0.007
 0.654  1.427  0.303  0.060 -0.010 -0.007 -0.007
 0.656  1.427  0.305  0.060 -0.010 -0.006 -0.006
 0.658  1.427  0.305  0.060 -0.009 -0.006 -0.006
 0.660  1.427  0.305  0.060 -0.009 -0.006 -0.006
 0.662  1.427  0.305  0.060 -0.009 -0.005 -0.005
 0.664  1.429  0.305  0.060 -0.009 -0.005 -0.005
 0.666  1.429  0.305  0.060 -0.009 -0.005 -0.005
 0.668  1.429  0.305  0.060 -0.009 -0.004 -0.004
 0.670  1.427  0.305  0.060 -0.009 -0.004 -0.004
 0.672  1.427  0.305  0.060 -0.009 -0.003 -0.003
 0.674  1.427  0.305  0.060 -0.009 -0.003 -0.003
 0.676  1.427  0.305  0.060 -0.009 -0.003 -0.003
 0.678  1.427  0.303  0.060 -0.009 -0.002 -0.002
 0.680  1.427  0.303  0.060 -0.009 -0.002 -0.002
 0.682  1.427  0.303  0.060 -0.009 -0.002 -0.002
 0.684  1.427  0.303  0.060 -0.009 -0.002 -0.002
 0.686  1.427  0.302  0.059 -0.009 -0.001 -0.001
 0.688  1.426  0.302  0.059 -0.009 -0.001 -0.001
 0.690  1.426  0.301  0.059 -0.009 -0.000 -0.000
 0.692  1.426  0.301  0.059 -0.009 -0.000 -0.000
 0.694  1.426  0.300  0.059 -0.009  0.000  0.000
 0.696  1.426  0.300  0.059 -0.009  0.000  0.000
 0.698  1.426  0.299  0.059 -0.009  0.000  0.000
 0.700  1.425  0.299  0.059 -0.010  0.001  0.001
 0.702  1.425  0.297  0.059 -0.010  0.001  0.001
 0.704  1.425  0.296  0.059 -0.010  0.001  0.001
 0.706  1.425  0.296  0.059 -0.010  0.002  0.002
 0.708  1.424  0.295  0.059 -0.010  0.002  0.002
 0.710  1.424  0.294  0.059 -0.010  0.002  0.002
 0.712  1.424  0.293  0.059 -0.010  0.002  0.002
 0.714  1.423  0.292  0.059 -0.010  0.003  0.003
 0.716  1.423  0.292  0.059 -0.010  0.003  0.003
 0.718  1.421  0.290  0.059 -0.009  0.004  0.004
 0.720  1.421  0.289  0.059 -0.009  0.005  0.005
 0.722  1.421  0.288  0.060 -0.009  0.005  0.005
 0.724  1.420  0.287  0.060 -0.008  0.006  0.006
 0.726  1.420  0.286  0.060 -0.007  0.006  0.006
 0.728  1.420  0.286  0.060 -0.007  0.007  0.007
 0.730  1.419  0.284  0.060 -0.006  0.008  0.008
 0.732  1.419  0.284  0.061 -0.005  0.009  0.009
 0.734  1.419  0.283  0.062 -0.004  0.010  0.010
 0.736  1.419  0.283  0.063 -0.003  0.011  0.011
 0.738  1.419  0.283  0.064 -0.002  0.012  0.012
 0.740  1.419  0.283  0.065 -0.000  0.013  0.013
 0.742  1.419  0.283  0.066  0.001  0.015  0.015
 0.744  1.420  0.283  0.066  0.002  0.016  0.016
 0.746  1.421  0.284  0.068  0.004  0.017  0.017
 0.748  1.421  0.284  0.069  0.005  0.018  0.018
 0.750  1.423  0.286  0.070  0.007  0.020  0.020
 0.752  1.424  0.286  0.072  0.009  0.021  0.021
 0.754  1.426  0.287  0.073  0.011  0.023  0.023
 0.756  1.427  0.288  0.074  0.013  0.024  0.024
 0.758  1.430  0.288  0.076  0.015  0.026  0.026
 0.760  1.432  0.289  0.078  0.017  0.028  0.028
 0.762  1.435  0.290  0.079  0.019  0.030  0.030
 0.764  1.437  0.293  0.081  0.021  0.032  0.032
 0.766  1.439  0.294  0.083  0.024  0.034  0.034
 0.768  1.443  0.295  0.084  0.026  0.035  0.035
 0.770  1.446  0.297  0.087  0.029  0.037  0.037
 0.772  1.449  0.300  0.089  0.031  0.040  0.040
 0.774  1.452  0.301  0.091  0.033  0.042  0.042
 0.776  1.456  0.303  0.093  0.036  0.044  0.044
 0.778  1.459  0.306  0.095  0.038  0.046  0.046
 0.780  1.463  0.308  0.098  0.041  0.048  0.048
 0.782  1.468  0.312  0.101  0.044  0.050  0.050
 0.784  1.472  0.314  0.102  0.046  0.053  0.053
 0.786  1.476  0.316  0.105  0.049  0.055  0.055
 0.788  1.481  0.320  0.107  0.052  0.057  0.057
 0.790  1.487  0.322  0.110  0.055  0.060  0.060
 0.792  1.491  0.325  0.113  0.057  0.061  0.061
 0.794  1.497  0.328  0.115  0.060  0.064  0.064
 0.796  1.503  0.330  0.118  0.063  0.066  0.066
 0.798  1.509  0.334  0.120  0.066  0.068  0.068
 0.800  1.514  0.336  0.123  0.069  0.070  0.070
 0.802  1.520  0.339  0.125  0.072  0.073  0.073
 0.804  1.526  0.342  0.128  0.075  0.074  0.074
 0.806  1.531  0.345  0.131  0.077  0.076  0.076
 0.808  1.535  0.347  0.133  0.080  0.079  0.079
