# IsPeriodic    : True
# Period        : 0.649104 days
# Normalization : <g_mag>=0
# 
# Phase u_mag  g_mag  r_mag  i_mag  z_mag  y_mag
 0.000  0.553 -0.611 -0.587 -0.528 -0.491 -0.491
 0.002  0.553 -0.611 -0.587 -0.528 -0.491 -0.491
 0.004  0.554 -0.610 -0.586 -0.527 -0.490 -0.490
 0.006  0.554 -0.609 -0.586 -0.527 -0.490 -0.490
 0.008  0.556 -0.608 -0.586 -0.526 -0.489 -0.489
 0.010  0.557 -0.606 -0.585 -0.525 -0.488 -0.488
 0.012  0.560 -0.604 -0.584 -0.524 -0.487 -0.487
 0.014  0.562 -0.602 -0.583 -0.523 -0.485 -0.485
 0.016  0.565 -0.600 -0.583 -0.521 -0.484 -0.484
 0.018  0.568 -0.598 -0.582 -0.519 -0.483 -0.483
 0.020  0.570 -0.595 -0.581 -0.518 -0.481 -0.481
 0.022  0.573 -0.592 -0.580 -0.517 -0.480 -0.480
 0.024  0.576 -0.589 -0.578 -0.515 -0.478 -0.478
 0.026  0.580 -0.587 -0.577 -0.513 -0.477 -0.477
 0.028  0.583 -0.584 -0.576 -0.511 -0.475 -0.475
 0.030  0.585 -0.580 -0.575 -0.510 -0.474 -0.474
 0.032  0.589 -0.577 -0.573 -0.508 -0.472 -0.472
 0.034  0.592 -0.574 -0.572 -0.506 -0.471 -0.471
 0.036  0.595 -0.571 -0.570 -0.505 -0.470 -0.470
 0.038  0.598 -0.567 -0.568 -0.503 -0.468 -0.468
 0.040  0.602 -0.563 -0.567 -0.501 -0.467 -0.467
 0.042  0.605 -0.560 -0.565 -0.499 -0.466 -0.466
 0.044  0.609 -0.555 -0.563 -0.498 -0.464 -0.464
 0.046  0.612 -0.551 -0.561 -0.496 -0.463 -0.463
 0.048  0.616 -0.547 -0.559 -0.494 -0.462 -0.462
 0.050  0.620 -0.542 -0.557 -0.493 -0.460 -0.460
 0.052  0.624 -0.538 -0.555 -0.491 -0.459 -0.459
 0.054  0.628 -0.533 -0.552 -0.489 -0.458 -0.458
 0.056  0.632 -0.528 -0.550 -0.487 -0.457 -0.457
 0.058  0.637 -0.524 -0.547 -0.485 -0.456 -0.456
 0.060  0.640 -0.518 -0.545 -0.483 -0.454 -0.454
 0.062  0.645 -0.513 -0.542 -0.481 -0.453 -0.453
 0.064  0.650 -0.508 -0.539 -0.479 -0.452 -0.452
 0.066  0.655 -0.503 -0.536 -0.477 -0.450 -0.450
 0.068  0.659 -0.497 -0.533 -0.475 -0.449 -0.449
 0.070  0.664 -0.491 -0.530 -0.473 -0.448 -0.448
 0.072  0.669 -0.486 -0.528 -0.471 -0.447 -0.447
 0.074  0.674 -0.480 -0.525 -0.469 -0.446 -0.446
 0.076  0.679 -0.474 -0.522 -0.467 -0.445 -0.445
 0.078  0.684 -0.468 -0.518 -0.465 -0.443 -0.443
 0.080  0.689 -0.462 -0.515 -0.462 -0.442 -0.442
 0.082  0.694 -0.456 -0.513 -0.461 -0.441 -0.441
 0.084  0.699 -0.450 -0.509 -0.458 -0.440 -0.440
 0.086  0.704 -0.444 -0.506 -0.456 -0.439 -0.439
 0.088  0.709 -0.438 -0.503 -0.454 -0.437 -0.437
 0.090  0.714 -0.432 -0.500 -0.452 -0.436 -0.436
 0.092  0.719 -0.427 -0.497 -0.450 -0.435 -0.435
 0.094  0.724 -0.421 -0.494 -0.448 -0.434 -0.434
 0.096  0.729 -0.416 -0.491 -0.446 -0.433 -0.433
 0.098  0.734 -0.411 -0.488 -0.443 -0.432 -0.432
 0.100  0.739 -0.405 -0.485 -0.442 -0.430 -0.430
 0.102  0.743 -0.400 -0.482 -0.439 -0.429 -0.429
 0.104  0.748 -0.395 -0.479 -0.438 -0.427 -0.427
 0.106  0.754 -0.390 -0.475 -0.435 -0.426 -0.426
 0.108  0.758 -0.385 -0.473 -0.434 -0.424 -0.424
 0.110  0.763 -0.380 -0.470 -0.431 -0.423 -0.423
 0.112  0.768 -0.375 -0.467 -0.430 -0.421 -0.421
 0.114  0.772 -0.370 -0.463 -0.428 -0.420 -0.420
 0.116  0.777 -0.366 -0.460 -0.426 -0.418 -0.418
 0.118  0.782 -0.361 -0.458 -0.424 -0.416 -0.416
 0.120  0.786 -0.357 -0.455 -0.422 -0.415 -0.415
 0.122  0.791 -0.352 -0.451 -0.420 -0.413 -0.413
 0.124  0.795 -0.348 -0.448 -0.419 -0.411 -0.411
 0.126  0.799 -0.343 -0.445 -0.416 -0.410 -0.410
 0.128  0.804 -0.339 -0.442 -0.415 -0.408 -0.408
 0.130  0.809 -0.335 -0.439 -0.413 -0.406 -0.406
 0.132  0.813 -0.330 -0.436 -0.411 -0.405 -0.405
 0.134  0.817 -0.326 -0.433 -0.410 -0.403 -0.403
 0.136  0.822 -0.322 -0.430 -0.408 -0.401 -0.401
 0.138  0.827 -0.318 -0.427 -0.406 -0.399 -0.399
 0.140  0.830 -0.314 -0.424 -0.404 -0.397 -0.397
 0.142  0.835 -0.310 -0.420 -0.403 -0.395 -0.395
 0.144  0.840 -0.306 -0.418 -0.401 -0.393 -0.393
 0.146  0.843 -0.303 -0.415 -0.399 -0.391 -0.391
 0.148  0.848 -0.299 -0.412 -0.398 -0.389 -0.389
 0.150  0.852 -0.295 -0.409 -0.396 -0.387 -0.387
 0.152  0.856 -0.291 -0.406 -0.395 -0.384 -0.384
 0.154  0.860 -0.288 -0.403 -0.393 -0.383 -0.383
 0.156  0.865 -0.284 -0.400 -0.392 -0.381 -0.381
 0.158  0.869 -0.281 -0.398 -0.390 -0.378 -0.378
 0.160  0.872 -0.277 -0.395 -0.388 -0.376 -0.376
 0.162  0.877 -0.273 -0.392 -0.387 -0.374 -0.374
 0.164  0.881 -0.270 -0.389 -0.386 -0.372 -0.372
 0.166  0.884 -0.266 -0.386 -0.384 -0.370 -0.370
 0.168  0.889 -0.262 -0.384 -0.383 -0.368 -0.368
 0.170  0.893 -0.258 -0.381 -0.381 -0.366 -0.366
 0.172  0.897 -0.255 -0.378 -0.379 -0.364 -0.364
 0.174  0.900 -0.251 -0.376 -0.378 -0.362 -0.362
 0.176  0.904 -0.247 -0.373 -0.376 -0.360 -0.360
 0.178  0.909 -0.243 -0.371 -0.375 -0.359 -0.359
 0.180  0.913 -0.239 -0.368 -0.374 -0.357 -0.357
 0.182  0.916 -0.236 -0.366 -0.372 -0.355 -0.355
 0.184  0.920 -0.232 -0.363 -0.371 -0.353 -0.353
 0.186  0.924 -0.228 -0.361 -0.369 -0.352 -0.352
 0.188  0.927 -0.224 -0.359 -0.368 -0.350 -0.350
 0.190  0.931 -0.219 -0.357 -0.366 -0.348 -0.348
 0.192  0.935 -0.215 -0.354 -0.365 -0.347 -0.347
 0.194  0.938 -0.211 -0.352 -0.363 -0.345 -0.345
 0.196  0.942 -0.208 -0.350 -0.362 -0.344 -0.344
 0.198  0.945 -0.204 -0.348 -0.360 -0.342 -0.342
 0.200  0.949 -0.200 -0.345 -0.359 -0.341 -0.341
 0.202  0.953 -0.196 -0.343 -0.358 -0.339 -0.339
 0.204  0.956 -0.192 -0.341 -0.356 -0.338 -0.338
 0.206  0.959 -0.188 -0.339 -0.355 -0.336 -0.336
 0.208  0.963 -0.184 -0.338 -0.354 -0.335 -0.335
 0.210  0.966 -0.180 -0.335 -0.352 -0.334 -0.334
 0.212  0.970 -0.176 -0.333 -0.351 -0.333 -0.333
 0.214  0.973 -0.172 -0.331 -0.350 -0.332 -0.332
 0.216  0.976 -0.168 -0.330 -0.348 -0.330 -0.330
 0.218  0.980 -0.164 -0.328 -0.347 -0.329 -0.329
 0.220  0.983 -0.160 -0.325 -0.346 -0.328 -0.328
 0.222  0.986 -0.156 -0.324 -0.344 -0.327 -0.327
 0.224  0.989 -0.152 -0.322 -0.343 -0.326 -0.326
 0.226  0.993 -0.148 -0.320 -0.342 -0.325 -0.325
 0.228  0.996 -0.144 -0.318 -0.340 -0.324 -0.324
 0.230  0.999 -0.140 -0.316 -0.339 -0.323 -0.323
 0.232  1.002 -0.137 -0.314 -0.338 -0.322 -0.322
 0.234  1.005 -0.133 -0.313 -0.336 -0.321 -0.321
 0.236  1.009 -0.129 -0.310 -0.335 -0.319 -0.319
 0.238  1.012 -0.125 -0.308 -0.334 -0.318 -0.318
 0.240  1.014 -0.122 -0.306 -0.332 -0.317 -0.317
 0.242  1.018 -0.118 -0.305 -0.331 -0.316 -0.316
 0.244  1.021 -0.115 -0.303 -0.330 -0.315 -0.315
 0.246  1.024 -0.110 -0.300 -0.328 -0.314 -0.314
 0.248  1.028 -0.106 -0.298 -0.327 -0.313 -0.313
 0.250  1.030 -0.103 -0.296 -0.326 -0.311 -0.311
 0.252  1.033 -0.099 -0.295 -0.324 -0.311 -0.311
 0.254  1.037 -0.096 -0.293 -0.323 -0.309 -0.309
 0.256  1.040 -0.093 -0.290 -0.321 -0.308 -0.308
 0.258  1.042 -0.089 -0.288 -0.319 -0.307 -0.307
 0.260  1.045 -0.086 -0.286 -0.318 -0.305 -0.305
 0.262  1.049 -0.083 -0.284 -0.316 -0.304 -0.304
 0.264  1.052 -0.079 -0.282 -0.315 -0.302 -0.302
 0.266  1.055 -0.076 -0.280 -0.313 -0.301 -0.301
 0.268  1.057 -0.073 -0.278 -0.312 -0.300 -0.300
 0.270  1.060 -0.070 -0.276 -0.310 -0.298 -0.298
 0.272  1.064 -0.067 -0.274 -0.309 -0.297 -0.297
 0.274  1.067 -0.064 -0.272 -0.307 -0.295 -0.295
 0.276  1.070 -0.061 -0.270 -0.305 -0.294 -0.294
 0.278  1.072 -0.058 -0.268 -0.304 -0.292 -0.292
 0.280  1.075 -0.055 -0.265 -0.302 -0.291 -0.291
 0.282  1.078 -0.052 -0.263 -0.301 -0.289 -0.289
 0.284  1.081 -0.049 -0.261 -0.299 -0.287 -0.287
 0.286  1.084 -0.046 -0.259 -0.297 -0.286 -0.286
 0.288  1.086 -0.043 -0.257 -0.296 -0.285 -0.285
 0.290  1.089 -0.040 -0.255 -0.294 -0.283 -0.283
 0.292  1.092 -0.038 -0.253 -0.292 -0.281 -0.281
 0.294  1.096 -0.035 -0.250 -0.291 -0.280 -0.280
 0.296  1.099 -0.032 -0.249 -0.289 -0.278 -0.278
 0.298  1.101 -0.029 -0.247 -0.287 -0.276 -0.276
 0.300  1.104 -0.026 -0.245 -0.285 -0.275 -0.275
 0.302  1.107 -0.024 -0.243 -0.284 -0.273 -0.273
 0.304  1.110 -0.021 -0.240 -0.282 -0.271 -0.271
 0.306  1.113 -0.018 -0.238 -0.280 -0.269 -0.269
 0.308  1.114 -0.015 -0.236 -0.279 -0.268 -0.268
 0.310  1.117 -0.012 -0.234 -0.277 -0.266 -0.266
 0.312  1.120 -0.009 -0.232 -0.276 -0.264 -0.264
 0.314  1.123 -0.006 -0.230 -0.274 -0.263 -0.263
 0.316  1.126 -0.004 -0.228 -0.272 -0.262 -0.262
 0.318  1.128 -0.001 -0.226 -0.271 -0.260 -0.260
 0.320  1.131  0.003 -0.224 -0.269 -0.259 -0.259
 0.322  1.134  0.006 -0.222 -0.268 -0.257 -0.257
 0.324  1.137  0.009 -0.220 -0.266 -0.256 -0.256
 0.326  1.140  0.012 -0.218 -0.264 -0.254 -0.254
 0.328  1.143  0.015 -0.215 -0.263 -0.253 -0.253
 0.330  1.145  0.018 -0.214 -0.261 -0.251 -0.251
 0.332  1.148  0.021 -0.212 -0.260 -0.250 -0.250
 0.334  1.150  0.024 -0.210 -0.259 -0.248 -0.248
 0.336  1.153  0.027 -0.208 -0.257 -0.247 -0.247
 0.338  1.156  0.030 -0.205 -0.256 -0.245 -0.245
 0.340  1.158  0.033 -0.204 -0.254 -0.244 -0.244
 0.342  1.161  0.036 -0.202 -0.253 -0.243 -0.243
 0.344  1.164  0.039 -0.200 -0.251 -0.241 -0.241
 0.346  1.167  0.042 -0.198 -0.250 -0.240 -0.240
 0.348  1.169  0.045 -0.195 -0.248 -0.239 -0.239
 0.350  1.171  0.048 -0.194 -0.247 -0.238 -0.238
 0.352  1.174  0.051 -0.192 -0.246 -0.237 -0.237
 0.354  1.177  0.054 -0.190 -0.245 -0.236 -0.236
 0.356  1.180  0.057 -0.188 -0.243 -0.234 -0.234
 0.358  1.182  0.060 -0.186 -0.242 -0.233 -0.233
 0.360  1.185  0.063 -0.184 -0.241 -0.232 -0.232
 0.362  1.187  0.066 -0.182 -0.240 -0.231 -0.231
 0.364  1.190  0.069 -0.180 -0.238 -0.230 -0.230
 0.366  1.193  0.072 -0.178 -0.237 -0.229 -0.229
 0.368  1.195  0.075 -0.176 -0.236 -0.227 -0.227
 0.370  1.198  0.078 -0.175 -0.235 -0.226 -0.226
 0.372  1.200  0.081 -0.173 -0.233 -0.225 -0.225
 0.374  1.202  0.084 -0.170 -0.232 -0.224 -0.224
 0.376  1.205  0.087 -0.169 -0.231 -0.223 -0.223
 0.378  1.208  0.089 -0.167 -0.229 -0.222 -0.222
 0.380  1.210  0.092 -0.165 -0.228 -0.221 -0.221
 0.382  1.213  0.095 -0.163 -0.227 -0.220 -0.220
 0.384  1.215  0.098 -0.162 -0.225 -0.219 -0.219
 0.386  1.217  0.101 -0.160 -0.224 -0.217 -0.217
 0.388  1.220  0.103 -0.158 -0.223 -0.216 -0.216
 0.390  1.223  0.106 -0.156 -0.222 -0.215 -0.215
 0.392  1.225  0.109 -0.155 -0.220 -0.214 -0.214
 0.394  1.228  0.111 -0.153 -0.219 -0.213 -0.213
 0.396  1.229  0.115 -0.151 -0.217 -0.212 -0.212
 0.398  1.232  0.118 -0.149 -0.216 -0.211 -0.211
 0.400  1.234  0.120 -0.148 -0.215 -0.209 -0.209
 0.402  1.237  0.123 -0.146 -0.213 -0.208 -0.208
 0.404  1.239  0.125 -0.144 -0.212 -0.207 -0.207
 0.406  1.242  0.128 -0.143 -0.211 -0.205 -0.205
 0.408  1.243  0.130 -0.140 -0.209 -0.204 -0.204
 0.410  1.246  0.133 -0.139 -0.208 -0.203 -0.203
 0.412  1.248  0.135 -0.138 -0.206 -0.201 -0.201
 0.414  1.251  0.137 -0.136 -0.204 -0.200 -0.200
 0.416  1.253  0.140 -0.134 -0.203 -0.199 -0.199
 0.418  1.255  0.142 -0.133 -0.201 -0.197 -0.197
 0.420  1.257  0.144 -0.131 -0.200 -0.196 -0.196
 0.422  1.259  0.147 -0.129 -0.198 -0.194 -0.194
 0.424  1.262  0.149 -0.128 -0.197 -0.193 -0.193
 0.426  1.264  0.151 -0.126 -0.195 -0.191 -0.191
 0.428  1.266  0.153 -0.125 -0.193 -0.190 -0.190
 0.430  1.269  0.156 -0.123 -0.192 -0.189 -0.189
 0.432  1.271  0.158 -0.121 -0.190 -0.187 -0.187
 0.434  1.272  0.160 -0.120 -0.189 -0.186 -0.186
 0.436  1.274  0.162 -0.118 -0.187 -0.184 -0.184
 0.438  1.277  0.164 -0.117 -0.185 -0.183 -0.183
 0.440  1.279  0.166 -0.115 -0.184 -0.181 -0.181
 0.442  1.281  0.168 -0.114 -0.182 -0.180 -0.180
 0.444  1.283  0.170 -0.113 -0.180 -0.178 -0.178
 0.446  1.285  0.172 -0.110 -0.178 -0.177 -0.177
 0.448  1.286  0.174 -0.109 -0.177 -0.175 -0.175
 0.450  1.289  0.176 -0.108 -0.176 -0.174 -0.174
 0.452  1.291  0.178 -0.106 -0.174 -0.172 -0.172
 0.454  1.293  0.180 -0.105 -0.172 -0.171 -0.171
 0.456  1.295  0.182 -0.103 -0.171 -0.169 -0.169
 0.458  1.297  0.184 -0.102 -0.169 -0.168 -0.168
 0.460  1.299  0.185 -0.100 -0.168 -0.167 -0.167
 0.462  1.300  0.187 -0.099 -0.166 -0.166 -0.166
 0.464  1.302  0.189 -0.098 -0.165 -0.164 -0.164
 0.466  1.303  0.191 -0.095 -0.164 -0.163 -0.163
 0.468  1.305  0.193 -0.094 -0.162 -0.162 -0.162
 0.470  1.307  0.194 -0.093 -0.161 -0.160 -0.160
 0.472  1.309  0.196 -0.091 -0.160 -0.159 -0.159
 0.474  1.311  0.198 -0.090 -0.159 -0.158 -0.158
 0.476  1.313  0.199 -0.088 -0.158 -0.157 -0.157
 0.478  1.314  0.201 -0.087 -0.157 -0.155 -0.155
 0.480  1.315  0.203 -0.085 -0.156 -0.154 -0.154
 0.482  1.317  0.204 -0.084 -0.154 -0.153 -0.153
 0.484  1.318  0.206 -0.083 -0.153 -0.152 -0.152
 0.486  1.320  0.207 -0.081 -0.153 -0.151 -0.151
 0.488  1.322  0.209 -0.080 -0.152 -0.150 -0.150
 0.490  1.323  0.210 -0.078 -0.150 -0.149 -0.149
 0.492  1.325  0.212 -0.077 -0.150 -0.148 -0.148
 0.494  1.326  0.213 -0.075 -0.149 -0.146 -0.146
 0.496  1.328  0.215 -0.074 -0.148 -0.145 -0.145
 0.498  1.329  0.216 -0.073 -0.147 -0.144 -0.144
 0.500  1.330  0.217 -0.071 -0.146 -0.143 -0.143
 0.502  1.331  0.219 -0.070 -0.146 -0.142 -0.142
 0.504  1.333  0.220 -0.069 -0.145 -0.142 -0.142
 0.506  1.334  0.221 -0.068 -0.144 -0.141 -0.141
 0.508  1.335  0.223 -0.066 -0.144 -0.140 -0.140
 0.510  1.337  0.225 -0.065 -0.143 -0.139 -0.139
 0.512  1.338  0.226 -0.063 -0.142 -0.138 -0.138
 0.514  1.339  0.227 -0.062 -0.142 -0.137 -0.137
 0.516  1.341  0.229 -0.061 -0.141 -0.137 -0.137
 0.518  1.342  0.230 -0.060 -0.140 -0.136 -0.136
 0.520  1.343  0.231 -0.058 -0.140 -0.135 -0.135
 0.522  1.343  0.232 -0.057 -0.139 -0.134 -0.134
 0.524  1.344  0.233 -0.056 -0.138 -0.133 -0.133
 0.526  1.346  0.234 -0.055 -0.138 -0.132 -0.132
 0.528  1.347  0.235 -0.053 -0.137 -0.132 -0.132
 0.530  1.348  0.236 -0.053 -0.137 -0.131 -0.131
 0.532  1.349  0.237 -0.051 -0.136 -0.130 -0.130
 0.534  1.350  0.239 -0.050 -0.135 -0.129 -0.129
 0.536  1.351  0.240 -0.049 -0.134 -0.128 -0.128
 0.538  1.352  0.240 -0.048 -0.134 -0.128 -0.128
 0.540  1.353  0.241 -0.047 -0.133 -0.127 -0.127
 0.542  1.354  0.242 -0.045 -0.132 -0.126 -0.126
 0.544  1.354  0.243 -0.045 -0.132 -0.125 -0.125
 0.546  1.355  0.244 -0.043 -0.131 -0.124 -0.124
 0.548  1.356  0.245 -0.043 -0.130 -0.124 -0.124
 0.550  1.357  0.246 -0.041 -0.129 -0.123 -0.123
 0.552  1.358  0.247 -0.040 -0.129 -0.122 -0.122
 0.554  1.358  0.248 -0.039 -0.128 -0.121 -0.121
 0.556  1.358  0.248 -0.038 -0.127 -0.120 -0.120
 0.558  1.359  0.249 -0.038 -0.126 -0.120 -0.120
 0.560  1.359  0.250 -0.036 -0.126 -0.119 -0.119
 0.562  1.360  0.251 -0.035 -0.125 -0.118 -0.118
 0.564  1.361  0.251 -0.035 -0.124 -0.118 -0.118
 0.566  1.361  0.252 -0.033 -0.123 -0.117 -0.117
 0.568  1.362  0.253 -0.033 -0.122 -0.117 -0.117
 0.570  1.362  0.253 -0.032 -0.121 -0.116 -0.116
 0.572  1.363  0.254 -0.031 -0.121 -0.115 -0.115
 0.574  1.363  0.255 -0.030 -0.120 -0.114 -0.114
 0.576  1.364  0.255 -0.029 -0.119 -0.114 -0.114
 0.578  1.364  0.256 -0.028 -0.118 -0.113 -0.113
 0.580  1.365  0.256 -0.028 -0.117 -0.112 -0.112
 0.582  1.365  0.257 -0.027 -0.116 -0.112 -0.112
 0.584  1.365  0.257 -0.026 -0.116 -0.111 -0.111
 0.586  1.366  0.258 -0.025 -0.114 -0.110 -0.110
 0.588  1.366  0.258 -0.025 -0.114 -0.110 -0.110
 0.590  1.366  0.259 -0.024 -0.113 -0.109 -0.109
 0.592  1.367  0.259 -0.023 -0.112 -0.108 -0.108
 0.594  1.367  0.259 -0.023 -0.111 -0.108 -0.108
 0.596  1.367  0.260 -0.023 -0.110 -0.107 -0.107
 0.598  1.367  0.260 -0.022 -0.109 -0.106 -0.106
 0.600  1.367  0.260 -0.021 -0.109 -0.106 -0.106
 0.602  1.367  0.261 -0.020 -0.108 -0.105 -0.105
 0.604  1.368  0.261 -0.020 -0.107 -0.104 -0.104
 0.606  1.368  0.261 -0.020 -0.106 -0.103 -0.103
 0.608  1.368  0.261 -0.020 -0.105 -0.103 -0.103
 0.610  1.368  0.262 -0.019 -0.105 -0.102 -0.102
 0.612  1.368  0.262 -0.019 -0.104 -0.101 -0.101
 0.614  1.368  0.262 -0.018 -0.104 -0.101 -0.101
 0.616  1.368  0.262 -0.018 -0.102 -0.100 -0.100
 0.618  1.368  0.262 -0.018 -0.102 -0.099 -0.099
 0.620  1.368  0.262 -0.018 -0.101 -0.098 -0.098
 0.622  1.368  0.262 -0.017 -0.101 -0.098 -0.098
 0.624  1.368  0.263 -0.017 -0.100 -0.097 -0.097
 0.626  1.368  0.263 -0.017 -0.100 -0.096 -0.096
 0.628  1.367  0.263 -0.017 -0.099 -0.096 -0.096
 0.630  1.367  0.262 -0.016 -0.098 -0.095 -0.095
 0.632  1.367  0.262 -0.016 -0.098 -0.094 -0.094
 0.634  1.367  0.262 -0.016 -0.097 -0.093 -0.093
 0.636  1.367  0.262 -0.016 -0.097 -0.093 -0.093
 0.638  1.366  0.262 -0.016 -0.096 -0.093 -0.093
 0.640  1.366  0.262 -0.016 -0.096 -0.092 -0.092
 0.642  1.366  0.262 -0.016 -0.095 -0.091 -0.091
 0.644  1.365  0.261 -0.016 -0.094 -0.090 -0.090
 0.646  1.365  0.261 -0.016 -0.094 -0.090 -0.090
 0.648  1.365  0.261 -0.016 -0.094 -0.089 -0.089
 0.650  1.364  0.261 -0.016 -0.093 -0.088 -0.088
 0.652  1.364  0.261 -0.016 -0.093 -0.087 -0.087
 0.654  1.364  0.261 -0.015 -0.092 -0.087 -0.087
 0.656  1.363  0.261 -0.015 -0.092 -0.086 -0.086
 0.658  1.363  0.261 -0.015 -0.091 -0.085 -0.085
 0.660  1.363  0.261 -0.015 -0.091 -0.084 -0.084
 0.662  1.363  0.261 -0.015 -0.090 -0.084 -0.084
 0.664  1.362  0.261 -0.015 -0.090 -0.083 -0.083
 0.666  1.362  0.261 -0.014 -0.089 -0.082 -0.082
 0.668  1.362  0.261 -0.014 -0.089 -0.081 -0.081
 0.670  1.362  0.261 -0.013 -0.088 -0.081 -0.081
 0.672  1.362  0.262 -0.013 -0.087 -0.080 -0.080
 0.674  1.361  0.262 -0.012 -0.087 -0.079 -0.079
 0.676  1.361  0.262 -0.012 -0.086 -0.078 -0.078
 0.678  1.361  0.263 -0.011 -0.085 -0.077 -0.077
 0.680  1.361  0.263 -0.010 -0.085 -0.077 -0.077
 0.682  1.361  0.264 -0.010 -0.083 -0.076 -0.076
 0.684  1.361  0.264 -0.009 -0.083 -0.075 -0.075
 0.686  1.361  0.265 -0.008 -0.082 -0.074 -0.074
 0.688  1.361  0.265 -0.008 -0.081 -0.073 -0.073
 0.690  1.361  0.266 -0.006 -0.080 -0.072 -0.072
 0.692  1.361  0.267 -0.005 -0.079 -0.072 -0.072
 0.694  1.361  0.267 -0.005 -0.078 -0.071 -0.071
 0.696  1.362  0.268 -0.004 -0.077 -0.070 -0.070
 0.698  1.362  0.269 -0.003 -0.076 -0.069 -0.069
 0.700  1.362  0.270 -0.002 -0.075 -0.068 -0.068
 0.702  1.362  0.271 -0.000 -0.074 -0.068 -0.068
 0.704  1.362  0.272  0.000 -0.073 -0.067 -0.067
 0.706  1.363  0.273  0.002 -0.072 -0.066 -0.066
 0.708  1.363  0.274  0.003 -0.071 -0.065 -0.065
 0.710  1.363  0.275  0.004 -0.069 -0.064 -0.064
 0.712  1.363  0.276  0.005 -0.068 -0.063 -0.063
 0.714  1.363  0.277  0.007 -0.067 -0.063 -0.063
 0.716  1.364  0.278  0.008 -0.066 -0.062 -0.062
 0.718  1.364  0.279  0.010 -0.065 -0.061 -0.061
 0.720  1.364  0.280  0.011 -0.063 -0.060 -0.060
 0.722  1.365  0.282  0.012 -0.062 -0.059 -0.059
 0.724  1.366  0.283  0.014 -0.061 -0.058 -0.058
 0.726  1.366  0.285  0.016 -0.059 -0.057 -0.057
 0.728  1.367  0.286  0.017 -0.057 -0.056 -0.056
 0.730  1.368  0.288  0.020 -0.056 -0.055 -0.055
 0.732  1.369  0.290  0.021 -0.054 -0.054 -0.054
 0.734  1.370  0.292  0.023 -0.053 -0.053 -0.053
 0.736  1.372  0.294  0.025 -0.051 -0.052 -0.052
 0.738  1.372  0.296  0.027 -0.049 -0.051 -0.051
 0.740  1.374  0.298  0.030 -0.047 -0.050 -0.050
 0.742  1.376  0.300  0.032 -0.046 -0.049 -0.049
 0.744  1.377  0.302  0.034 -0.043 -0.048 -0.048
 0.746  1.379  0.305  0.037 -0.042 -0.046 -0.046
 0.748  1.382  0.307  0.039 -0.039 -0.045 -0.045
 0.750  1.384  0.310  0.041 -0.038 -0.044 -0.044
 0.752  1.386  0.312  0.044 -0.035 -0.043 -0.043
 0.754  1.387  0.315  0.046 -0.033 -0.042 -0.042
 0.756  1.390  0.317  0.049 -0.031 -0.041 -0.041
 0.758  1.392  0.320  0.052 -0.029 -0.039 -0.039
 0.760  1.395  0.323  0.054 -0.026 -0.038 -0.038
 0.762  1.398  0.325  0.057 -0.024 -0.036 -0.036
 0.764  1.401  0.328  0.060 -0.022 -0.035 -0.035
 0.766  1.403  0.331  0.063 -0.019 -0.034 -0.034
 0.768  1.407  0.336  0.066 -0.017 -0.032 -0.032
 0.770  1.410  0.339  0.069 -0.014 -0.031 -0.031
 0.772  1.414  0.343  0.072 -0.011 -0.029 -0.029
 0.774  1.417  0.346  0.076 -0.009 -0.028 -0.028
 0.776  1.421  0.350  0.080 -0.006 -0.026 -0.026
 0.778  1.425  0.354  0.083 -0.003 -0.024 -0.024
 0.780  1.429  0.358  0.087  0.001 -0.023 -0.023
 0.782  1.433  0.362  0.090  0.003 -0.021 -0.021
 0.784  1.438  0.366  0.094  0.006 -0.020 -0.020
 0.786  1.442  0.370  0.097  0.010 -0.018 -0.018
 0.788  1.446  0.373  0.100  0.013 -0.016 -0.016
 0.790  1.450  0.377  0.103  0.016 -0.015 -0.015
 0.792  1.454  0.380  0.107  0.019 -0.013 -0.013
 0.794  1.458  0.383  0.110  0.022 -0.011 -0.011
 0.796  1.462  0.386  0.112  0.026 -0.009 -0.009
 0.798  1.466  0.389  0.115  0.029 -0.008 -0.008
 0.800  1.469  0.391  0.117  0.032 -0.006 -0.006
 0.802  1.472  0.393  0.119  0.034 -0.004 -0.004
 0.804  1.475  0.395  0.121  0.037 -0.003 -0.003
 0.806  1.478  0.396  0.122  0.039 -0.002 -0.002
 0.808  1.480  0.397  0.124  0.041 -0.001 -0.001
