# IsPeriodic    : True
# Period        : 0.630076 days
# Normalization : <g_mag>=0
# 
# Phase u_mag  g_mag  r_mag  i_mag  z_mag  y_mag
 0.000  0.830 -0.344 -0.380 -0.413 -0.426 -0.426
 0.002  0.830 -0.344 -0.380 -0.413 -0.426 -0.426
 0.004  0.830 -0.344 -0.380 -0.413 -0.425 -0.425
 0.006  0.831 -0.343 -0.380 -0.413 -0.425 -0.425
 0.008  0.831 -0.342 -0.380 -0.412 -0.425 -0.425
 0.010  0.832 -0.341 -0.380 -0.412 -0.424 -0.424
 0.012  0.833 -0.339 -0.379 -0.411 -0.423 -0.423
 0.014  0.834 -0.338 -0.379 -0.411 -0.423 -0.423
 0.016  0.835 -0.336 -0.378 -0.410 -0.422 -0.422
 0.018  0.837 -0.334 -0.378 -0.410 -0.420 -0.420
 0.020  0.838 -0.332 -0.378 -0.409 -0.420 -0.420
 0.022  0.839 -0.330 -0.377 -0.408 -0.418 -0.418
 0.024  0.841 -0.328 -0.377 -0.408 -0.418 -0.418
 0.026  0.843 -0.326 -0.376 -0.407 -0.416 -0.416
 0.028  0.844 -0.324 -0.375 -0.406 -0.415 -0.415
 0.030  0.846 -0.321 -0.375 -0.406 -0.415 -0.415
 0.032  0.848 -0.319 -0.374 -0.405 -0.414 -0.414
 0.034  0.849 -0.317 -0.373 -0.404 -0.413 -0.413
 0.036  0.851 -0.314 -0.372 -0.404 -0.412 -0.412
 0.038  0.853 -0.312 -0.372 -0.403 -0.411 -0.411
 0.040  0.855 -0.309 -0.371 -0.402 -0.410 -0.410
 0.042  0.857 -0.307 -0.370 -0.402 -0.409 -0.409
 0.044  0.858 -0.304 -0.369 -0.401 -0.408 -0.408
 0.046  0.860 -0.302 -0.367 -0.400 -0.407 -0.407
 0.048  0.862 -0.299 -0.367 -0.399 -0.406 -0.406
 0.050  0.864 -0.297 -0.366 -0.399 -0.406 -0.406
 0.052  0.866 -0.294 -0.364 -0.398 -0.404 -0.404
 0.054  0.868 -0.292 -0.363 -0.397 -0.403 -0.403
 0.056  0.870 -0.289 -0.362 -0.396 -0.403 -0.403
 0.058  0.872 -0.286 -0.360 -0.396 -0.402 -0.402
 0.060  0.874 -0.284 -0.359 -0.395 -0.401 -0.401
 0.062  0.876 -0.281 -0.358 -0.394 -0.400 -0.400
 0.064  0.879 -0.278 -0.356 -0.394 -0.399 -0.399
 0.066  0.881 -0.275 -0.355 -0.393 -0.398 -0.398
 0.068  0.883 -0.272 -0.353 -0.392 -0.397 -0.397
 0.070  0.886 -0.270 -0.351 -0.391 -0.396 -0.396
 0.072  0.888 -0.266 -0.350 -0.391 -0.395 -0.395
 0.074  0.890 -0.264 -0.348 -0.390 -0.394 -0.394
 0.076  0.893 -0.260 -0.346 -0.389 -0.393 -0.393
 0.078  0.895 -0.258 -0.345 -0.388 -0.392 -0.392
 0.080  0.898 -0.255 -0.343 -0.388 -0.391 -0.391
 0.082  0.901 -0.252 -0.341 -0.387 -0.390 -0.390
 0.084  0.903 -0.249 -0.340 -0.386 -0.389 -0.389
 0.086  0.906 -0.245 -0.338 -0.385 -0.388 -0.388
 0.088  0.908 -0.242 -0.336 -0.384 -0.387 -0.387
 0.090  0.911 -0.239 -0.335 -0.384 -0.387 -0.387
 0.092  0.913 -0.236 -0.333 -0.383 -0.386 -0.386
 0.094  0.916 -0.233 -0.331 -0.382 -0.385 -0.385
 0.096  0.918 -0.230 -0.330 -0.381 -0.384 -0.384
 0.098  0.921 -0.227 -0.328 -0.381 -0.383 -0.383
 0.100  0.923 -0.224 -0.327 -0.380 -0.382 -0.382
 0.102  0.926 -0.221 -0.326 -0.379 -0.381 -0.381
 0.104  0.928 -0.218 -0.324 -0.378 -0.380 -0.380
 0.106  0.931 -0.215 -0.323 -0.377 -0.379 -0.379
 0.108  0.933 -0.212 -0.321 -0.376 -0.378 -0.378
 0.110  0.936 -0.209 -0.320 -0.376 -0.377 -0.377
 0.112  0.938 -0.206 -0.319 -0.375 -0.376 -0.376
 0.114  0.940 -0.204 -0.317 -0.374 -0.375 -0.375
 0.116  0.943 -0.201 -0.316 -0.373 -0.375 -0.375
 0.118  0.945 -0.198 -0.315 -0.372 -0.374 -0.374
 0.120  0.947 -0.196 -0.313 -0.371 -0.373 -0.373
 0.122  0.950 -0.193 -0.312 -0.370 -0.372 -0.372
 0.124  0.952 -0.190 -0.311 -0.369 -0.371 -0.371
 0.126  0.954 -0.188 -0.310 -0.368 -0.370 -0.370
 0.128  0.956 -0.185 -0.309 -0.367 -0.369 -0.369
 0.130  0.958 -0.183 -0.308 -0.366 -0.368 -0.368
 0.132  0.960 -0.180 -0.307 -0.365 -0.368 -0.368
 0.134  0.963 -0.177 -0.305 -0.364 -0.367 -0.367
 0.136  0.965 -0.175 -0.304 -0.363 -0.366 -0.366
 0.138  0.967 -0.172 -0.304 -0.362 -0.365 -0.365
 0.140  0.969 -0.170 -0.302 -0.361 -0.364 -0.364
 0.142  0.971 -0.168 -0.301 -0.360 -0.363 -0.363
 0.144  0.973 -0.165 -0.301 -0.359 -0.363 -0.363
 0.146  0.975 -0.163 -0.299 -0.357 -0.362 -0.362
 0.148  0.977 -0.161 -0.298 -0.356 -0.361 -0.361
 0.150  0.978 -0.159 -0.298 -0.355 -0.360 -0.360
 0.152  0.980 -0.157 -0.296 -0.354 -0.359 -0.359
 0.154  0.982 -0.155 -0.296 -0.353 -0.358 -0.358
 0.156  0.984 -0.153 -0.295 -0.352 -0.358 -0.358
 0.158  0.986 -0.150 -0.294 -0.351 -0.357 -0.357
 0.160  0.988 -0.148 -0.293 -0.349 -0.356 -0.356
 0.162  0.990 -0.147 -0.292 -0.348 -0.355 -0.355
 0.164  0.991 -0.144 -0.290 -0.347 -0.354 -0.354
 0.166  0.993 -0.142 -0.290 -0.346 -0.353 -0.353
 0.168  0.995 -0.140 -0.289 -0.345 -0.353 -0.353
 0.170  0.997 -0.138 -0.287 -0.344 -0.352 -0.352
 0.172  0.999 -0.136 -0.286 -0.342 -0.351 -0.351
 0.174  1.001 -0.134 -0.285 -0.341 -0.350 -0.350
 0.176  1.003 -0.131 -0.284 -0.340 -0.349 -0.349
 0.178  1.004 -0.129 -0.283 -0.339 -0.348 -0.348
 0.180  1.006 -0.127 -0.281 -0.338 -0.348 -0.348
 0.182  1.009 -0.125 -0.280 -0.337 -0.347 -0.347
 0.184  1.010 -0.123 -0.279 -0.336 -0.346 -0.346
 0.186  1.012 -0.121 -0.278 -0.335 -0.345 -0.345
 0.188  1.014 -0.118 -0.276 -0.334 -0.345 -0.345
 0.190  1.016 -0.116 -0.275 -0.333 -0.344 -0.344
 0.192  1.018 -0.114 -0.274 -0.332 -0.343 -0.343
 0.194  1.020 -0.112 -0.273 -0.331 -0.342 -0.342
 0.196  1.022 -0.109 -0.271 -0.330 -0.341 -0.341
 0.198  1.024 -0.107 -0.270 -0.329 -0.341 -0.341
 0.200  1.026 -0.105 -0.269 -0.328 -0.340 -0.340
 0.202  1.029 -0.102 -0.267 -0.328 -0.339 -0.339
 0.204  1.030 -0.100 -0.266 -0.327 -0.339 -0.339
 0.206  1.032 -0.098 -0.264 -0.326 -0.338 -0.338
 0.208  1.035 -0.095 -0.263 -0.325 -0.337 -0.337
 0.210  1.036 -0.093 -0.261 -0.324 -0.336 -0.336
 0.212  1.039 -0.090 -0.260 -0.323 -0.336 -0.336
 0.214  1.041 -0.088 -0.258 -0.322 -0.335 -0.335
 0.216  1.043 -0.086 -0.257 -0.322 -0.334 -0.334
 0.218  1.045 -0.083 -0.255 -0.321 -0.333 -0.333
 0.220  1.047 -0.081 -0.254 -0.320 -0.333 -0.333
 0.222  1.049 -0.078 -0.252 -0.319 -0.332 -0.332
 0.224  1.052 -0.076 -0.251 -0.319 -0.331 -0.331
 0.226  1.054 -0.073 -0.249 -0.318 -0.330 -0.330
 0.228  1.056 -0.070 -0.248 -0.317 -0.330 -0.330
 0.230  1.058 -0.068 -0.246 -0.316 -0.329 -0.329
 0.232  1.061 -0.066 -0.245 -0.316 -0.328 -0.328
 0.234  1.062 -0.063 -0.243 -0.315 -0.327 -0.327
 0.236  1.065 -0.060 -0.242 -0.315 -0.327 -0.327
 0.238  1.067 -0.058 -0.240 -0.314 -0.326 -0.326
 0.240  1.069 -0.055 -0.238 -0.313 -0.325 -0.325
 0.242  1.071 -0.053 -0.237 -0.312 -0.325 -0.325
 0.244  1.073 -0.050 -0.235 -0.312 -0.324 -0.324
 0.246  1.075 -0.048 -0.234 -0.311 -0.323 -0.323
 0.248  1.077 -0.046 -0.232 -0.310 -0.322 -0.322
 0.250  1.080 -0.043 -0.231 -0.309 -0.322 -0.322
 0.252  1.081 -0.041 -0.229 -0.309 -0.321 -0.321
 0.254  1.083 -0.039 -0.228 -0.308 -0.320 -0.320
 0.256  1.085 -0.036 -0.226 -0.307 -0.320 -0.320
 0.258  1.087 -0.034 -0.224 -0.306 -0.319 -0.319
 0.260  1.089 -0.032 -0.223 -0.305 -0.318 -0.318
 0.262  1.091 -0.029 -0.221 -0.304 -0.318 -0.318
 0.264  1.093 -0.027 -0.220 -0.303 -0.317 -0.317
 0.266  1.094 -0.025 -0.218 -0.303 -0.316 -0.316
 0.268  1.096 -0.023 -0.217 -0.302 -0.316 -0.316
 0.270  1.098 -0.021 -0.215 -0.301 -0.315 -0.315
 0.272  1.100 -0.019 -0.213 -0.300 -0.315 -0.315
 0.274  1.102 -0.016 -0.212 -0.299 -0.314 -0.314
 0.276  1.104 -0.014 -0.210 -0.298 -0.313 -0.313
 0.278  1.105 -0.013 -0.209 -0.297 -0.312 -0.312
 0.280  1.107 -0.011 -0.207 -0.296 -0.312 -0.312
 0.282  1.109 -0.008 -0.205 -0.295 -0.311 -0.311
 0.284  1.110 -0.006 -0.204 -0.294 -0.310 -0.310
 0.286  1.112 -0.005 -0.202 -0.293 -0.310 -0.310
 0.288  1.113 -0.002 -0.201 -0.292 -0.309 -0.309
 0.290  1.115 -0.001 -0.199 -0.291 -0.308 -0.308
 0.292  1.117  0.001 -0.198 -0.290 -0.308 -0.308
 0.294  1.118  0.003 -0.196 -0.289 -0.307 -0.307
 0.296  1.119  0.005 -0.195 -0.288 -0.307 -0.307
 0.298  1.121  0.006 -0.193 -0.287 -0.306 -0.306
 0.300  1.123  0.008 -0.192 -0.286 -0.305 -0.305
 0.302  1.124  0.010 -0.190 -0.285 -0.305 -0.305
 0.304  1.126  0.012 -0.189 -0.284 -0.304 -0.304
 0.306  1.127  0.013 -0.187 -0.282 -0.303 -0.303
 0.308  1.128  0.015 -0.186 -0.281 -0.303 -0.303
 0.310  1.130  0.017 -0.185 -0.280 -0.302 -0.302
 0.312  1.132  0.019 -0.183 -0.279 -0.301 -0.301
 0.314  1.133  0.020 -0.182 -0.278 -0.301 -0.301
 0.316  1.134  0.022 -0.181 -0.277 -0.300 -0.300
 0.318  1.136  0.023 -0.179 -0.276 -0.299 -0.299
 0.320  1.137  0.025 -0.178 -0.275 -0.299 -0.299
 0.322  1.138  0.027 -0.176 -0.274 -0.298 -0.298
 0.324  1.140  0.029 -0.175 -0.272 -0.297 -0.297
 0.326  1.141  0.030 -0.174 -0.272 -0.296 -0.296
 0.328  1.143  0.032 -0.173 -0.270 -0.296 -0.296
 0.330  1.145  0.034 -0.172 -0.269 -0.295 -0.295
 0.332  1.146  0.036 -0.170 -0.268 -0.294 -0.294
 0.334  1.147  0.038 -0.169 -0.267 -0.294 -0.294
 0.336  1.149  0.039 -0.168 -0.266 -0.293 -0.293
 0.338  1.150  0.041 -0.167 -0.265 -0.292 -0.292
 0.340  1.151  0.042 -0.166 -0.264 -0.291 -0.291
 0.342  1.153  0.045 -0.165 -0.263 -0.291 -0.291
 0.344  1.154  0.046 -0.164 -0.262 -0.290 -0.290
 0.346  1.156  0.048 -0.163 -0.261 -0.289 -0.289
 0.348  1.158  0.050 -0.161 -0.260 -0.288 -0.288
 0.350  1.159  0.052 -0.161 -0.259 -0.288 -0.288
 0.352  1.160  0.053 -0.160 -0.258 -0.287 -0.287
 0.354  1.162  0.055 -0.158 -0.257 -0.286 -0.286
 0.356  1.163  0.057 -0.158 -0.256 -0.285 -0.285
 0.358  1.164  0.059 -0.157 -0.255 -0.284 -0.284
 0.360  1.166  0.060 -0.156 -0.254 -0.284 -0.284
 0.362  1.167  0.062 -0.155 -0.253 -0.283 -0.283
 0.364  1.169  0.064 -0.154 -0.252 -0.282 -0.282
 0.366  1.170  0.066 -0.153 -0.251 -0.281 -0.281
 0.368  1.172  0.067 -0.152 -0.250 -0.281 -0.281
 0.370  1.173  0.069 -0.151 -0.249 -0.280 -0.280
 0.372  1.175  0.071 -0.150 -0.248 -0.279 -0.279
 0.374  1.176  0.073 -0.149 -0.247 -0.278 -0.278
 0.376  1.177  0.075 -0.148 -0.246 -0.277 -0.277
 0.378  1.179  0.076 -0.148 -0.245 -0.277 -0.277
 0.380  1.180  0.078 -0.146 -0.244 -0.276 -0.276
 0.382  1.182  0.080 -0.146 -0.243 -0.275 -0.275
 0.384  1.183  0.082 -0.145 -0.243 -0.274 -0.274
 0.386  1.185  0.083 -0.144 -0.242 -0.273 -0.273
 0.388  1.186  0.085 -0.143 -0.241 -0.272 -0.272
 0.390  1.188  0.087 -0.142 -0.240 -0.272 -0.272
 0.392  1.189  0.088 -0.141 -0.239 -0.271 -0.271
 0.394  1.190  0.090 -0.140 -0.238 -0.270 -0.270
 0.396  1.191  0.091 -0.139 -0.237 -0.269 -0.269
 0.398  1.193  0.093 -0.138 -0.236 -0.269 -0.269
 0.400  1.194  0.095 -0.137 -0.235 -0.268 -0.268
 0.402  1.196  0.096 -0.137 -0.234 -0.267 -0.267
 0.404  1.197  0.097 -0.135 -0.233 -0.266 -0.266
 0.406  1.198  0.099 -0.135 -0.233 -0.266 -0.266
 0.408  1.200  0.100 -0.134 -0.232 -0.265 -0.265
 0.410  1.201  0.102 -0.133 -0.231 -0.264 -0.264
 0.412  1.202  0.103 -0.132 -0.230 -0.263 -0.263
 0.414  1.203  0.104 -0.131 -0.229 -0.263 -0.263
 0.416  1.205  0.106 -0.130 -0.228 -0.262 -0.262
 0.418  1.206  0.107 -0.129 -0.227 -0.261 -0.261
 0.420  1.207  0.108 -0.128 -0.226 -0.260 -0.260
 0.422  1.209  0.110 -0.128 -0.225 -0.260 -0.260
 0.424  1.210  0.111 -0.126 -0.225 -0.259 -0.259
 0.426  1.211  0.112 -0.126 -0.224 -0.258 -0.258
 0.428  1.212  0.114 -0.125 -0.223 -0.258 -0.258
 0.430  1.214  0.115 -0.124 -0.222 -0.257 -0.257
 0.432  1.215  0.116 -0.123 -0.222 -0.256 -0.256
 0.434  1.216  0.117 -0.122 -0.221 -0.255 -0.255
 0.436  1.217  0.118 -0.121 -0.220 -0.255 -0.255
 0.438  1.218  0.119 -0.120 -0.219 -0.254 -0.254
 0.440  1.220  0.120 -0.119 -0.218 -0.253 -0.253
 0.442  1.221  0.121 -0.119 -0.218 -0.253 -0.253
 0.444  1.222  0.122 -0.117 -0.217 -0.252 -0.252
 0.446  1.223  0.123 -0.117 -0.216 -0.251 -0.251
 0.448  1.224  0.124 -0.116 -0.215 -0.251 -0.251
 0.450  1.225  0.125 -0.115 -0.214 -0.250 -0.250
 0.452  1.227  0.126 -0.114 -0.214 -0.249 -0.249
 0.454  1.228  0.127 -0.113 -0.213 -0.249 -0.249
 0.456  1.228  0.128 -0.113 -0.212 -0.248 -0.248
 0.458  1.230  0.129 -0.112 -0.211 -0.248 -0.248
 0.460  1.231  0.130 -0.111 -0.210 -0.247 -0.247
 0.462  1.232  0.131 -0.110 -0.210 -0.246 -0.246
 0.464  1.233  0.132 -0.109 -0.209 -0.245 -0.245
 0.466  1.234  0.133 -0.108 -0.208 -0.245 -0.245
 0.468  1.234  0.134 -0.108 -0.207 -0.244 -0.244
 0.470  1.235  0.135 -0.107 -0.206 -0.243 -0.243
 0.472  1.236  0.136 -0.106 -0.206 -0.243 -0.243
 0.474  1.237  0.136 -0.105 -0.205 -0.242 -0.242
 0.476  1.238  0.137 -0.104 -0.204 -0.242 -0.242
 0.478  1.239  0.138 -0.104 -0.203 -0.241 -0.241
 0.480  1.240  0.139 -0.103 -0.202 -0.241 -0.241
 0.482  1.241  0.140 -0.102 -0.202 -0.240 -0.240
 0.484  1.241  0.141 -0.101 -0.201 -0.239 -0.239
 0.486  1.242  0.142 -0.101 -0.200 -0.238 -0.238
 0.488  1.243  0.143 -0.100 -0.200 -0.238 -0.238
 0.490  1.244  0.144 -0.099 -0.199 -0.237 -0.237
 0.492  1.244  0.145 -0.098 -0.198 -0.237 -0.237
 0.494  1.245  0.145 -0.097 -0.197 -0.236 -0.236
 0.496  1.246  0.147 -0.097 -0.196 -0.236 -0.236
 0.498  1.246  0.148 -0.096 -0.196 -0.235 -0.235
 0.500  1.247  0.148 -0.095 -0.195 -0.234 -0.234
 0.502  1.247  0.149 -0.094 -0.194 -0.234 -0.234
 0.504  1.248  0.150 -0.094 -0.193 -0.233 -0.233
 0.506  1.248  0.151 -0.093 -0.193 -0.233 -0.233
 0.508  1.249  0.152 -0.093 -0.192 -0.232 -0.232
 0.510  1.249  0.153 -0.092 -0.191 -0.231 -0.231
 0.512  1.250  0.154 -0.091 -0.190 -0.231 -0.231
 0.514  1.250  0.155 -0.090 -0.190 -0.230 -0.230
 0.516  1.251  0.156 -0.090 -0.189 -0.230 -0.230
 0.518  1.251  0.156 -0.089 -0.188 -0.229 -0.229
 0.520  1.252  0.157 -0.088 -0.187 -0.229 -0.229
 0.522  1.252  0.158 -0.088 -0.187 -0.228 -0.228
 0.524  1.253  0.159 -0.087 -0.186 -0.227 -0.227
 0.526  1.253  0.159 -0.087 -0.185 -0.227 -0.227
 0.528  1.253  0.161 -0.086 -0.185 -0.226 -0.226
 0.530  1.254  0.161 -0.085 -0.184 -0.226 -0.226
 0.532  1.254  0.162 -0.085 -0.183 -0.225 -0.225
 0.534  1.254  0.162 -0.084 -0.182 -0.225 -0.225
 0.536  1.255  0.163 -0.084 -0.182 -0.224 -0.224
 0.538  1.255  0.163 -0.083 -0.181 -0.224 -0.224
 0.540  1.256  0.164 -0.082 -0.180 -0.223 -0.223
 0.542  1.256  0.164 -0.082 -0.180 -0.223 -0.223
 0.544  1.256  0.165 -0.081 -0.179 -0.222 -0.222
 0.546  1.257  0.165 -0.081 -0.178 -0.222 -0.222
 0.548  1.257  0.165 -0.080 -0.178 -0.221 -0.221
 0.550  1.258  0.166 -0.080 -0.177 -0.221 -0.221
 0.552  1.258  0.166 -0.079 -0.176 -0.221 -0.221
 0.554  1.258  0.166 -0.079 -0.176 -0.220 -0.220
 0.556  1.259  0.167 -0.078 -0.175 -0.220 -0.220
 0.558  1.259  0.167 -0.078 -0.175 -0.219 -0.219
 0.560  1.259  0.167 -0.077 -0.174 -0.219 -0.219
 0.562  1.260  0.167 -0.076 -0.173 -0.218 -0.218
 0.564  1.260  0.167 -0.076 -0.173 -0.218 -0.218
 0.566  1.260  0.167 -0.076 -0.172 -0.217 -0.217
 0.568  1.260  0.167 -0.075 -0.171 -0.217 -0.217
 0.570  1.261  0.167 -0.075 -0.171 -0.217 -0.217
 0.572  1.261  0.167 -0.074 -0.170 -0.216 -0.216
 0.574  1.262  0.167 -0.074 -0.170 -0.216 -0.216
 0.576  1.262  0.167 -0.073 -0.169 -0.215 -0.215
 0.578  1.262  0.166 -0.073 -0.169 -0.215 -0.215
 0.580  1.263  0.166 -0.072 -0.168 -0.215 -0.215
 0.582  1.263  0.165 -0.072 -0.168 -0.214 -0.214
 0.584  1.263  0.165 -0.072 -0.167 -0.214 -0.214
 0.586  1.264  0.165 -0.071 -0.167 -0.214 -0.214
 0.588  1.264  0.164 -0.070 -0.166 -0.213 -0.213
 0.590  1.264  0.164 -0.070 -0.166 -0.213 -0.213
 0.592  1.265  0.164 -0.070 -0.165 -0.212 -0.212
 0.594  1.265  0.163 -0.069 -0.165 -0.212 -0.212
 0.596  1.265  0.163 -0.069 -0.164 -0.212 -0.212
 0.598  1.266  0.163 -0.068 -0.164 -0.211 -0.211
 0.600  1.266  0.163 -0.067 -0.163 -0.211 -0.211
 0.602  1.266  0.162 -0.067 -0.163 -0.211 -0.211
 0.604  1.266  0.162 -0.066 -0.162 -0.210 -0.210
 0.606  1.266  0.162 -0.066 -0.162 -0.210 -0.210
 0.608  1.266  0.162 -0.065 -0.162 -0.209 -0.209
 0.610  1.267  0.162 -0.065 -0.161 -0.209 -0.209
 0.612  1.267  0.162 -0.064 -0.160 -0.209 -0.209
 0.614  1.267  0.162 -0.064 -0.160 -0.208 -0.208
 0.616  1.267  0.162 -0.063 -0.160 -0.208 -0.208
 0.618  1.268  0.162 -0.063 -0.159 -0.208 -0.208
 0.620  1.268  0.162 -0.062 -0.159 -0.207 -0.207
 0.622  1.268  0.162 -0.061 -0.158 -0.207 -0.207
 0.624  1.268  0.162 -0.061 -0.158 -0.207 -0.207
 0.626  1.268  0.162 -0.060 -0.158 -0.206 -0.206
 0.628  1.268  0.162 -0.060 -0.157 -0.206 -0.206
 0.630  1.269  0.163 -0.059 -0.157 -0.205 -0.205
 0.632  1.269  0.163 -0.058 -0.156 -0.205 -0.205
 0.634  1.269  0.163 -0.058 -0.156 -0.205 -0.205
 0.636  1.269  0.164 -0.057 -0.156 -0.204 -0.204
 0.638  1.269  0.164 -0.056 -0.155 -0.204 -0.204
 0.640  1.269  0.164 -0.056 -0.155 -0.204 -0.204
 0.642  1.269  0.165 -0.055 -0.154 -0.203 -0.203
 0.644  1.269  0.165 -0.054 -0.154 -0.203 -0.203
 0.646  1.270  0.166 -0.053 -0.154 -0.202 -0.202
 0.648  1.270  0.167 -0.053 -0.153 -0.202 -0.202
 0.650  1.270  0.167 -0.052 -0.153 -0.202 -0.202
 0.652  1.270  0.168 -0.051 -0.152 -0.201 -0.201
 0.654  1.270  0.169 -0.050 -0.152 -0.201 -0.201
 0.656  1.270  0.169 -0.050 -0.152 -0.200 -0.200
 0.658  1.270  0.170 -0.049 -0.152 -0.200 -0.200
 0.660  1.270  0.171 -0.048 -0.151 -0.200 -0.200
 0.662  1.270  0.171 -0.047 -0.151 -0.199 -0.199
 0.664  1.270  0.172 -0.046 -0.150 -0.199 -0.199
 0.666  1.270  0.173 -0.046 -0.150 -0.198 -0.198
 0.668  1.270  0.174 -0.044 -0.150 -0.198 -0.198
 0.670  1.270  0.175 -0.043 -0.149 -0.197 -0.197
 0.672  1.270  0.176 -0.043 -0.149 -0.197 -0.197
 0.674  1.271  0.176 -0.041 -0.148 -0.197 -0.197
 0.676  1.271  0.177 -0.040 -0.148 -0.196 -0.196
 0.678  1.271  0.178 -0.039 -0.148 -0.196 -0.196
 0.680  1.271  0.178 -0.038 -0.147 -0.195 -0.195
 0.682  1.272  0.179 -0.037 -0.147 -0.195 -0.195
 0.684  1.272  0.180 -0.036 -0.146 -0.194 -0.194
 0.686  1.272  0.181 -0.035 -0.146 -0.194 -0.194
 0.688  1.272  0.181 -0.033 -0.145 -0.193 -0.193
 0.690  1.273  0.182 -0.032 -0.145 -0.193 -0.193
 0.692  1.273  0.183 -0.031 -0.144 -0.192 -0.192
 0.694  1.273  0.183 -0.029 -0.144 -0.192 -0.192
 0.696  1.273  0.184 -0.028 -0.143 -0.191 -0.191
 0.698  1.274  0.184 -0.027 -0.143 -0.191 -0.191
 0.700  1.274  0.185 -0.025 -0.142 -0.190 -0.190
 0.702  1.274  0.186 -0.024 -0.142 -0.190 -0.190
 0.704  1.275  0.186 -0.022 -0.141 -0.189 -0.189
 0.706  1.275  0.187 -0.021 -0.140 -0.189 -0.189
 0.708  1.276  0.188 -0.019 -0.140 -0.188 -0.188
 0.710  1.276  0.188 -0.018 -0.139 -0.188 -0.188
 0.712  1.277  0.189 -0.016 -0.138 -0.187 -0.187
 0.714  1.278  0.189 -0.014 -0.138 -0.186 -0.186
 0.716  1.278  0.190 -0.013 -0.137 -0.186 -0.186
 0.718  1.279  0.190 -0.011 -0.136 -0.185 -0.185
 0.720  1.279  0.191 -0.010 -0.136 -0.185 -0.185
 0.722  1.280  0.192 -0.008 -0.135 -0.184 -0.184
 0.724  1.280  0.192 -0.007 -0.134 -0.183 -0.183
 0.726  1.281  0.192 -0.006 -0.133 -0.183 -0.183
 0.728  1.282  0.193 -0.005 -0.133 -0.182 -0.182
 0.730  1.282  0.194 -0.005 -0.132 -0.181 -0.181
 0.732  1.283  0.194 -0.004 -0.131 -0.181 -0.181
 0.734  1.284  0.195 -0.004 -0.131 -0.180 -0.180
 0.736  1.284  0.195 -0.004 -0.130 -0.179 -0.179
 0.738  1.285  0.195 -0.004 -0.130 -0.178 -0.178
 0.740  1.285  0.195 -0.005 -0.129 -0.178 -0.178
 0.742  1.286  0.196 -0.005 -0.129 -0.177 -0.177
 0.744  1.286  0.196 -0.006 -0.129 -0.176 -0.176
 0.746  1.287  0.196 -0.007 -0.129 -0.175 -0.175
 0.748  1.287  0.196 -0.008 -0.129 -0.174 -0.174
 0.750  1.288  0.196 -0.009 -0.129 -0.173 -0.173
 0.752  1.288  0.196 -0.011 -0.129 -0.172 -0.172
 0.754  1.289  0.195 -0.013 -0.129 -0.171 -0.171
 0.756  1.289  0.195 -0.015 -0.129 -0.170 -0.170
 0.758  1.290  0.195 -0.017 -0.130 -0.169 -0.169
 0.760  1.290  0.194 -0.019 -0.131 -0.168 -0.168
 0.762  1.291  0.194 -0.022 -0.131 -0.167 -0.167
 0.764  1.291  0.194 -0.025 -0.132 -0.166 -0.166
 0.766  1.291  0.192 -0.027 -0.133 -0.164 -0.164
 0.768  1.292  0.192 -0.031 -0.134 -0.163 -0.163
 0.770  1.292  0.191 -0.034 -0.135 -0.162 -0.162
 0.772  1.292  0.190 -0.038 -0.136 -0.161 -0.161
 0.774  1.292  0.190 -0.041 -0.137 -0.159 -0.159
 0.776  1.292  0.189 -0.046 -0.138 -0.158 -0.158
 0.778  1.292  0.188 -0.050 -0.140 -0.157 -0.157
 0.780  1.292  0.186 -0.054 -0.141 -0.155 -0.155
 0.782  1.292  0.185 -0.059 -0.143 -0.154 -0.154
 0.784  1.293  0.184 -0.064 -0.144 -0.152 -0.152
 0.786  1.293  0.183 -0.069 -0.146 -0.151 -0.151
 0.788  1.293  0.182 -0.073 -0.148 -0.149 -0.149
 0.790  1.293  0.180 -0.079 -0.150 -0.147 -0.147
 0.792  1.293  0.179 -0.084 -0.152 -0.146 -0.146
 0.794  1.293  0.177 -0.089 -0.154 -0.144 -0.144
 0.796  1.293  0.176 -0.094 -0.157 -0.143 -0.143
 0.798  1.293  0.174 -0.099 -0.159 -0.141 -0.141
 0.800  1.293  0.172 -0.105 -0.162 -0.140 -0.140
 0.802  1.293  0.171 -0.110 -0.164 -0.138 -0.138
 0.804  1.293  0.169 -0.115 -0.167 -0.137 -0.137
 0.806  1.292  0.167 -0.120 -0.169 -0.136 -0.136
 0.808  1.292  0.164 -0.126 -0.172 -0.135 -0.135
