# IsPeriodic    : True
# Period        : 0.601093 days
# Normalization : <g_mag>=0
# 
# Phase u_mag  g_mag  r_mag  i_mag  z_mag  y_mag
 0.000  0.729 -0.463 -0.495 -0.463 -0.406 -0.406
 0.002  0.729 -0.463 -0.495 -0.463 -0.406 -0.406
 0.004  0.730 -0.462 -0.495 -0.463 -0.406 -0.406
 0.006  0.732 -0.462 -0.494 -0.462 -0.405 -0.405
 0.008  0.734 -0.461 -0.493 -0.462 -0.405 -0.405
 0.010  0.737 -0.460 -0.492 -0.461 -0.404 -0.404
 0.012  0.740 -0.460 -0.491 -0.460 -0.404 -0.404
 0.014  0.745 -0.459 -0.489 -0.459 -0.403 -0.403
 0.016  0.749 -0.457 -0.487 -0.458 -0.402 -0.402
 0.018  0.754 -0.456 -0.486 -0.457 -0.401 -0.401
 0.020  0.759 -0.454 -0.485 -0.455 -0.400 -0.400
 0.022  0.764 -0.453 -0.482 -0.454 -0.399 -0.399
 0.024  0.769 -0.451 -0.481 -0.452 -0.398 -0.398
 0.026  0.774 -0.449 -0.479 -0.451 -0.397 -0.397
 0.028  0.780 -0.446 -0.477 -0.449 -0.396 -0.396
 0.030  0.784 -0.444 -0.475 -0.448 -0.395 -0.395
 0.032  0.790 -0.442 -0.474 -0.446 -0.394 -0.394
 0.034  0.794 -0.439 -0.471 -0.444 -0.392 -0.392
 0.036  0.799 -0.435 -0.470 -0.442 -0.391 -0.391
 0.038  0.804 -0.433 -0.468 -0.441 -0.390 -0.390
 0.040  0.808 -0.429 -0.466 -0.439 -0.389 -0.389
 0.042  0.814 -0.426 -0.464 -0.437 -0.388 -0.388
 0.044  0.818 -0.422 -0.462 -0.435 -0.386 -0.386
 0.046  0.823 -0.418 -0.460 -0.433 -0.385 -0.385
 0.048  0.828 -0.414 -0.458 -0.432 -0.384 -0.384
 0.050  0.832 -0.411 -0.456 -0.430 -0.383 -0.383
 0.052  0.837 -0.407 -0.454 -0.428 -0.382 -0.382
 0.054  0.841 -0.402 -0.451 -0.427 -0.381 -0.381
 0.056  0.847 -0.397 -0.449 -0.425 -0.380 -0.380
 0.058  0.851 -0.394 -0.447 -0.424 -0.379 -0.379
 0.060  0.856 -0.389 -0.445 -0.422 -0.378 -0.378
 0.062  0.861 -0.384 -0.442 -0.421 -0.377 -0.377
 0.064  0.865 -0.380 -0.439 -0.419 -0.376 -0.376
 0.066  0.870 -0.375 -0.437 -0.418 -0.375 -0.375
 0.068  0.875 -0.371 -0.434 -0.416 -0.374 -0.374
 0.070  0.879 -0.366 -0.431 -0.415 -0.372 -0.372
 0.072  0.884 -0.362 -0.429 -0.413 -0.372 -0.372
 0.074  0.888 -0.358 -0.426 -0.411 -0.371 -0.371
 0.076  0.893 -0.354 -0.424 -0.410 -0.369 -0.369
 0.078  0.898 -0.349 -0.421 -0.408 -0.368 -0.368
 0.080  0.902 -0.345 -0.418 -0.407 -0.367 -0.367
 0.082  0.906 -0.341 -0.416 -0.405 -0.366 -0.366
 0.084  0.911 -0.337 -0.413 -0.404 -0.365 -0.365
 0.086  0.915 -0.333 -0.410 -0.402 -0.364 -0.364
 0.088  0.920 -0.329 -0.408 -0.401 -0.364 -0.364
 0.090  0.924 -0.324 -0.405 -0.399 -0.362 -0.362
 0.092  0.929 -0.320 -0.403 -0.398 -0.361 -0.361
 0.094  0.933 -0.317 -0.400 -0.396 -0.361 -0.361
 0.096  0.937 -0.313 -0.398 -0.395 -0.359 -0.359
 0.098  0.942 -0.309 -0.395 -0.393 -0.358 -0.358
 0.100  0.946 -0.305 -0.393 -0.392 -0.358 -0.358
 0.102  0.950 -0.301 -0.390 -0.390 -0.356 -0.356
 0.104  0.954 -0.297 -0.387 -0.389 -0.356 -0.356
 0.106  0.958 -0.293 -0.385 -0.387 -0.355 -0.355
 0.108  0.962 -0.290 -0.383 -0.386 -0.354 -0.354
 0.110  0.966 -0.286 -0.381 -0.385 -0.353 -0.353
 0.112  0.970 -0.282 -0.378 -0.383 -0.352 -0.352
 0.114  0.974 -0.279 -0.376 -0.382 -0.351 -0.351
 0.116  0.978 -0.275 -0.374 -0.380 -0.350 -0.350
 0.118  0.982 -0.272 -0.371 -0.379 -0.349 -0.349
 0.120  0.986 -0.268 -0.369 -0.378 -0.348 -0.348
 0.122  0.989 -0.265 -0.367 -0.376 -0.347 -0.347
 0.124  0.993 -0.261 -0.365 -0.375 -0.346 -0.346
 0.126  0.996 -0.258 -0.362 -0.373 -0.345 -0.345
 0.128  1.000 -0.254 -0.360 -0.372 -0.345 -0.345
 0.130  1.003 -0.251 -0.358 -0.371 -0.343 -0.343
 0.132  1.007 -0.247 -0.356 -0.369 -0.343 -0.343
 0.134  1.010 -0.244 -0.354 -0.368 -0.342 -0.342
 0.136  1.014 -0.240 -0.352 -0.366 -0.341 -0.341
 0.138  1.017 -0.237 -0.350 -0.365 -0.340 -0.340
 0.140  1.021 -0.234 -0.348 -0.363 -0.339 -0.339
 0.142  1.024 -0.230 -0.346 -0.362 -0.338 -0.338
 0.144  1.027 -0.227 -0.344 -0.360 -0.338 -0.338
 0.146  1.030 -0.224 -0.342 -0.359 -0.336 -0.336
 0.148  1.033 -0.221 -0.340 -0.358 -0.336 -0.336
 0.150  1.036 -0.217 -0.338 -0.356 -0.335 -0.335
 0.152  1.040 -0.214 -0.337 -0.355 -0.334 -0.334
 0.154  1.043 -0.211 -0.334 -0.354 -0.333 -0.333
 0.156  1.046 -0.208 -0.333 -0.353 -0.332 -0.332
 0.158  1.049 -0.205 -0.331 -0.351 -0.332 -0.332
 0.160  1.052 -0.201 -0.329 -0.350 -0.331 -0.331
 0.162  1.054 -0.198 -0.327 -0.348 -0.330 -0.330
 0.164  1.057 -0.195 -0.325 -0.347 -0.329 -0.329
 0.166  1.060 -0.192 -0.323 -0.345 -0.328 -0.328
 0.168  1.063 -0.188 -0.322 -0.344 -0.327 -0.327
 0.170  1.066 -0.185 -0.319 -0.343 -0.326 -0.326
 0.172  1.069 -0.182 -0.318 -0.342 -0.326 -0.326
 0.174  1.072 -0.179 -0.316 -0.340 -0.325 -0.325
 0.176  1.075 -0.176 -0.314 -0.339 -0.324 -0.324
 0.178  1.077 -0.172 -0.312 -0.337 -0.323 -0.323
 0.180  1.080 -0.169 -0.310 -0.336 -0.322 -0.322
 0.182  1.084 -0.166 -0.309 -0.335 -0.322 -0.322
 0.184  1.086 -0.163 -0.307 -0.334 -0.321 -0.321
 0.186  1.089 -0.160 -0.305 -0.332 -0.320 -0.320
 0.188  1.092 -0.157 -0.303 -0.331 -0.319 -0.319
 0.190  1.094 -0.153 -0.301 -0.330 -0.318 -0.318
 0.192  1.097 -0.150 -0.299 -0.329 -0.318 -0.318
 0.194  1.100 -0.148 -0.298 -0.328 -0.317 -0.317
 0.196  1.103 -0.145 -0.295 -0.327 -0.316 -0.316
 0.198  1.106 -0.142 -0.294 -0.325 -0.315 -0.315
 0.200  1.108 -0.139 -0.292 -0.324 -0.314 -0.314
 0.202  1.111 -0.136 -0.290 -0.323 -0.313 -0.313
 0.204  1.114 -0.132 -0.289 -0.322 -0.313 -0.313
 0.206  1.117 -0.129 -0.287 -0.321 -0.312 -0.312
 0.208  1.120 -0.126 -0.285 -0.319 -0.311 -0.311
 0.210  1.122 -0.123 -0.283 -0.319 -0.311 -0.311
 0.212  1.125 -0.121 -0.281 -0.317 -0.309 -0.309
 0.214  1.127 -0.118 -0.279 -0.316 -0.309 -0.309
 0.216  1.131 -0.115 -0.278 -0.315 -0.308 -0.308
 0.218  1.133 -0.111 -0.276 -0.314 -0.307 -0.307
 0.220  1.136 -0.109 -0.274 -0.313 -0.306 -0.306
 0.222  1.138 -0.106 -0.273 -0.312 -0.306 -0.306
 0.224  1.141 -0.103 -0.270 -0.311 -0.305 -0.305
 0.226  1.144 -0.101 -0.269 -0.310 -0.304 -0.304
 0.228  1.147 -0.097 -0.267 -0.309 -0.303 -0.303
 0.230  1.149 -0.094 -0.265 -0.308 -0.302 -0.302
 0.232  1.152 -0.092 -0.263 -0.307 -0.302 -0.302
 0.234  1.154 -0.089 -0.262 -0.306 -0.301 -0.301
 0.236  1.157 -0.087 -0.260 -0.305 -0.300 -0.300
 0.238  1.160 -0.084 -0.258 -0.304 -0.299 -0.299
 0.240  1.162 -0.081 -0.257 -0.303 -0.299 -0.299
 0.242  1.164 -0.078 -0.255 -0.302 -0.298 -0.298
 0.244  1.168 -0.076 -0.253 -0.301 -0.297 -0.297
 0.246  1.170 -0.073 -0.251 -0.301 -0.296 -0.296
 0.248  1.172 -0.070 -0.250 -0.299 -0.295 -0.295
 0.250  1.174 -0.067 -0.248 -0.298 -0.295 -0.295
 0.252  1.177 -0.065 -0.246 -0.298 -0.293 -0.293
 0.254  1.179 -0.062 -0.244 -0.296 -0.293 -0.293
 0.256  1.181 -0.059 -0.242 -0.295 -0.292 -0.292
 0.258  1.184 -0.057 -0.241 -0.294 -0.291 -0.291
 0.260  1.186 -0.054 -0.239 -0.293 -0.290 -0.290
 0.262  1.188 -0.052 -0.237 -0.292 -0.289 -0.289
 0.264  1.191 -0.049 -0.235 -0.291 -0.288 -0.288
 0.266  1.193 -0.046 -0.234 -0.290 -0.288 -0.288
 0.268  1.195 -0.044 -0.232 -0.289 -0.286 -0.286
 0.270  1.197 -0.042 -0.230 -0.288 -0.286 -0.286
 0.272  1.199 -0.039 -0.229 -0.287 -0.285 -0.285
 0.274  1.201 -0.036 -0.227 -0.286 -0.284 -0.284
 0.276  1.204 -0.034 -0.226 -0.285 -0.283 -0.283
 0.278  1.205 -0.031 -0.224 -0.284 -0.282 -0.282
 0.280  1.208 -0.029 -0.222 -0.282 -0.281 -0.281
 0.282  1.209 -0.026 -0.221 -0.281 -0.280 -0.280
 0.284  1.211 -0.024 -0.219 -0.280 -0.279 -0.279
 0.286  1.214 -0.021 -0.217 -0.279 -0.278 -0.278
 0.288  1.215 -0.019 -0.215 -0.278 -0.277 -0.277
 0.290  1.217 -0.017 -0.214 -0.277 -0.276 -0.276
 0.292  1.219 -0.014 -0.212 -0.275 -0.275 -0.275
 0.294  1.221 -0.011 -0.210 -0.274 -0.273 -0.273
 0.296  1.222 -0.009 -0.209 -0.273 -0.272 -0.272
 0.298  1.225 -0.007 -0.207 -0.272 -0.271 -0.271
 0.300  1.226 -0.004 -0.206 -0.270 -0.270 -0.270
 0.302  1.228 -0.002 -0.204 -0.269 -0.269 -0.269
 0.304  1.230  0.000 -0.202 -0.268 -0.268 -0.268
 0.306  1.232  0.004 -0.201 -0.267 -0.267 -0.267
 0.308  1.233  0.006 -0.199 -0.265 -0.266 -0.266
 0.310  1.235  0.008 -0.198 -0.264 -0.265 -0.265
 0.312  1.237  0.011 -0.196 -0.263 -0.264 -0.264
 0.314  1.238  0.013 -0.194 -0.262 -0.263 -0.263
 0.316  1.240  0.015 -0.193 -0.260 -0.262 -0.262
 0.318  1.242  0.018 -0.191 -0.259 -0.260 -0.260
 0.320  1.244  0.020 -0.190 -0.257 -0.259 -0.259
 0.322  1.245  0.023 -0.189 -0.256 -0.258 -0.258
 0.324  1.248  0.025 -0.187 -0.255 -0.257 -0.257
 0.326  1.249  0.028 -0.186 -0.254 -0.256 -0.256
 0.328  1.252  0.030 -0.184 -0.252 -0.255 -0.255
 0.330  1.253  0.032 -0.182 -0.251 -0.254 -0.254
 0.332  1.255  0.035 -0.181 -0.250 -0.253 -0.253
 0.334  1.257  0.037 -0.179 -0.249 -0.252 -0.252
 0.336  1.259  0.039 -0.178 -0.248 -0.251 -0.251
 0.338  1.261  0.042 -0.177 -0.246 -0.250 -0.250
 0.340  1.263  0.044 -0.175 -0.245 -0.249 -0.249
 0.342  1.265  0.046 -0.174 -0.244 -0.248 -0.248
 0.344  1.267  0.049 -0.173 -0.243 -0.247 -0.247
 0.346  1.269  0.051 -0.171 -0.242 -0.246 -0.246
 0.348  1.271  0.053 -0.170 -0.241 -0.245 -0.245
 0.350  1.272  0.056 -0.169 -0.240 -0.244 -0.244
 0.352  1.275  0.058 -0.167 -0.238 -0.243 -0.243
 0.354  1.277  0.060 -0.166 -0.237 -0.242 -0.242
 0.356  1.279  0.063 -0.165 -0.236 -0.241 -0.241
 0.358  1.281  0.065 -0.163 -0.235 -0.240 -0.240
 0.360  1.283  0.067 -0.162 -0.234 -0.239 -0.239
 0.362  1.286  0.070 -0.161 -0.233 -0.239 -0.239
 0.364  1.287  0.072 -0.159 -0.232 -0.237 -0.237
 0.366  1.289  0.074 -0.158 -0.231 -0.237 -0.237
 0.368  1.292  0.077 -0.157 -0.230 -0.236 -0.236
 0.370  1.294  0.079 -0.155 -0.229 -0.235 -0.235
 0.372  1.296  0.081 -0.154 -0.228 -0.234 -0.234
 0.374  1.298  0.083 -0.153 -0.227 -0.233 -0.233
 0.376  1.300  0.085 -0.152 -0.226 -0.232 -0.232
 0.378  1.302  0.087 -0.150 -0.225 -0.232 -0.232
 0.380  1.305  0.090 -0.149 -0.224 -0.231 -0.231
 0.382  1.306  0.092 -0.148 -0.223 -0.230 -0.230
 0.384  1.309  0.094 -0.147 -0.222 -0.229 -0.229
 0.386  1.311  0.096 -0.145 -0.221 -0.228 -0.228
 0.388  1.312  0.098 -0.144 -0.220 -0.227 -0.227
 0.390  1.315  0.101 -0.143 -0.219 -0.226 -0.226
 0.392  1.317  0.103 -0.142 -0.218 -0.226 -0.226
 0.394  1.319  0.105 -0.140 -0.217 -0.225 -0.225
 0.396  1.321  0.107 -0.139 -0.216 -0.224 -0.224
 0.398  1.323  0.109 -0.138 -0.215 -0.223 -0.223
 0.400  1.325  0.111 -0.137 -0.214 -0.222 -0.222
 0.402  1.326  0.113 -0.135 -0.213 -0.221 -0.221
 0.404  1.329  0.115 -0.134 -0.212 -0.220 -0.220
 0.406  1.330  0.117 -0.133 -0.211 -0.219 -0.219
 0.408  1.333  0.119 -0.131 -0.210 -0.218 -0.218
 0.410  1.334  0.122 -0.130 -0.209 -0.217 -0.217
 0.412  1.336  0.123 -0.129 -0.207 -0.216 -0.216
 0.414  1.338  0.126 -0.127 -0.207 -0.215 -0.215
 0.416  1.339  0.127 -0.126 -0.205 -0.214 -0.214
 0.418  1.342  0.129 -0.125 -0.204 -0.213 -0.213
 0.420  1.343  0.132 -0.123 -0.203 -0.212 -0.212
 0.422  1.345  0.133 -0.122 -0.202 -0.211 -0.211
 0.424  1.346  0.135 -0.121 -0.201 -0.210 -0.210
 0.426  1.349  0.137 -0.119 -0.200 -0.209 -0.209
 0.428  1.350  0.139 -0.118 -0.199 -0.208 -0.208
 0.430  1.352  0.141 -0.117 -0.198 -0.207 -0.207
 0.432  1.353  0.143 -0.115 -0.197 -0.206 -0.206
 0.434  1.355  0.144 -0.114 -0.196 -0.205 -0.205
 0.436  1.356  0.146 -0.113 -0.194 -0.203 -0.203
 0.438  1.358  0.148 -0.111 -0.194 -0.202 -0.202
 0.440  1.360  0.150 -0.110 -0.192 -0.201 -0.201
 0.442  1.361  0.151 -0.109 -0.191 -0.200 -0.200
 0.444  1.363  0.153 -0.107 -0.190 -0.199 -0.199
 0.446  1.364  0.154 -0.106 -0.189 -0.197 -0.197
 0.448  1.366  0.156 -0.105 -0.188 -0.196 -0.196
 0.450  1.367  0.157 -0.103 -0.187 -0.195 -0.195
 0.452  1.369  0.159 -0.102 -0.186 -0.194 -0.194
 0.454  1.370  0.160 -0.101 -0.184 -0.193 -0.193
 0.456  1.372  0.162 -0.100 -0.184 -0.192 -0.192
 0.458  1.373  0.164 -0.099 -0.182 -0.190 -0.190
 0.460  1.375  0.165 -0.098 -0.181 -0.189 -0.189
 0.462  1.376  0.167 -0.096 -0.180 -0.188 -0.188
 0.464  1.377  0.167 -0.095 -0.179 -0.187 -0.187
 0.466  1.379  0.169 -0.094 -0.178 -0.186 -0.186
 0.468  1.380  0.171 -0.093 -0.177 -0.185 -0.185
 0.470  1.382  0.172 -0.091 -0.176 -0.184 -0.184
 0.472  1.383  0.173 -0.090 -0.175 -0.183 -0.183
 0.474  1.384  0.174 -0.089 -0.174 -0.182 -0.182
 0.476  1.386  0.175 -0.088 -0.173 -0.181 -0.181
 0.478  1.387  0.177 -0.087 -0.172 -0.180 -0.180
 0.480  1.388  0.178 -0.085 -0.171 -0.179 -0.179
 0.482  1.390  0.179 -0.084 -0.170 -0.178 -0.178
 0.484  1.391  0.180 -0.083 -0.169 -0.177 -0.177
 0.486  1.392  0.181 -0.082 -0.168 -0.176 -0.176
 0.488  1.393  0.182 -0.081 -0.167 -0.176 -0.176
 0.490  1.394  0.184 -0.079 -0.166 -0.175 -0.175
 0.492  1.396  0.185 -0.078 -0.165 -0.174 -0.174
 0.494  1.397  0.185 -0.077 -0.165 -0.173 -0.173
 0.496  1.398  0.187 -0.076 -0.164 -0.172 -0.172
 0.498  1.400  0.188 -0.075 -0.163 -0.172 -0.172
 0.500  1.400  0.188 -0.074 -0.162 -0.171 -0.171
 0.502  1.402  0.189 -0.073 -0.161 -0.170 -0.170
 0.504  1.403  0.190 -0.072 -0.161 -0.169 -0.169
 0.506  1.403  0.192 -0.071 -0.160 -0.169 -0.169
 0.508  1.405  0.192 -0.070 -0.159 -0.168 -0.168
 0.510  1.406  0.193 -0.069 -0.158 -0.167 -0.167
 0.512  1.407  0.194 -0.067 -0.158 -0.167 -0.167
 0.514  1.408  0.195 -0.066 -0.157 -0.166 -0.166
 0.516  1.409  0.195 -0.066 -0.156 -0.166 -0.166
 0.518  1.410  0.196 -0.065 -0.156 -0.165 -0.165
 0.520  1.411  0.197 -0.063 -0.155 -0.164 -0.164
 0.522  1.412  0.198 -0.063 -0.154 -0.164 -0.164
 0.524  1.413  0.199 -0.062 -0.154 -0.163 -0.163
 0.526  1.414  0.199 -0.061 -0.153 -0.163 -0.163
 0.528  1.415  0.200 -0.060 -0.152 -0.162 -0.162
 0.530  1.416  0.201 -0.059 -0.152 -0.162 -0.162
 0.532  1.417  0.202 -0.058 -0.151 -0.161 -0.161
 0.534  1.417  0.202 -0.058 -0.151 -0.160 -0.160
 0.536  1.417  0.203 -0.057 -0.150 -0.160 -0.160
 0.538  1.418  0.203 -0.056 -0.150 -0.159 -0.159
 0.540  1.419  0.204 -0.056 -0.149 -0.159 -0.159
 0.542  1.420  0.205 -0.054 -0.148 -0.159 -0.159
 0.544  1.420  0.206 -0.054 -0.148 -0.158 -0.158
 0.546  1.420  0.206 -0.053 -0.147 -0.157 -0.157
 0.548  1.421  0.206 -0.053 -0.147 -0.157 -0.157
 0.550  1.421  0.207 -0.052 -0.146 -0.156 -0.156
 0.552  1.422  0.207 -0.051 -0.146 -0.156 -0.156
 0.554  1.422  0.208 -0.050 -0.145 -0.155 -0.155
 0.556  1.422  0.209 -0.050 -0.145 -0.154 -0.154
 0.558  1.423  0.209 -0.049 -0.144 -0.154 -0.154
 0.560  1.423  0.209 -0.049 -0.144 -0.153 -0.153
 0.562  1.423  0.209 -0.048 -0.143 -0.153 -0.153
 0.564  1.424  0.210 -0.048 -0.143 -0.152 -0.152
 0.566  1.424  0.210 -0.048 -0.142 -0.152 -0.152
 0.568  1.424  0.211 -0.047 -0.142 -0.151 -0.151
 0.570  1.424  0.211 -0.046 -0.142 -0.151 -0.151
 0.572  1.424  0.212 -0.046 -0.141 -0.150 -0.150
 0.574  1.424  0.212 -0.045 -0.141 -0.150 -0.150
 0.576  1.424  0.212 -0.045 -0.140 -0.149 -0.149
 0.578  1.423  0.213 -0.045 -0.140 -0.149 -0.149
 0.580  1.423  0.213 -0.044 -0.139 -0.148 -0.148
 0.582  1.423  0.213 -0.044 -0.139 -0.147 -0.147
 0.584  1.423  0.213 -0.044 -0.139 -0.147 -0.147
 0.586  1.422  0.213 -0.044 -0.138 -0.146 -0.146
 0.588  1.422  0.214 -0.043 -0.138 -0.146 -0.146
 0.590  1.422  0.214 -0.043 -0.137 -0.145 -0.145
 0.592  1.421  0.214 -0.042 -0.137 -0.144 -0.144
 0.594  1.421  0.214 -0.042 -0.137 -0.144 -0.144
 0.596  1.421  0.215 -0.042 -0.137 -0.143 -0.143
 0.598  1.420  0.215 -0.042 -0.136 -0.143 -0.143
 0.600  1.420  0.215 -0.041 -0.136 -0.142 -0.142
 0.602  1.420  0.215 -0.041 -0.135 -0.142 -0.142
 0.604  1.420  0.215 -0.041 -0.135 -0.141 -0.141
 0.606  1.420  0.216 -0.041 -0.135 -0.140 -0.140
 0.608  1.420  0.216 -0.041 -0.134 -0.140 -0.140
 0.610  1.419  0.216 -0.041 -0.134 -0.139 -0.139
 0.612  1.419  0.216 -0.040 -0.134 -0.139 -0.139
 0.614  1.419  0.216 -0.040 -0.133 -0.138 -0.138
 0.616  1.419  0.216 -0.040 -0.133 -0.137 -0.137
 0.618  1.418  0.216 -0.040 -0.133 -0.136 -0.136
 0.620  1.418  0.216 -0.040 -0.132 -0.136 -0.136
 0.622  1.418  0.216 -0.040 -0.132 -0.135 -0.135
 0.624  1.418  0.216 -0.040 -0.132 -0.134 -0.134
 0.626  1.418  0.216 -0.040 -0.131 -0.134 -0.134
 0.628  1.417  0.216 -0.039 -0.131 -0.133 -0.133
 0.630  1.417  0.216 -0.039 -0.130 -0.132 -0.132
 0.632  1.417  0.216 -0.039 -0.130 -0.131 -0.131
 0.634  1.417  0.216 -0.039 -0.130 -0.131 -0.131
 0.636  1.417  0.216 -0.039 -0.129 -0.130 -0.130
 0.638  1.417  0.216 -0.039 -0.129 -0.129 -0.129
 0.640  1.417  0.216 -0.039 -0.129 -0.128 -0.128
 0.642  1.417  0.216 -0.040 -0.128 -0.127 -0.127
 0.644  1.417  0.216 -0.040 -0.128 -0.127 -0.127
 0.646  1.417  0.217 -0.040 -0.127 -0.126 -0.126
 0.648  1.417  0.217 -0.040 -0.127 -0.125 -0.125
 0.650  1.417  0.218 -0.040 -0.126 -0.124 -0.124
 0.652  1.417  0.218 -0.040 -0.126 -0.123 -0.123
 0.654  1.417  0.219 -0.039 -0.126 -0.122 -0.122
 0.656  1.417  0.219 -0.039 -0.126 -0.121 -0.121
 0.658  1.417  0.220 -0.039 -0.125 -0.121 -0.121
 0.660  1.417  0.220 -0.039 -0.125 -0.120 -0.120
 0.662  1.417  0.220 -0.039 -0.124 -0.119 -0.119
 0.664  1.417  0.221 -0.038 -0.124 -0.118 -0.118
 0.666  1.417  0.222 -0.038 -0.124 -0.117 -0.117
 0.668  1.417  0.223 -0.038 -0.123 -0.116 -0.116
 0.670  1.417  0.223 -0.038 -0.123 -0.115 -0.115
 0.672  1.417  0.224 -0.037 -0.122 -0.114 -0.114
 0.674  1.417  0.225 -0.037 -0.121 -0.113 -0.113
 0.676  1.417  0.226 -0.037 -0.121 -0.112 -0.112
 0.678  1.417  0.227 -0.036 -0.120 -0.111 -0.111
 0.680  1.417  0.227 -0.036 -0.120 -0.109 -0.109
 0.682  1.417  0.228 -0.035 -0.119 -0.108 -0.108
 0.684  1.417  0.230 -0.034 -0.119 -0.107 -0.107
 0.686  1.417  0.230 -0.034 -0.118 -0.106 -0.106
 0.688  1.416  0.231 -0.033 -0.117 -0.104 -0.104
 0.690  1.416  0.233 -0.032 -0.116 -0.103 -0.103
 0.692  1.416  0.234 -0.032 -0.115 -0.102 -0.102
 0.694  1.416  0.235 -0.030 -0.114 -0.100 -0.100
 0.696  1.416  0.236 -0.030 -0.113 -0.099 -0.099
 0.698  1.416  0.237 -0.029 -0.112 -0.097 -0.097
 0.700  1.415  0.238 -0.028 -0.111 -0.096 -0.096
 0.702  1.415  0.240 -0.027 -0.110 -0.094 -0.094
 0.704  1.415  0.240 -0.026 -0.109 -0.093 -0.093
 0.706  1.415  0.242 -0.025 -0.108 -0.091 -0.091
 0.708  1.414  0.244 -0.024 -0.107 -0.090 -0.090
 0.710  1.414  0.245 -0.023 -0.106 -0.088 -0.088
 0.712  1.414  0.247 -0.022 -0.104 -0.086 -0.086
 0.714  1.413  0.248 -0.021 -0.103 -0.084 -0.084
 0.716  1.413  0.250 -0.020 -0.101 -0.083 -0.083
 0.718  1.413  0.251 -0.018 -0.100 -0.081 -0.081
 0.720  1.413  0.253 -0.017 -0.098 -0.079 -0.079
 0.722  1.413  0.254 -0.016 -0.097 -0.077 -0.077
 0.724  1.412  0.257 -0.014 -0.095 -0.075 -0.075
 0.726  1.412  0.258 -0.013 -0.094 -0.073 -0.073
 0.728  1.412  0.260 -0.011 -0.092 -0.071 -0.071
 0.730  1.411  0.261 -0.010 -0.090 -0.069 -0.069
 0.732  1.411  0.264 -0.008 -0.089 -0.067 -0.067
 0.734  1.411  0.265 -0.006 -0.087 -0.065 -0.065
 0.736  1.411  0.267 -0.005 -0.085 -0.063 -0.063
 0.738  1.411  0.269 -0.003 -0.084 -0.061 -0.061
 0.740  1.411  0.271 -0.001 -0.082 -0.059 -0.059
 0.742  1.411  0.273  0.000 -0.080 -0.057 -0.057
 0.744  1.412  0.275  0.002 -0.079 -0.055 -0.055
 0.746  1.413  0.277  0.004 -0.077 -0.053 -0.053
 0.748  1.413  0.279  0.006 -0.075 -0.051 -0.051
 0.750  1.413  0.281  0.008 -0.073 -0.050 -0.050
 0.752  1.414  0.283  0.010 -0.072 -0.048 -0.048
 0.754  1.416  0.286  0.012 -0.070 -0.047 -0.047
 0.756  1.417  0.289  0.014 -0.069 -0.045 -0.045
 0.758  1.418  0.291  0.016 -0.067 -0.044 -0.044
 0.760  1.420  0.293  0.018 -0.066 -0.043 -0.043
 0.762  1.421  0.296  0.020 -0.064 -0.042 -0.042
 0.764  1.423  0.299  0.022 -0.063 -0.041 -0.041
 0.766  1.424  0.301  0.024 -0.062 -0.040 -0.040
 0.768  1.427  0.303  0.027 -0.061 -0.039 -0.039
 0.770  1.429  0.305  0.029 -0.059 -0.038 -0.038
 0.772  1.430  0.307  0.031 -0.058 -0.038 -0.038
 0.774  1.433  0.309  0.034 -0.057 -0.037 -0.037
 0.776  1.435  0.310  0.036 -0.056 -0.037 -0.037
 0.778  1.437  0.312  0.039 -0.055 -0.036 -0.036
 0.780  1.440  0.313  0.042 -0.054 -0.036 -0.036
 0.782  1.443  0.314  0.044 -0.053 -0.036 -0.036
 0.784  1.446  0.314  0.047 -0.052 -0.035 -0.035
 0.786  1.448  0.314  0.050 -0.051 -0.035 -0.035
 0.788  1.451  0.314  0.052 -0.051 -0.035 -0.035
 0.790  1.455  0.314  0.055 -0.050 -0.035 -0.035
 0.792  1.458  0.313  0.057 -0.049 -0.035 -0.035
 0.794  1.462  0.311  0.059 -0.048 -0.036 -0.036
 0.796  1.466  0.310  0.062 -0.047 -0.036 -0.036
 0.798  1.470  0.308  0.064 -0.046 -0.036 -0.036
 0.800  1.473  0.306  0.066 -0.046 -0.037 -0.037
 0.802  1.477  0.303  0.068 -0.045 -0.037 -0.037
 0.804  1.481  0.300  0.070 -0.044 -0.038 -0.038
 0.806  1.484  0.296  0.071 -0.044 -0.038 -0.038
 0.808  1.487  0.293  0.072 -0.043 -0.039 -0.039
