# IsPeriodic    : True
# Period        : 0.480683 days
# Normalization : <g_mag>=0
# 
# Phase u_mag  g_mag  r_mag  i_mag  z_mag  y_mag
0 0.276 -0.741 -0.735 -0.663 -0.545 -0.545
0.000961366 0.276 -0.741 -0.735 -0.663 -0.545 -0.545
0.00192273 0.277 -0.740 -0.734 -0.662 -0.544 -0.544
0.0028841 0.279 -0.739 -0.734 -0.660 -0.544 -0.544
0.00384546 0.280 -0.737 -0.733 -0.657 -0.543 -0.543
0.00480683 0.283 -0.734 -0.732 -0.654 -0.541 -0.541
0.0057682 0.286 -0.731 -0.730 -0.650 -0.540 -0.540
0.00672956 0.288 -0.727 -0.729 -0.645 -0.538 -0.538
0.00769093 0.293 -0.724 -0.727 -0.641 -0.536 -0.536
0.00865229 0.295 -0.720 -0.726 -0.634 -0.535 -0.535
0.00961366 0.300 -0.716 -0.724 -0.629 -0.532 -0.532
0.010575 0.304 -0.711 -0.721 -0.623 -0.530 -0.530
0.0115364 0.309 -0.706 -0.719 -0.617 -0.528 -0.528
0.0124978 0.314 -0.702 -0.716 -0.611 -0.525 -0.525
0.0134591 0.318 -0.697 -0.714 -0.605 -0.522 -0.522
0.0144205 0.323 -0.691 -0.711 -0.600 -0.520 -0.520
0.0153819 0.329 -0.687 -0.708 -0.595 -0.518 -0.518
0.0163432 0.335 -0.682 -0.703 -0.589 -0.516 -0.516
0.0173046 0.340 -0.676 -0.700 -0.584 -0.513 -0.513
0.018266 0.347 -0.672 -0.696 -0.579 -0.510 -0.510
0.0192273 0.353 -0.666 -0.693 -0.573 -0.508 -0.508
0.0201887 0.360 -0.661 -0.688 -0.569 -0.505 -0.505
0.0211501 0.367 -0.655 -0.684 -0.564 -0.502 -0.502
0.0221114 0.374 -0.651 -0.680 -0.559 -0.500 -0.500
0.0230728 0.381 -0.645 -0.675 -0.554 -0.497 -0.497
0.0240342 0.389 -0.639 -0.670 -0.550 -0.494 -0.494
0.0249955 0.398 -0.633 -0.665 -0.545 -0.490 -0.490
0.0259569 0.406 -0.629 -0.660 -0.540 -0.487 -0.487
0.0269182 0.415 -0.623 -0.655 -0.536 -0.483 -0.483
0.0278796 0.423 -0.617 -0.649 -0.531 -0.480 -0.480
0.028841 0.433 -0.611 -0.643 -0.527 -0.476 -0.476
0.0298023 0.441 -0.605 -0.637 -0.522 -0.473 -0.473
0.0307637 0.451 -0.598 -0.631 -0.518 -0.469 -0.469
0.0317251 0.461 -0.593 -0.625 -0.513 -0.465 -0.465
0.0326864 0.472 -0.587 -0.619 -0.510 -0.461 -0.461
0.0336478 0.482 -0.581 -0.612 -0.506 -0.457 -0.457
0.0346092 0.493 -0.574 -0.606 -0.502 -0.453 -0.453
0.0355705 0.503 -0.568 -0.599 -0.498 -0.449 -0.449
0.0365319 0.514 -0.561 -0.593 -0.494 -0.445 -0.445
0.0374933 0.524 -0.555 -0.586 -0.491 -0.441 -0.441
0.0384546 0.535 -0.548 -0.580 -0.487 -0.437 -0.437
0.039416 0.546 -0.543 -0.573 -0.483 -0.433 -0.433
0.0403774 0.556 -0.536 -0.567 -0.480 -0.429 -0.429
0.0413387 0.566 -0.529 -0.561 -0.476 -0.425 -0.425
0.0423001 0.576 -0.522 -0.554 -0.473 -0.421 -0.421
0.0432615 0.585 -0.516 -0.547 -0.469 -0.417 -0.417
0.0442228 0.595 -0.509 -0.542 -0.466 -0.414 -0.414
0.0451842 0.605 -0.502 -0.536 -0.463 -0.410 -0.410
0.0461456 0.613 -0.496 -0.530 -0.460 -0.406 -0.406
0.0471069 0.623 -0.489 -0.525 -0.456 -0.402 -0.402
0.0480683 0.632 -0.482 -0.519 -0.453 -0.399 -0.399
0.0490297 0.640 -0.476 -0.514 -0.450 -0.395 -0.395
0.049991 0.648 -0.469 -0.509 -0.446 -0.392 -0.392
0.0509524 0.657 -0.463 -0.503 -0.443 -0.389 -0.389
0.0519138 0.665 -0.456 -0.498 -0.440 -0.386 -0.386
0.0528751 0.672 -0.451 -0.493 -0.437 -0.382 -0.382
0.0538365 0.681 -0.445 -0.488 -0.433 -0.379 -0.379
0.0547979 0.688 -0.439 -0.483 -0.431 -0.376 -0.376
0.0557592 0.696 -0.433 -0.479 -0.427 -0.373 -0.373
0.0567206 0.703 -0.427 -0.474 -0.423 -0.370 -0.370
0.057682 0.710 -0.422 -0.469 -0.421 -0.367 -0.367
0.0586433 0.717 -0.416 -0.465 -0.417 -0.364 -0.364
0.0596047 0.724 -0.410 -0.460 -0.415 -0.361 -0.361
0.0605661 0.731 -0.404 -0.456 -0.411 -0.358 -0.358
0.0615274 0.737 -0.398 -0.452 -0.408 -0.355 -0.355
0.0624888 0.744 -0.394 -0.448 -0.405 -0.352 -0.352
0.0634502 0.749 -0.388 -0.444 -0.401 -0.349 -0.349
0.0644115 0.755 -0.382 -0.440 -0.399 -0.347 -0.347
0.0653729 0.761 -0.377 -0.436 -0.395 -0.345 -0.345
0.0663343 0.766 -0.372 -0.432 -0.393 -0.342 -0.342
0.0672956 0.772 -0.367 -0.429 -0.389 -0.339 -0.339
0.068257 0.777 -0.362 -0.425 -0.386 -0.337 -0.337
0.0692184 0.782 -0.356 -0.421 -0.383 -0.335 -0.335
0.0701797 0.787 -0.352 -0.418 -0.380 -0.333 -0.333
0.0711411 0.793 -0.347 -0.414 -0.378 -0.330 -0.330
0.0721024 0.797 -0.343 -0.411 -0.374 -0.328 -0.328
0.0730638 0.803 -0.338 -0.407 -0.371 -0.326 -0.326
0.0740252 0.807 -0.333 -0.404 -0.368 -0.324 -0.324
0.0749865 0.812 -0.329 -0.401 -0.365 -0.321 -0.321
0.0759479 0.817 -0.324 -0.397 -0.363 -0.319 -0.319
0.0769093 0.822 -0.319 -0.393 -0.359 -0.317 -0.317
0.0778706 0.826 -0.316 -0.389 -0.356 -0.314 -0.314
0.078832 0.832 -0.311 -0.386 -0.354 -0.312 -0.312
0.0797934 0.836 -0.306 -0.383 -0.350 -0.310 -0.310
0.0807547 0.842 -0.302 -0.379 -0.348 -0.308 -0.308
0.0817161 0.847 -0.297 -0.376 -0.345 -0.305 -0.305
0.0826775 0.852 -0.292 -0.372 -0.342 -0.303 -0.303
0.0836388 0.857 -0.288 -0.369 -0.339 -0.301 -0.301
0.0846002 0.863 -0.283 -0.365 -0.336 -0.299 -0.299
0.0855616 0.867 -0.279 -0.362 -0.333 -0.296 -0.296
0.0865229 0.873 -0.274 -0.359 -0.331 -0.294 -0.294
0.0874843 0.878 -0.269 -0.355 -0.328 -0.292 -0.292
0.0884457 0.882 -0.265 -0.352 -0.326 -0.290 -0.290
0.089407 0.888 -0.260 -0.348 -0.323 -0.287 -0.287
0.0903684 0.894 -0.255 -0.345 -0.320 -0.285 -0.285
0.0913298 0.899 -0.251 -0.342 -0.318 -0.283 -0.283
0.0922911 0.903 -0.246 -0.338 -0.315 -0.281 -0.281
0.0932525 0.909 -0.241 -0.335 -0.312 -0.279 -0.279
0.0942139 0.915 -0.236 -0.332 -0.310 -0.277 -0.277
0.0951752 0.920 -0.231 -0.328 -0.307 -0.274 -0.274
0.0961366 0.924 -0.226 -0.325 -0.304 -0.272 -0.272
0.097098 0.930 -0.220 -0.321 -0.302 -0.270 -0.270
0.0980593 0.936 -0.216 -0.318 -0.300 -0.268 -0.268
0.0990207 0.941 -0.211 -0.315 -0.297 -0.265 -0.265
0.0999821 0.947 -0.205 -0.311 -0.295 -0.263 -0.263
0.100943 0.951 -0.201 -0.308 -0.292 -0.261 -0.261
0.101905 0.957 -0.195 -0.305 -0.290 -0.259 -0.259
0.102866 0.962 -0.190 -0.301 -0.288 -0.256 -0.256
0.103828 0.968 -0.184 -0.298 -0.285 -0.254 -0.254
0.104789 0.974 -0.180 -0.295 -0.283 -0.252 -0.252
0.10575 0.979 -0.174 -0.292 -0.281 -0.249 -0.249
0.106712 0.985 -0.168 -0.288 -0.278 -0.247 -0.247
0.107673 0.989 -0.163 -0.285 -0.276 -0.245 -0.245
0.108634 0.995 -0.158 -0.282 -0.273 -0.243 -0.243
0.109596 1.000 -0.152 -0.279 -0.272 -0.241 -0.241
0.110557 1.006 -0.147 -0.275 -0.269 -0.239 -0.239
0.111518 1.010 -0.141 -0.272 -0.267 -0.237 -0.237
0.11248 1.016 -0.136 -0.269 -0.265 -0.234 -0.234
0.113441 1.020 -0.130 -0.266 -0.263 -0.232 -0.232
0.114403 1.025 -0.125 -0.263 -0.260 -0.230 -0.230
0.115364 1.031 -0.119 -0.260 -0.258 -0.228 -0.228
0.116325 1.035 -0.113 -0.257 -0.256 -0.226 -0.226
0.117287 1.041 -0.109 -0.254 -0.254 -0.224 -0.224
0.118248 1.045 -0.103 -0.251 -0.251 -0.221 -0.221
0.119209 1.049 -0.098 -0.248 -0.250 -0.220 -0.220
0.120171 1.055 -0.092 -0.245 -0.248 -0.218 -0.218
0.121132 1.059 -0.088 -0.242 -0.245 -0.215 -0.215
0.122093 1.065 -0.083 -0.239 -0.243 -0.214 -0.214
0.123055 1.069 -0.077 -0.235 -0.241 -0.212 -0.212
0.124016 1.073 -0.073 -0.233 -0.239 -0.209 -0.209
0.124978 1.077 -0.068 -0.230 -0.236 -0.208 -0.208
0.125939 1.083 -0.063 -0.227 -0.235 -0.206 -0.206
0.1269 1.087 -0.059 -0.224 -0.232 -0.204 -0.204
0.127862 1.091 -0.054 -0.221 -0.230 -0.202 -0.202
0.128823 1.095 -0.049 -0.219 -0.228 -0.200 -0.200
0.129784 1.100 -0.045 -0.216 -0.226 -0.198 -0.198
0.130746 1.104 -0.040 -0.213 -0.224 -0.196 -0.196
0.131707 1.108 -0.035 -0.211 -0.221 -0.194 -0.194
0.132669 1.112 -0.031 -0.208 -0.220 -0.193 -0.193
0.13363 1.116 -0.027 -0.205 -0.217 -0.190 -0.190
0.134591 1.121 -0.023 -0.203 -0.215 -0.189 -0.189
0.135553 1.125 -0.018 -0.200 -0.213 -0.187 -0.187
0.136514 1.129 -0.013 -0.198 -0.211 -0.185 -0.185
0.137475 1.133 -0.010 -0.195 -0.209 -0.184 -0.184
0.138437 1.137 -0.005 -0.192 -0.206 -0.181 -0.181
0.139398 1.142 -0.002 -0.190 -0.205 -0.180 -0.180
0.140359 1.144 0.002 -0.187 -0.202 -0.178 -0.178
0.141321 1.149 0.006 -0.185 -0.200 -0.176 -0.176
0.142282 1.153 0.010 -0.182 -0.199 -0.175 -0.175
0.143244 1.157 0.013 -0.180 -0.196 -0.172 -0.172
0.144205 1.161 0.018 -0.177 -0.194 -0.171 -0.171
0.145166 1.164 0.021 -0.174 -0.191 -0.169 -0.169
0.146128 1.168 0.025 -0.172 -0.190 -0.167 -0.167
0.147089 1.172 0.028 -0.169 -0.187 -0.165 -0.165
0.14805 1.177 0.032 -0.167 -0.185 -0.164 -0.164
0.149012 1.181 0.037 -0.164 -0.184 -0.162 -0.162
0.149973 1.184 0.040 -0.161 -0.181 -0.160 -0.160
0.150934 1.188 0.044 -0.159 -0.179 -0.159 -0.159
0.151896 1.192 0.047 -0.156 -0.176 -0.156 -0.156
0.152857 1.196 0.051 -0.153 -0.175 -0.155 -0.155
0.153819 1.200 0.054 -0.150 -0.173 -0.153 -0.153
0.15478 1.203 0.059 -0.148 -0.170 -0.151 -0.151
0.155741 1.207 0.062 -0.145 -0.169 -0.150 -0.150
0.156703 1.212 0.066 -0.142 -0.166 -0.148 -0.148
0.157664 1.216 0.069 -0.139 -0.164 -0.146 -0.146
0.158625 1.219 0.073 -0.137 -0.161 -0.144 -0.144
0.159587 1.223 0.077 -0.134 -0.160 -0.143 -0.143
0.160548 1.227 0.081 -0.131 -0.157 -0.141 -0.141
0.161509 1.231 0.084 -0.128 -0.155 -0.139 -0.139
0.162471 1.234 0.088 -0.125 -0.153 -0.138 -0.138
0.163432 1.238 0.091 -0.123 -0.151 -0.136 -0.136
0.164394 1.242 0.096 -0.120 -0.149 -0.134 -0.134
0.165355 1.247 0.099 -0.117 -0.146 -0.132 -0.132
0.166316 1.251 0.103 -0.114 -0.145 -0.131 -0.131
0.167278 1.254 0.108 -0.111 -0.142 -0.128 -0.128
0.168239 1.258 0.111 -0.108 -0.140 -0.127 -0.127
0.1692 1.262 0.115 -0.105 -0.138 -0.125 -0.125
0.170162 1.266 0.118 -0.102 -0.136 -0.123 -0.123
0.171123 1.269 0.123 -0.099 -0.133 -0.122 -0.122
0.172085 1.273 0.126 -0.096 -0.131 -0.120 -0.120
0.173046 1.278 0.130 -0.094 -0.129 -0.119 -0.119
0.174007 1.280 0.134 -0.091 -0.127 -0.116 -0.116
0.174969 1.285 0.138 -0.088 -0.124 -0.115 -0.115
0.17593 1.289 0.141 -0.085 -0.123 -0.113 -0.113
0.176891 1.293 0.145 -0.081 -0.120 -0.111 -0.111
0.177853 1.296 0.149 -0.078 -0.118 -0.110 -0.110
0.178814 1.300 0.153 -0.075 -0.116 -0.108 -0.108
0.179775 1.304 0.156 -0.073 -0.114 -0.106 -0.106
0.180737 1.307 0.161 -0.070 -0.111 -0.104 -0.104
0.181698 1.311 0.165 -0.067 -0.109 -0.102 -0.102
0.18266 1.315 0.168 -0.064 -0.107 -0.100 -0.100
0.183621 1.318 0.173 -0.062 -0.104 -0.099 -0.099
0.184582 1.322 0.176 -0.059 -0.102 -0.097 -0.097
0.185544 1.325 0.180 -0.056 -0.101 -0.095 -0.095
0.186505 1.329 0.183 -0.053 -0.098 -0.093 -0.093
0.187466 1.334 0.187 -0.051 -0.096 -0.091 -0.091
0.188428 1.336 0.190 -0.048 -0.094 -0.089 -0.089
0.189389 1.341 0.194 -0.046 -0.092 -0.088 -0.088
0.19035 1.343 0.197 -0.043 -0.089 -0.085 -0.085
0.191312 1.348 0.201 -0.040 -0.087 -0.084 -0.084
0.192273 1.350 0.204 -0.038 -0.085 -0.082 -0.082
0.193235 1.355 0.206 -0.035 -0.083 -0.080 -0.080
0.194196 1.357 0.210 -0.033 -0.081 -0.078 -0.078
0.195157 1.362 0.213 -0.030 -0.079 -0.076 -0.076
0.196119 1.364 0.216 -0.028 -0.077 -0.074 -0.074
0.19708 1.369 0.219 -0.025 -0.075 -0.072 -0.072
0.198041 1.371 0.223 -0.023 -0.072 -0.070 -0.070
0.199003 1.376 0.225 -0.021 -0.071 -0.068 -0.068
0.199964 1.378 0.228 -0.018 -0.069 -0.066 -0.066
0.200925 1.383 0.231 -0.016 -0.066 -0.064 -0.064
0.201887 1.385 0.233 -0.013 -0.064 -0.062 -0.062
0.202848 1.390 0.237 -0.011 -0.063 -0.060 -0.060
0.20381 1.392 0.239 -0.009 -0.060 -0.058 -0.058
0.204771 1.395 0.241 -0.006 -0.058 -0.056 -0.056
0.205732 1.399 0.245 -0.004 -0.056 -0.054 -0.054
0.206694 1.402 0.247 -0.002 -0.055 -0.052 -0.052
0.207655 1.405 0.249 0.000 -0.052 -0.050 -0.050
0.208616 1.409 0.252 0.003 -0.050 -0.048 -0.048
0.209578 1.412 0.254 0.005 -0.049 -0.046 -0.046
0.210539 1.415 0.256 0.007 -0.047 -0.044 -0.044
0.211501 1.419 0.259 0.009 -0.044 -0.042 -0.042
0.212462 1.422 0.261 0.012 -0.042 -0.040 -0.040
0.213423 1.425 0.263 0.014 -0.041 -0.038 -0.038
0.214385 1.427 0.266 0.016 -0.039 -0.036 -0.036
0.215346 1.430 0.267 0.018 -0.037 -0.034 -0.034
0.216307 1.434 0.269 0.020 -0.034 -0.032 -0.032
0.217269 1.437 0.272 0.023 -0.033 -0.030 -0.030
0.21823 1.440 0.274 0.025 -0.031 -0.029 -0.029
0.219191 1.443 0.276 0.027 -0.029 -0.026 -0.026
0.220153 1.446 0.277 0.029 -0.027 -0.025 -0.025
0.221114 1.448 0.280 0.032 -0.026 -0.023 -0.023
0.222076 1.451 0.282 0.034 -0.024 -0.021 -0.021
0.223037 1.454 0.284 0.036 -0.021 -0.020 -0.020
0.223998 1.457 0.285 0.038 -0.019 -0.017 -0.017
0.22496 1.460 0.288 0.040 -0.018 -0.016 -0.016
0.225921 1.462 0.290 0.042 -0.016 -0.014 -0.014
0.226882 1.465 0.292 0.045 -0.014 -0.012 -0.012
0.227844 1.468 0.294 0.047 -0.012 -0.010 -0.010
0.228805 1.469 0.296 0.049 -0.011 -0.009 -0.009
0.229766 1.472 0.298 0.051 -0.009 -0.007 -0.007
0.230728 1.475 0.299 0.053 -0.007 -0.005 -0.005
0.231689 1.478 0.302 0.055 -0.004 -0.004 -0.004
0.232651 1.479 0.304 0.058 -0.003 -0.002 -0.002
0.233612 1.482 0.306 0.060 -0.001 -0.001 -0.001
0.234573 1.485 0.308 0.062 0.001 0.001 0.001
0.235535 1.488 0.310 0.064 0.003 0.002 0.002
0.236496 1.489 0.312 0.066 0.004 0.004 0.004
0.237457 1.492 0.313 0.068 0.006 0.005 0.005
0.238419 1.495 0.316 0.070 0.008 0.007 0.007
0.23938 1.496 0.318 0.072 0.010 0.008 0.008
0.240342 1.499 0.319 0.076 0.011 0.010 0.010
0.241303 1.500 0.322 0.078 0.013 0.011 0.011
0.242264 1.503 0.324 0.080 0.015 0.013 0.013
0.243226 1.504 0.325 0.082 0.017 0.015 0.015
0.244187 1.507 0.327 0.083 0.019 0.016 0.016
0.245148 1.509 0.330 0.085 0.020 0.017 0.017
0.24611 1.510 0.331 0.087 0.022 0.018 0.018
0.247071 1.513 0.333 0.089 0.024 0.020 0.020
0.248032 1.514 0.335 0.091 0.026 0.021 0.021
0.248994 1.516 0.337 0.092 0.027 0.023 0.023
0.249955 1.517 0.339 0.094 0.029 0.024 0.024
0.250917 1.518 0.340 0.095 0.030 0.025 0.025
0.251878 1.520 0.342 0.097 0.032 0.027 0.027
0.252839 1.521 0.344 0.098 0.034 0.027 0.027
0.253801 1.523 0.346 0.100 0.035 0.029 0.029
0.254762 1.524 0.347 0.101 0.036 0.030 0.030
0.255723 1.525 0.348 0.103 0.038 0.031 0.031
0.256685 1.527 0.349 0.104 0.039 0.033 0.033
0.257646 1.528 0.351 0.105 0.041 0.033 0.033
0.258607 1.530 0.352 0.106 0.041 0.035 0.035
0.259569 1.530 0.353 0.107 0.042 0.036 0.036
0.26053 1.531 0.354 0.108 0.044 0.037 0.037
0.261492 1.532 0.355 0.109 0.045 0.038 0.038
0.262453 1.532 0.355 0.110 0.046 0.039 0.039
0.263414 1.534 0.356 0.111 0.047 0.040 0.040
0.264376 1.534 0.358 0.112 0.048 0.041 0.041
0.265337 1.535 0.358 0.113 0.049 0.042 0.042
0.266298 1.535 0.358 0.114 0.049 0.043 0.043
0.26726 1.537 0.359 0.114 0.050 0.044 0.044
0.268221 1.537 0.359 0.115 0.051 0.045 0.045
0.269182 1.537 0.359 0.115 0.052 0.046 0.046
0.270144 1.538 0.360 0.116 0.052 0.047 0.047
0.271105 1.538 0.360 0.116 0.053 0.048 0.048
0.272067 1.538 0.360 0.117 0.054 0.049 0.049
0.273028 1.538 0.360 0.117 0.054 0.049 0.049
0.273989 1.538 0.360 0.118 0.055 0.051 0.051
0.274951 1.538 0.359 0.118 0.055 0.052 0.052
0.275912 1.538 0.359 0.118 0.055 0.052 0.052
0.276873 1.538 0.359 0.119 0.056 0.053 0.053
0.277835 1.538 0.358 0.119 0.056 0.054 0.054
0.278796 1.538 0.358 0.119 0.056 0.055 0.055
0.279758 1.538 0.356 0.119 0.056 0.055 0.055
0.280719 1.538 0.355 0.119 0.056 0.056 0.056
0.28168 1.538 0.355 0.120 0.056 0.057 0.057
0.282642 1.538 0.354 0.120 0.056 0.058 0.058
0.283603 1.538 0.354 0.120 0.056 0.058 0.058
0.284564 1.538 0.353 0.120 0.056 0.059 0.059
0.285526 1.538 0.352 0.120 0.056 0.060 0.060
0.286487 1.538 0.352 0.120 0.056 0.060 0.060
0.287448 1.538 0.351 0.120 0.056 0.061 0.061
0.28841 1.538 0.351 0.121 0.056 0.061 0.061
0.289371 1.538 0.349 0.121 0.056 0.062 0.062
0.290333 1.538 0.349 0.121 0.056 0.063 0.063
0.291294 1.538 0.348 0.121 0.056 0.064 0.064
0.292255 1.538 0.348 0.121 0.056 0.064 0.064
0.293217 1.538 0.348 0.121 0.056 0.064 0.064
0.294178 1.538 0.348 0.121 0.057 0.065 0.065
0.295139 1.537 0.348 0.121 0.057 0.066 0.066
0.296101 1.537 0.348 0.121 0.057 0.066 0.066
0.297062 1.537 0.348 0.121 0.057 0.067 0.067
0.298023 1.537 0.348 0.121 0.058 0.067 0.067
0.298985 1.537 0.348 0.121 0.058 0.068 0.068
0.299946 1.537 0.348 0.121 0.059 0.068 0.068
0.300908 1.537 0.349 0.121 0.059 0.069 0.069
0.301869 1.537 0.349 0.121 0.059 0.069 0.069
0.30283 1.537 0.351 0.120 0.060 0.070 0.070
0.303792 1.537 0.351 0.120 0.060 0.070 0.070
0.304753 1.537 0.352 0.120 0.061 0.070 0.070
0.305714 1.537 0.353 0.120 0.061 0.071 0.071
0.306676 1.537 0.353 0.120 0.062 0.071 0.071
0.307637 1.537 0.354 0.120 0.063 0.072 0.072
0.308598 1.537 0.355 0.119 0.063 0.072 0.072
0.30956 1.537 0.356 0.119 0.064 0.073 0.073
0.310521 1.537 0.358 0.119 0.064 0.073 0.073
0.311483 1.535 0.359 0.119 0.064 0.073 0.073
0.312444 1.535 0.360 0.119 0.065 0.073 0.073
0.313405 1.535 0.361 0.119 0.066 0.074 0.074
0.314367 1.535 0.363 0.118 0.066 0.074 0.074
0.315328 1.535 0.365 0.118 0.067 0.074 0.074
0.316289 1.535 0.366 0.118 0.068 0.075 0.075
0.317251 1.535 0.368 0.118 0.069 0.075 0.075
0.318212 1.535 0.369 0.118 0.069 0.076 0.076
0.319174 1.534 0.372 0.118 0.070 0.076 0.076
0.320135 1.534 0.373 0.117 0.071 0.077 0.077
0.321096 1.534 0.375 0.117 0.071 0.077 0.077
0.322058 1.534 0.376 0.117 0.071 0.077 0.077
0.323019 1.534 0.378 0.117 0.072 0.077 0.077
0.32398 1.532 0.380 0.117 0.072 0.077 0.077
0.324942 1.532 0.381 0.117 0.072 0.078 0.078
0.325903 1.532 0.383 0.117 0.073 0.078 0.078
0.326864 1.532 0.384 0.117 0.073 0.079 0.079
0.327826 1.531 0.387 0.117 0.073 0.079 0.079
0.328787 1.531 0.388 0.117 0.073 0.080 0.080
0.329749 1.531 0.389 0.116 0.074 0.080 0.080
0.33071 1.531 0.390 0.116 0.074 0.080 0.080
0.331671 1.530 0.392 0.116 0.074 0.080 0.080
0.332633 1.530 0.394 0.116 0.074 0.080 0.080
0.333594 1.530 0.395 0.116 0.074 0.081 0.081
0.334555 1.528 0.396 0.116 0.074 0.081 0.081
0.335517 1.528 0.397 0.116 0.074 0.082 0.082
0.336478 1.527 0.399 0.116 0.074 0.082 0.082
0.337439 1.527 0.401 0.116 0.074 0.082 0.082
0.338401 1.527 0.402 0.116 0.073 0.083 0.083
0.339362 1.525 0.403 0.116 0.073 0.083 0.083
0.340324 1.525 0.404 0.116 0.073 0.083 0.083
0.341285 1.524 0.405 0.116 0.072 0.083 0.083
0.342246 1.524 0.406 0.116 0.072 0.084 0.084
0.343208 1.523 0.408 0.116 0.071 0.084 0.084
0.344169 1.523 0.409 0.116 0.071 0.084 0.084
0.34513 1.523 0.410 0.116 0.071 0.085 0.085
0.346092 1.521 0.412 0.116 0.070 0.085 0.085
0.347053 1.521 0.413 0.117 0.069 0.086 0.086
0.348014 1.520 0.413 0.117 0.068 0.086 0.086
0.348976 1.520 0.415 0.117 0.067 0.086 0.086
0.349937 1.520 0.416 0.118 0.067 0.087 0.087
0.350899 1.520 0.417 0.118 0.066 0.087 0.087
0.35186 1.520 0.418 0.119 0.066 0.088 0.088
0.352821 1.520 0.419 0.120 0.065 0.089 0.089
0.353783 1.520 0.419 0.121 0.065 0.089 0.089
0.354744 1.520 0.420 0.122 0.065 0.090 0.090
0.355705 1.520 0.420 0.123 0.064 0.091 0.091
0.356667 1.520 0.422 0.124 0.065 0.092 0.092
0.357628 1.520 0.422 0.125 0.065 0.093 0.093
0.35859 1.520 0.422 0.127 0.066 0.094 0.094
0.359551 1.521 0.422 0.128 0.066 0.095 0.095
0.360512 1.521 0.422 0.129 0.067 0.096 0.096
0.361474 1.521 0.422 0.131 0.069 0.097 0.097
0.362435 1.523 0.420 0.133 0.070 0.098 0.098
0.363396 1.523 0.420 0.134 0.071 0.099 0.099
0.364358 1.524 0.419 0.136 0.074 0.101 0.101
0.365319 1.524 0.418 0.138 0.076 0.101 0.101
0.36628 1.525 0.418 0.140 0.079 0.103 0.103
0.367242 1.527 0.417 0.142 0.081 0.105 0.105
0.368203 1.528 0.415 0.144 0.084 0.106 0.106
0.369165 1.528 0.413 0.146 0.086 0.108 0.108
0.370126 1.530 0.412 0.149 0.089 0.109 0.109
0.371087 1.531 0.410 0.151 0.093 0.111 0.111
0.372049 1.532 0.409 0.154 0.096 0.112 0.112
0.37301 1.534 0.406 0.156 0.100 0.114 0.114
0.373971 1.535 0.404 0.159 0.103 0.116 0.116
0.374933 1.537 0.402 0.162 0.108 0.117 0.117
0.375894 1.538 0.399 0.165 0.112 0.120 0.120
0.376855 1.541 0.397 0.167 0.116 0.121 0.121
0.377817 1.542 0.394 0.170 0.121 0.123 0.123
0.378778 1.544 0.391 0.173 0.126 0.125 0.125
0.37974 1.546 0.388 0.176 0.131 0.127 0.127
0.380701 1.548 0.385 0.179 0.137 0.129 0.129
0.381662 1.549 0.382 0.182 0.142 0.131 0.131
0.382624 1.552 0.378 0.185 0.148 0.133 0.133
0.383585 1.555 0.375 0.188 0.154 0.135 0.135
0.384546 1.556 0.372 0.191 0.160 0.137 0.137
0.385508 1.559 0.368 0.194 0.166 0.139 0.139
0.386469 1.562 0.363 0.197 0.172 0.142 0.142
0.38743 1.565 0.359 0.200 0.177 0.143 0.143
0.388392 1.568 0.354 0.203 0.183 0.145 0.145
0.389353 1.570 0.349 0.206 0.188 0.148 0.148
0.390315 1.573 0.344 0.208 0.192 0.150 0.150
0.391276 1.576 0.338 0.211 0.197 0.152 0.152
0.392237 1.579 0.332 0.214 0.201 0.154 0.154
0.393199 1.582 0.325 0.217 0.205 0.157 0.157
0.39416 1.586 0.318 0.219 0.208 0.159 0.159
0.395121 1.589 0.311 0.222 0.211 0.161 0.161
0.396083 1.591 0.303 0.225 0.213 0.163 0.163
0.397044 1.596 0.295 0.228 0.215 0.166 0.166
0.398006 1.598 0.287 0.230 0.217 0.168 0.168
