# IsPeriodic    : True
# Period        : 0.568736 days
# Normalization : <g_mag>=0
# 
# Phase u_mag  g_mag  r_mag  i_mag  z_mag  y_mag
 0.000  0.531 -0.637 -0.555 -0.497 -0.425 -0.425
 0.002  0.531 -0.638 -0.555 -0.497 -0.425 -0.425
 0.004  0.532 -0.637 -0.555 -0.497 -0.425 -0.425
 0.006  0.533 -0.636 -0.554 -0.497 -0.424 -0.424
 0.008  0.534 -0.635 -0.553 -0.496 -0.424 -0.424
 0.010  0.536 -0.633 -0.552 -0.495 -0.423 -0.423
 0.012  0.538 -0.631 -0.552 -0.495 -0.422 -0.422
 0.014  0.540 -0.629 -0.551 -0.494 -0.421 -0.421
 0.016  0.542 -0.627 -0.550 -0.494 -0.420 -0.420
 0.018  0.544 -0.624 -0.548 -0.493 -0.419 -0.419
 0.020  0.547 -0.621 -0.547 -0.492 -0.417 -0.417
 0.022  0.550 -0.618 -0.545 -0.491 -0.415 -0.415
 0.024  0.553 -0.615 -0.543 -0.490 -0.414 -0.414
 0.026  0.556 -0.612 -0.542 -0.489 -0.412 -0.412
 0.028  0.559 -0.609 -0.540 -0.487 -0.409 -0.409
 0.030  0.562 -0.605 -0.537 -0.486 -0.407 -0.407
 0.032  0.566 -0.602 -0.535 -0.485 -0.405 -0.405
 0.034  0.570 -0.598 -0.532 -0.483 -0.402 -0.402
 0.036  0.573 -0.595 -0.529 -0.482 -0.399 -0.399
 0.038  0.578 -0.591 -0.526 -0.480 -0.397 -0.397
 0.040  0.582 -0.587 -0.523 -0.478 -0.394 -0.394
 0.042  0.586 -0.583 -0.519 -0.476 -0.391 -0.391
 0.044  0.591 -0.579 -0.516 -0.474 -0.389 -0.389
 0.046  0.595 -0.575 -0.512 -0.472 -0.386 -0.386
 0.048  0.600 -0.571 -0.508 -0.470 -0.383 -0.383
 0.050  0.606 -0.566 -0.505 -0.468 -0.381 -0.381
 0.052  0.611 -0.561 -0.500 -0.465 -0.379 -0.379
 0.054  0.617 -0.556 -0.496 -0.462 -0.376 -0.376
 0.056  0.622 -0.551 -0.492 -0.460 -0.374 -0.374
 0.058  0.628 -0.545 -0.488 -0.457 -0.372 -0.372
 0.060  0.634 -0.540 -0.483 -0.454 -0.370 -0.370
 0.062  0.639 -0.534 -0.479 -0.452 -0.368 -0.368
 0.064  0.646 -0.528 -0.475 -0.449 -0.366 -0.366
 0.066  0.652 -0.522 -0.471 -0.446 -0.364 -0.364
 0.068  0.660 -0.516 -0.467 -0.443 -0.362 -0.362
 0.070  0.666 -0.510 -0.462 -0.440 -0.360 -0.360
 0.072  0.673 -0.504 -0.459 -0.437 -0.359 -0.359
 0.074  0.680 -0.498 -0.455 -0.434 -0.357 -0.357
 0.076  0.687 -0.491 -0.451 -0.431 -0.355 -0.355
 0.078  0.694 -0.485 -0.448 -0.428 -0.354 -0.354
 0.080  0.701 -0.479 -0.444 -0.424 -0.352 -0.352
 0.082  0.708 -0.472 -0.440 -0.421 -0.351 -0.351
 0.084  0.715 -0.466 -0.436 -0.419 -0.349 -0.349
 0.086  0.721 -0.460 -0.433 -0.415 -0.348 -0.348
 0.088  0.728 -0.454 -0.429 -0.412 -0.347 -0.347
 0.090  0.734 -0.447 -0.426 -0.409 -0.345 -0.345
 0.092  0.740 -0.441 -0.423 -0.407 -0.344 -0.344
 0.094  0.747 -0.435 -0.419 -0.404 -0.343 -0.343
 0.096  0.752 -0.430 -0.416 -0.401 -0.342 -0.342
 0.098  0.759 -0.424 -0.412 -0.399 -0.341 -0.341
 0.100  0.764 -0.418 -0.410 -0.396 -0.341 -0.341
 0.102  0.770 -0.412 -0.406 -0.394 -0.340 -0.340
 0.104  0.775 -0.408 -0.403 -0.391 -0.339 -0.339
 0.106  0.781 -0.402 -0.400 -0.389 -0.338 -0.338
 0.108  0.786 -0.397 -0.398 -0.387 -0.337 -0.337
 0.110  0.791 -0.391 -0.394 -0.384 -0.337 -0.337
 0.112  0.796 -0.386 -0.391 -0.382 -0.336 -0.336
 0.114  0.801 -0.381 -0.389 -0.379 -0.335 -0.335
 0.116  0.806 -0.375 -0.386 -0.377 -0.334 -0.334
 0.118  0.811 -0.370 -0.384 -0.375 -0.334 -0.334
 0.120  0.816 -0.365 -0.381 -0.372 -0.333 -0.333
 0.122  0.820 -0.360 -0.378 -0.371 -0.332 -0.332
 0.124  0.825 -0.355 -0.376 -0.368 -0.331 -0.331
 0.126  0.829 -0.350 -0.373 -0.366 -0.330 -0.330
 0.128  0.833 -0.345 -0.371 -0.364 -0.329 -0.329
 0.130  0.838 -0.341 -0.368 -0.362 -0.328 -0.328
 0.132  0.841 -0.336 -0.365 -0.360 -0.327 -0.327
 0.134  0.845 -0.332 -0.363 -0.359 -0.326 -0.326
 0.136  0.849 -0.327 -0.361 -0.357 -0.325 -0.325
 0.138  0.852 -0.323 -0.358 -0.355 -0.324 -0.324
 0.140  0.856 -0.318 -0.356 -0.353 -0.323 -0.323
 0.142  0.860 -0.314 -0.353 -0.351 -0.322 -0.322
 0.144  0.862 -0.310 -0.351 -0.350 -0.321 -0.321
 0.146  0.866 -0.305 -0.349 -0.348 -0.319 -0.319
 0.148  0.870 -0.301 -0.346 -0.346 -0.318 -0.318
 0.150  0.872 -0.297 -0.344 -0.345 -0.317 -0.317
 0.152  0.876 -0.293 -0.341 -0.343 -0.316 -0.316
 0.154  0.879 -0.289 -0.339 -0.342 -0.314 -0.314
 0.156  0.883 -0.285 -0.337 -0.340 -0.313 -0.313
 0.158  0.885 -0.280 -0.334 -0.338 -0.312 -0.312
 0.160  0.889 -0.276 -0.332 -0.337 -0.310 -0.310
 0.162  0.892 -0.272 -0.330 -0.335 -0.309 -0.309
 0.164  0.895 -0.268 -0.328 -0.333 -0.307 -0.307
 0.166  0.898 -0.264 -0.325 -0.331 -0.306 -0.306
 0.168  0.902 -0.260 -0.323 -0.330 -0.304 -0.304
 0.170  0.905 -0.256 -0.321 -0.328 -0.303 -0.303
 0.172  0.908 -0.252 -0.319 -0.326 -0.301 -0.301
 0.174  0.912 -0.248 -0.316 -0.325 -0.299 -0.299
 0.176  0.916 -0.245 -0.314 -0.323 -0.298 -0.298
 0.178  0.918 -0.241 -0.312 -0.322 -0.296 -0.296
 0.180  0.922 -0.237 -0.310 -0.320 -0.294 -0.294
 0.182  0.926 -0.233 -0.308 -0.318 -0.293 -0.293
 0.184  0.928 -0.229 -0.305 -0.317 -0.291 -0.291
 0.186  0.932 -0.225 -0.303 -0.315 -0.289 -0.289
 0.188  0.936 -0.221 -0.301 -0.314 -0.288 -0.288
 0.190  0.939 -0.217 -0.299 -0.312 -0.286 -0.286
 0.192  0.942 -0.213 -0.296 -0.310 -0.285 -0.285
 0.194  0.946 -0.209 -0.294 -0.309 -0.283 -0.283
 0.196  0.949 -0.205 -0.292 -0.308 -0.282 -0.282
 0.198  0.953 -0.201 -0.290 -0.306 -0.280 -0.280
 0.200  0.956 -0.197 -0.288 -0.304 -0.278 -0.278
 0.202  0.960 -0.193 -0.286 -0.303 -0.277 -0.277
 0.204  0.963 -0.189 -0.284 -0.301 -0.276 -0.276
 0.206  0.967 -0.185 -0.281 -0.300 -0.274 -0.274
 0.208  0.971 -0.181 -0.279 -0.298 -0.273 -0.273
 0.210  0.973 -0.177 -0.277 -0.297 -0.271 -0.271
 0.212  0.977 -0.173 -0.275 -0.295 -0.270 -0.270
 0.214  0.981 -0.169 -0.273 -0.293 -0.268 -0.268
 0.216  0.984 -0.165 -0.270 -0.292 -0.267 -0.267
 0.218  0.988 -0.162 -0.268 -0.290 -0.266 -0.266
 0.220  0.992 -0.158 -0.266 -0.289 -0.264 -0.264
 0.222  0.995 -0.154 -0.264 -0.288 -0.263 -0.263
 0.224  0.998 -0.150 -0.262 -0.286 -0.262 -0.262
 0.226  1.002 -0.146 -0.259 -0.284 -0.261 -0.261
 0.228  1.005 -0.142 -0.257 -0.283 -0.259 -0.259
 0.230  1.009 -0.139 -0.255 -0.281 -0.258 -0.258
 0.232  1.012 -0.135 -0.253 -0.280 -0.257 -0.257
 0.234  1.015 -0.131 -0.251 -0.278 -0.256 -0.256
 0.236  1.018 -0.128 -0.249 -0.277 -0.255 -0.255
 0.238  1.022 -0.124 -0.246 -0.275 -0.253 -0.253
 0.240  1.026 -0.121 -0.244 -0.273 -0.252 -0.252
 0.242  1.028 -0.117 -0.242 -0.272 -0.251 -0.251
 0.244  1.032 -0.114 -0.239 -0.270 -0.250 -0.250
 0.246  1.035 -0.110 -0.237 -0.269 -0.249 -0.249
 0.248  1.037 -0.107 -0.235 -0.267 -0.248 -0.248
 0.250  1.041 -0.103 -0.233 -0.265 -0.247 -0.247
 0.252  1.044 -0.100 -0.230 -0.264 -0.246 -0.246
 0.254  1.048 -0.097 -0.228 -0.262 -0.245 -0.245
 0.256  1.050 -0.093 -0.226 -0.261 -0.244 -0.244
 0.258  1.053 -0.090 -0.224 -0.259 -0.243 -0.243
 0.260  1.056 -0.087 -0.222 -0.257 -0.242 -0.242
 0.262  1.060 -0.084 -0.219 -0.256 -0.241 -0.241
 0.264  1.062 -0.081 -0.217 -0.254 -0.240 -0.240
 0.266  1.065 -0.079 -0.215 -0.252 -0.238 -0.238
 0.268  1.068 -0.076 -0.213 -0.251 -0.237 -0.237
 0.270  1.071 -0.073 -0.211 -0.249 -0.236 -0.236
 0.272  1.073 -0.070 -0.208 -0.248 -0.235 -0.235
 0.274  1.076 -0.067 -0.206 -0.246 -0.234 -0.234
 0.276  1.079 -0.064 -0.204 -0.244 -0.233 -0.233
 0.278  1.082 -0.061 -0.201 -0.243 -0.232 -0.232
 0.280  1.084 -0.058 -0.199 -0.241 -0.231 -0.231
 0.282  1.087 -0.055 -0.197 -0.239 -0.230 -0.230
 0.284  1.090 -0.052 -0.195 -0.237 -0.228 -0.228
 0.286  1.093 -0.050 -0.193 -0.236 -0.227 -0.227
 0.288  1.095 -0.047 -0.191 -0.234 -0.226 -0.226
 0.290  1.098 -0.044 -0.189 -0.232 -0.225 -0.225
 0.292  1.100 -0.042 -0.187 -0.231 -0.224 -0.224
 0.294  1.103 -0.039 -0.185 -0.230 -0.223 -0.223
 0.296  1.105 -0.036 -0.182 -0.228 -0.221 -0.221
 0.298  1.108 -0.033 -0.180 -0.226 -0.220 -0.220
 0.300  1.111 -0.031 -0.178 -0.224 -0.219 -0.219
 0.302  1.113 -0.028 -0.176 -0.223 -0.218 -0.218
 0.304  1.115 -0.025 -0.174 -0.222 -0.216 -0.216
 0.306  1.118 -0.023 -0.172 -0.220 -0.215 -0.215
 0.308  1.121 -0.020 -0.170 -0.218 -0.214 -0.214
 0.310  1.124 -0.017 -0.168 -0.217 -0.213 -0.213
 0.312  1.126 -0.014 -0.166 -0.215 -0.212 -0.212
 0.314  1.128 -0.011 -0.164 -0.214 -0.210 -0.210
 0.316  1.131 -0.009 -0.162 -0.212 -0.209 -0.209
 0.318  1.134 -0.006 -0.160 -0.211 -0.208 -0.208
 0.320  1.137 -0.003 -0.158 -0.210 -0.206 -0.206
 0.322  1.138  0.000 -0.156 -0.208 -0.205 -0.205
 0.324  1.141  0.003 -0.154 -0.207 -0.204 -0.204
 0.326  1.144  0.006 -0.152 -0.205 -0.203 -0.203
 0.328  1.147  0.009 -0.151 -0.204 -0.201 -0.201
 0.330  1.148  0.012 -0.149 -0.202 -0.200 -0.200
 0.332  1.151  0.015 -0.147 -0.201 -0.199 -0.199
 0.334  1.154  0.018 -0.145 -0.200 -0.197 -0.197
 0.336  1.157  0.021 -0.143 -0.198 -0.196 -0.196
 0.338  1.159  0.024 -0.142 -0.197 -0.195 -0.195
 0.340  1.161  0.027 -0.140 -0.196 -0.194 -0.194
 0.342  1.164  0.030 -0.137 -0.194 -0.192 -0.192
 0.344  1.167  0.033 -0.136 -0.193 -0.191 -0.191
 0.346  1.170  0.036 -0.134 -0.192 -0.190 -0.190
 0.348  1.171  0.039 -0.133 -0.190 -0.189 -0.189
 0.350  1.174  0.042 -0.130 -0.189 -0.187 -0.187
 0.352  1.177  0.045 -0.129 -0.188 -0.186 -0.186
 0.354  1.180  0.048 -0.127 -0.187 -0.185 -0.185
 0.356  1.181  0.051 -0.125 -0.186 -0.184 -0.184
 0.358  1.184  0.054 -0.123 -0.185 -0.182 -0.182
 0.360  1.187  0.058 -0.121 -0.183 -0.181 -0.181
 0.362  1.189  0.061 -0.120 -0.182 -0.180 -0.180
 0.364  1.192  0.064 -0.118 -0.181 -0.179 -0.179
 0.366  1.194  0.067 -0.116 -0.179 -0.178 -0.178
 0.368  1.197  0.070 -0.114 -0.178 -0.176 -0.176
 0.370  1.199  0.073 -0.112 -0.177 -0.175 -0.175
 0.372  1.202  0.076 -0.111 -0.175 -0.174 -0.174
 0.374  1.204  0.079 -0.109 -0.174 -0.173 -0.173
 0.376  1.206  0.082 -0.107 -0.173 -0.171 -0.171
 0.378  1.209  0.085 -0.105 -0.171 -0.170 -0.170
 0.380  1.212  0.088 -0.103 -0.170 -0.169 -0.169
 0.382  1.214  0.090 -0.102 -0.169 -0.168 -0.168
 0.384  1.216  0.093 -0.100 -0.168 -0.167 -0.167
 0.386  1.218  0.095 -0.097 -0.166 -0.165 -0.165
 0.388  1.221  0.098 -0.096 -0.165 -0.164 -0.164
 0.390  1.224  0.101 -0.094 -0.164 -0.163 -0.163
 0.392  1.225  0.104 -0.092 -0.162 -0.162 -0.162
 0.394  1.228  0.107 -0.090 -0.161 -0.161 -0.161
 0.396  1.230  0.109 -0.088 -0.160 -0.160 -0.160
 0.398  1.233  0.112 -0.086 -0.158 -0.158 -0.158
 0.400  1.235  0.115 -0.085 -0.157 -0.157 -0.157
 0.402  1.237  0.117 -0.083 -0.155 -0.156 -0.156
 0.404  1.239  0.120 -0.081 -0.154 -0.155 -0.155
 0.406  1.242  0.122 -0.079 -0.153 -0.154 -0.154
 0.408  1.244  0.125 -0.077 -0.152 -0.153 -0.153
 0.410  1.247  0.127 -0.075 -0.150 -0.151 -0.151
 0.412  1.248  0.130 -0.073 -0.149 -0.150 -0.150
 0.414  1.251  0.132 -0.071 -0.148 -0.149 -0.149
 0.416  1.253  0.135 -0.069 -0.146 -0.148 -0.148
 0.418  1.256  0.137 -0.068 -0.145 -0.147 -0.147
 0.420  1.258  0.139 -0.066 -0.143 -0.146 -0.146
 0.422  1.260  0.142 -0.064 -0.142 -0.145 -0.145
 0.424  1.262  0.144 -0.062 -0.140 -0.143 -0.143
 0.426  1.264  0.146 -0.061 -0.139 -0.142 -0.142
 0.428  1.267  0.148 -0.059 -0.137 -0.141 -0.141
 0.430  1.269  0.151 -0.057 -0.136 -0.140 -0.140
 0.432  1.270  0.153 -0.055 -0.134 -0.139 -0.139
 0.434  1.273  0.155 -0.054 -0.133 -0.138 -0.138
 0.436  1.275  0.157 -0.052 -0.132 -0.137 -0.137
 0.438  1.277  0.159 -0.050 -0.130 -0.136 -0.136
 0.440  1.280  0.161 -0.048 -0.129 -0.135 -0.135
 0.442  1.281  0.163 -0.047 -0.128 -0.134 -0.134
 0.444  1.283  0.165 -0.045 -0.126 -0.133 -0.133
 0.446  1.285  0.167 -0.043 -0.125 -0.132 -0.132
 0.448  1.287  0.169 -0.042 -0.123 -0.130 -0.130
 0.450  1.290  0.171 -0.040 -0.122 -0.129 -0.129
 0.452  1.292  0.173 -0.038 -0.120 -0.128 -0.128
 0.454  1.293  0.175 -0.037 -0.119 -0.127 -0.127
 0.456  1.295  0.177 -0.036 -0.118 -0.126 -0.126
 0.458  1.297  0.179 -0.034 -0.116 -0.125 -0.125
 0.460  1.299  0.181 -0.032 -0.115 -0.124 -0.124
 0.462  1.301  0.183 -0.031 -0.113 -0.123 -0.123
 0.464  1.303  0.184 -0.029 -0.112 -0.122 -0.122
 0.466  1.304  0.186 -0.028 -0.111 -0.121 -0.121
 0.468  1.306  0.188 -0.026 -0.109 -0.120 -0.120
 0.470  1.308  0.189 -0.025 -0.108 -0.119 -0.119
 0.472  1.310  0.191 -0.024 -0.107 -0.118 -0.118
 0.474  1.312  0.193 -0.021 -0.105 -0.117 -0.117
 0.476  1.313  0.194 -0.020 -0.104 -0.116 -0.116
 0.478  1.314  0.196 -0.019 -0.103 -0.115 -0.115
 0.480  1.316  0.198 -0.017 -0.101 -0.114 -0.114
 0.482  1.318  0.199 -0.016 -0.100 -0.113 -0.113
 0.484  1.319  0.201 -0.014 -0.099 -0.112 -0.112
 0.486  1.321  0.202 -0.013 -0.097 -0.111 -0.111
 0.488  1.323  0.204 -0.012 -0.096 -0.110 -0.110
 0.490  1.325  0.205 -0.011 -0.095 -0.109 -0.109
 0.492  1.325  0.207 -0.009 -0.093 -0.108 -0.108
 0.494  1.327  0.208 -0.008 -0.092 -0.107 -0.107
 0.496  1.329  0.209 -0.007 -0.091 -0.106 -0.106
 0.498  1.330  0.211 -0.006 -0.090 -0.105 -0.105
 0.500  1.332  0.212 -0.005 -0.088 -0.105 -0.105
 0.502  1.333  0.213 -0.004 -0.087 -0.104 -0.104
 0.504  1.335  0.215 -0.002 -0.086 -0.103 -0.103
 0.506  1.336  0.216 -0.002 -0.085 -0.102 -0.102
 0.508  1.337  0.217 -0.000 -0.084 -0.101 -0.101
 0.510  1.338  0.218  0.000 -0.083 -0.100 -0.100
 0.512  1.339  0.219  0.002 -0.081 -0.099 -0.099
 0.514  1.341  0.221  0.002 -0.080 -0.099 -0.099
 0.516  1.342  0.222  0.003 -0.079 -0.098 -0.098
 0.518  1.343  0.223  0.004 -0.078 -0.097 -0.097
 0.520  1.344  0.224  0.005 -0.077 -0.096 -0.096
 0.522  1.345  0.225  0.006 -0.076 -0.095 -0.095
 0.524  1.346  0.226  0.007 -0.075 -0.095 -0.095
 0.526  1.347  0.227  0.007 -0.075 -0.094 -0.094
 0.528  1.347  0.228  0.008 -0.074 -0.093 -0.093
 0.530  1.348  0.228  0.009 -0.072 -0.092 -0.092
 0.532  1.349  0.229  0.009 -0.072 -0.092 -0.092
 0.534  1.350  0.230  0.010 -0.071 -0.091 -0.091
 0.536  1.351  0.231  0.010 -0.070 -0.090 -0.090
 0.538  1.352  0.232  0.011 -0.070 -0.089 -0.089
 0.540  1.352  0.232  0.012 -0.068 -0.089 -0.089
 0.542  1.353  0.233  0.012 -0.068 -0.088 -0.088
 0.544  1.354  0.234  0.012 -0.067 -0.087 -0.087
 0.546  1.354  0.234  0.013 -0.067 -0.086 -0.086
 0.548  1.355  0.235  0.014 -0.066 -0.086 -0.086
 0.550  1.355  0.235  0.014 -0.065 -0.085 -0.085
 0.552  1.356  0.236  0.014 -0.064 -0.084 -0.084
 0.554  1.356  0.236  0.014 -0.064 -0.084 -0.084
 0.556  1.357  0.237  0.015 -0.063 -0.083 -0.083
 0.558  1.357  0.237  0.015 -0.063 -0.082 -0.082
 0.560  1.357  0.238  0.015 -0.063 -0.082 -0.082
 0.562  1.358  0.238  0.016 -0.062 -0.081 -0.081
 0.564  1.358  0.238  0.016 -0.062 -0.080 -0.080
 0.566  1.358  0.239  0.017 -0.061 -0.079 -0.079
 0.568  1.358  0.239  0.017 -0.061 -0.079 -0.079
 0.570  1.358  0.239  0.017 -0.060 -0.078 -0.078
 0.572  1.358  0.239  0.017 -0.060 -0.078 -0.078
 0.574  1.358  0.239  0.018 -0.060 -0.077 -0.077
 0.576  1.358  0.240  0.018 -0.059 -0.076 -0.076
 0.578  1.358  0.240  0.019 -0.059 -0.076 -0.076
 0.580  1.358  0.240  0.019 -0.059 -0.075 -0.075
 0.582  1.358  0.240  0.019 -0.058 -0.074 -0.074
 0.584  1.358  0.240  0.019 -0.058 -0.074 -0.074
 0.586  1.358  0.240  0.020 -0.058 -0.073 -0.073
 0.588  1.358  0.240  0.020 -0.057 -0.073 -0.073
 0.590  1.358  0.241  0.021 -0.056 -0.072 -0.072
 0.592  1.358  0.241  0.021 -0.056 -0.071 -0.071
 0.594  1.358  0.241  0.021 -0.056 -0.071 -0.071
 0.596  1.358  0.241  0.021 -0.055 -0.070 -0.070
 0.598  1.358  0.241  0.022 -0.055 -0.070 -0.070
 0.600  1.358  0.241  0.022 -0.055 -0.069 -0.069
 0.602  1.358  0.242  0.023 -0.054 -0.068 -0.068
 0.604  1.358  0.242  0.023 -0.054 -0.068 -0.068
 0.606  1.358  0.242  0.024 -0.054 -0.067 -0.067
 0.608  1.358  0.242  0.024 -0.053 -0.067 -0.067
 0.610  1.358  0.243  0.024 -0.052 -0.066 -0.066
 0.612  1.358  0.243  0.025 -0.052 -0.066 -0.066
 0.614  1.357  0.243  0.025 -0.052 -0.065 -0.065
 0.616  1.357  0.243  0.026 -0.051 -0.064 -0.064
 0.618  1.357  0.244  0.026 -0.051 -0.064 -0.064
 0.620  1.357  0.244  0.026 -0.051 -0.063 -0.063
 0.622  1.357  0.244  0.027 -0.050 -0.063 -0.063
 0.624  1.357  0.245  0.028 -0.050 -0.062 -0.062
 0.626  1.357  0.245  0.028 -0.050 -0.062 -0.062
 0.628  1.357  0.245  0.028 -0.049 -0.061 -0.061
 0.630  1.357  0.246  0.028 -0.048 -0.060 -0.060
 0.632  1.357  0.246  0.029 -0.048 -0.060 -0.060
 0.634  1.357  0.246  0.029 -0.048 -0.059 -0.059
 0.636  1.357  0.247  0.029 -0.047 -0.059 -0.059
 0.638  1.357  0.247  0.030 -0.047 -0.058 -0.058
 0.640  1.357  0.247  0.030 -0.046 -0.058 -0.058
 0.642  1.357  0.248  0.030 -0.046 -0.057 -0.057
 0.644  1.357  0.248  0.030 -0.046 -0.056 -0.056
 0.646  1.357  0.248  0.031 -0.045 -0.056 -0.056
 0.648  1.356  0.249  0.031 -0.044 -0.055 -0.055
 0.650  1.356  0.249  0.031 -0.044 -0.055 -0.055
 0.652  1.356  0.249  0.031 -0.044 -0.054 -0.054
 0.654  1.356  0.250  0.031 -0.043 -0.053 -0.053
 0.656  1.356  0.250  0.031 -0.043 -0.053 -0.053
 0.658  1.356  0.250  0.030 -0.043 -0.052 -0.052
 0.660  1.356  0.250  0.030 -0.043 -0.052 -0.052
 0.662  1.356  0.250  0.030 -0.042 -0.051 -0.051
 0.664  1.355  0.251  0.030 -0.042 -0.050 -0.050
 0.666  1.355  0.251  0.029 -0.042 -0.050 -0.050
 0.668  1.355  0.251  0.029 -0.042 -0.049 -0.049
 0.670  1.355  0.251  0.028 -0.042 -0.048 -0.048
 0.672  1.355  0.251  0.028 -0.042 -0.048 -0.048
 0.674  1.354  0.250  0.028 -0.041 -0.047 -0.047
 0.676  1.354  0.250  0.028 -0.041 -0.047 -0.047
 0.678  1.354  0.250  0.027 -0.041 -0.046 -0.046
 0.680  1.354  0.250  0.026 -0.041 -0.045 -0.045
 0.682  1.353  0.250  0.026 -0.040 -0.045 -0.045
 0.684  1.353  0.249  0.026 -0.040 -0.044 -0.044
 0.686  1.353  0.249  0.025 -0.040 -0.043 -0.043
 0.688  1.353  0.248  0.024 -0.040 -0.043 -0.043
 0.690  1.352  0.248  0.024 -0.040 -0.042 -0.042
 0.692  1.352  0.248  0.023 -0.040 -0.041 -0.041
 0.694  1.352  0.247  0.022 -0.040 -0.041 -0.041
 0.696  1.351  0.247  0.021 -0.040 -0.040 -0.040
 0.698  1.351  0.246  0.021 -0.041 -0.039 -0.039
 0.700  1.350  0.245  0.020 -0.041 -0.039 -0.039
 0.702  1.350  0.245  0.019 -0.041 -0.038 -0.038
 0.704  1.350  0.244  0.019 -0.041 -0.037 -0.037
 0.706  1.349  0.243  0.019 -0.041 -0.037 -0.037
 0.708  1.349  0.243  0.018 -0.042 -0.036 -0.036
 0.710  1.348  0.242  0.018 -0.042 -0.035 -0.035
 0.712  1.348  0.241  0.018 -0.042 -0.034 -0.034
 0.714  1.347  0.240  0.018 -0.042 -0.034 -0.034
 0.716  1.347  0.239  0.018 -0.042 -0.033 -0.033
 0.718  1.347  0.238  0.018 -0.042 -0.032 -0.032
 0.720  1.347  0.237  0.019 -0.042 -0.031 -0.031
 0.722  1.347  0.236  0.019 -0.042 -0.030 -0.030
 0.724  1.346  0.236  0.019 -0.042 -0.030 -0.030
 0.726  1.346  0.235  0.020 -0.042 -0.029 -0.029
 0.728  1.346  0.234  0.021 -0.042 -0.028 -0.028
 0.730  1.346  0.234  0.022 -0.042 -0.027 -0.027
 0.732  1.346  0.234  0.023 -0.042 -0.026 -0.026
 0.734  1.346  0.234  0.024 -0.041 -0.026 -0.026
 0.736  1.346  0.234  0.025 -0.041 -0.025 -0.025
 0.738  1.346  0.234  0.026 -0.040 -0.024 -0.024
 0.740  1.346  0.234  0.028 -0.040 -0.023 -0.023
 0.742  1.346  0.234  0.029 -0.039 -0.022 -0.022
 0.744  1.346  0.235  0.031 -0.039 -0.022 -0.022
 0.746  1.346  0.235  0.033 -0.038 -0.021 -0.021
 0.748  1.347  0.236  0.034 -0.038 -0.020 -0.020
 0.750  1.347  0.237  0.036 -0.037 -0.019 -0.019
 0.752  1.347  0.238  0.038 -0.036 -0.018 -0.018
 0.754  1.347  0.239  0.040 -0.035 -0.017 -0.017
 0.756  1.347  0.240  0.043 -0.035 -0.016 -0.016
 0.758  1.348  0.241  0.045 -0.034 -0.015 -0.015
 0.760  1.348  0.242  0.048 -0.033 -0.013 -0.013
 0.762  1.349  0.244  0.051 -0.032 -0.012 -0.012
 0.764  1.350  0.245  0.053 -0.031 -0.011 -0.011
 0.766  1.351  0.247  0.056 -0.030 -0.009 -0.009
 0.768  1.351  0.249  0.059 -0.029 -0.008 -0.008
 0.770  1.352  0.251  0.062 -0.027 -0.006 -0.006
 0.772  1.353  0.253  0.064 -0.026 -0.005 -0.005
 0.774  1.354  0.255  0.067 -0.025 -0.003 -0.003
 0.776  1.355  0.256  0.070 -0.023 -0.001 -0.001
 0.778  1.356  0.259  0.073 -0.022  0.001  0.001
 0.780  1.357  0.261  0.076 -0.021  0.003  0.003
 0.782  1.358  0.264  0.078 -0.019  0.005  0.005
 0.784  1.359  0.267  0.081 -0.018  0.007  0.007
 0.786  1.360  0.270  0.084 -0.017  0.010  0.010
 0.788  1.361  0.273  0.087 -0.015  0.012  0.012
 0.790  1.363  0.275  0.090 -0.013  0.014  0.014
 0.792  1.364  0.278  0.092 -0.011  0.017  0.017
 0.794  1.365  0.281  0.095 -0.010  0.019  0.019
 0.796  1.367  0.284  0.097 -0.008  0.022  0.022
 0.798  1.369  0.287  0.100 -0.006  0.024  0.024
 0.800  1.369  0.290  0.102 -0.004  0.027  0.027
 0.802  1.371  0.293  0.105 -0.002  0.030  0.030
 0.804  1.373  0.296  0.107 -0.000  0.033  0.033
 0.806  1.375  0.298  0.109  0.002  0.036  0.036
 0.808  1.377  0.301  0.112  0.004  0.039  0.039
