# IsPeriodic    : True
# Period        : 0.517057 days
# Normalization : <g_mag>=0
# 
# Phase u_mag  g_mag  r_mag  i_mag  z_mag  y_mag
 0.000  0.500 -0.678 -0.569 -0.459 -0.430 -0.430
 0.002  0.501 -0.678 -0.569 -0.459 -0.430 -0.430
 0.004  0.502 -0.677 -0.569 -0.459 -0.430 -0.430
 0.006  0.503 -0.676 -0.568 -0.459 -0.430 -0.430
 0.008  0.505 -0.674 -0.568 -0.457 -0.430 -0.430
 0.010  0.507 -0.671 -0.567 -0.457 -0.429 -0.429
 0.012  0.510 -0.669 -0.566 -0.456 -0.428 -0.428
 0.014  0.513 -0.666 -0.564 -0.454 -0.428 -0.428
 0.016  0.517 -0.662 -0.564 -0.452 -0.427 -0.427
 0.018  0.521 -0.658 -0.562 -0.451 -0.426 -0.426
 0.020  0.525 -0.654 -0.561 -0.449 -0.425 -0.425
 0.022  0.530 -0.650 -0.559 -0.447 -0.425 -0.425
 0.024  0.534 -0.646 -0.557 -0.444 -0.424 -0.424
 0.026  0.538 -0.641 -0.555 -0.442 -0.422 -0.422
 0.028  0.542 -0.637 -0.553 -0.440 -0.421 -0.421
 0.030  0.546 -0.633 -0.551 -0.438 -0.420 -0.420
 0.032  0.550 -0.628 -0.549 -0.435 -0.418 -0.418
 0.034  0.555 -0.624 -0.547 -0.432 -0.417 -0.417
 0.036  0.559 -0.620 -0.545 -0.430 -0.415 -0.415
 0.038  0.563 -0.615 -0.543 -0.428 -0.413 -0.413
 0.040  0.566 -0.610 -0.541 -0.425 -0.412 -0.412
 0.042  0.571 -0.606 -0.538 -0.423 -0.410 -0.410
 0.044  0.575 -0.600 -0.536 -0.420 -0.408 -0.408
 0.046  0.580 -0.596 -0.534 -0.418 -0.406 -0.406
 0.048  0.584 -0.590 -0.530 -0.415 -0.404 -0.404
 0.050  0.589 -0.585 -0.528 -0.413 -0.401 -0.401
 0.052  0.594 -0.580 -0.525 -0.410 -0.399 -0.399
 0.054  0.598 -0.574 -0.522 -0.409 -0.396 -0.396
 0.056  0.603 -0.569 -0.519 -0.406 -0.394 -0.394
 0.058  0.608 -0.562 -0.516 -0.404 -0.391 -0.391
 0.060  0.613 -0.557 -0.512 -0.402 -0.389 -0.389
 0.062  0.618 -0.550 -0.509 -0.400 -0.385 -0.385
 0.064  0.623 -0.544 -0.505 -0.397 -0.383 -0.383
 0.066  0.628 -0.538 -0.502 -0.395 -0.380 -0.380
 0.068  0.633 -0.531 -0.498 -0.393 -0.377 -0.377
 0.070  0.639 -0.525 -0.494 -0.391 -0.374 -0.374
 0.072  0.644 -0.518 -0.490 -0.388 -0.370 -0.370
 0.074  0.650 -0.512 -0.486 -0.386 -0.367 -0.367
 0.076  0.654 -0.505 -0.483 -0.384 -0.364 -0.364
 0.078  0.660 -0.498 -0.479 -0.382 -0.361 -0.361
 0.080  0.665 -0.491 -0.475 -0.380 -0.358 -0.358
 0.082  0.671 -0.485 -0.471 -0.377 -0.355 -0.355
 0.084  0.677 -0.477 -0.467 -0.375 -0.352 -0.352
 0.086  0.682 -0.471 -0.463 -0.373 -0.349 -0.349
 0.088  0.687 -0.464 -0.459 -0.371 -0.346 -0.346
 0.090  0.692 -0.458 -0.456 -0.369 -0.343 -0.343
 0.092  0.698 -0.451 -0.452 -0.367 -0.340 -0.340
 0.094  0.703 -0.445 -0.448 -0.365 -0.338 -0.338
 0.096  0.709 -0.438 -0.444 -0.363 -0.335 -0.335
 0.098  0.713 -0.432 -0.440 -0.360 -0.333 -0.333
 0.100  0.718 -0.425 -0.436 -0.359 -0.330 -0.330
 0.102  0.724 -0.420 -0.432 -0.356 -0.328 -0.328
 0.104  0.729 -0.413 -0.429 -0.355 -0.325 -0.325
 0.106  0.734 -0.408 -0.425 -0.352 -0.323 -0.323
 0.108  0.739 -0.401 -0.421 -0.350 -0.321 -0.321
 0.110  0.743 -0.396 -0.418 -0.349 -0.319 -0.319
 0.112  0.748 -0.391 -0.414 -0.346 -0.317 -0.317
 0.114  0.753 -0.385 -0.410 -0.344 -0.314 -0.314
 0.116  0.758 -0.380 -0.406 -0.342 -0.312 -0.312
 0.118  0.762 -0.374 -0.403 -0.340 -0.310 -0.310
 0.120  0.767 -0.370 -0.399 -0.338 -0.308 -0.308
 0.122  0.771 -0.365 -0.395 -0.336 -0.306 -0.306
 0.124  0.775 -0.360 -0.392 -0.334 -0.305 -0.305
 0.126  0.780 -0.355 -0.388 -0.332 -0.303 -0.303
 0.128  0.784 -0.351 -0.385 -0.330 -0.301 -0.301
 0.130  0.789 -0.346 -0.382 -0.328 -0.299 -0.299
 0.132  0.793 -0.342 -0.378 -0.326 -0.298 -0.298
 0.134  0.797 -0.338 -0.375 -0.324 -0.296 -0.296
 0.136  0.801 -0.333 -0.371 -0.322 -0.295 -0.295
 0.138  0.805 -0.329 -0.368 -0.320 -0.293 -0.293
 0.140  0.809 -0.325 -0.365 -0.318 -0.292 -0.292
 0.142  0.813 -0.322 -0.361 -0.316 -0.291 -0.291
 0.144  0.817 -0.317 -0.358 -0.314 -0.290 -0.290
 0.146  0.821 -0.314 -0.354 -0.312 -0.288 -0.288
 0.148  0.825 -0.310 -0.351 -0.310 -0.287 -0.287
 0.150  0.829 -0.306 -0.348 -0.308 -0.285 -0.285
 0.152  0.832 -0.303 -0.344 -0.306 -0.284 -0.284
 0.154  0.836 -0.300 -0.341 -0.305 -0.283 -0.283
 0.156  0.840 -0.296 -0.338 -0.303 -0.282 -0.282
 0.158  0.844 -0.292 -0.335 -0.300 -0.281 -0.281
 0.160  0.847 -0.289 -0.332 -0.299 -0.279 -0.279
 0.162  0.851 -0.286 -0.329 -0.297 -0.278 -0.278
 0.164  0.855 -0.283 -0.326 -0.294 -0.277 -0.277
 0.166  0.859 -0.279 -0.323 -0.293 -0.275 -0.275
 0.168  0.862 -0.276 -0.320 -0.291 -0.274 -0.274
 0.170  0.865 -0.272 -0.317 -0.289 -0.272 -0.272
 0.172  0.869 -0.269 -0.314 -0.287 -0.271 -0.271
 0.174  0.873 -0.264 -0.310 -0.285 -0.270 -0.270
 0.176  0.877 -0.261 -0.308 -0.283 -0.269 -0.269
 0.178  0.881 -0.257 -0.305 -0.281 -0.267 -0.267
 0.180  0.884 -0.254 -0.303 -0.280 -0.266 -0.266
 0.182  0.888 -0.249 -0.300 -0.278 -0.264 -0.264
 0.184  0.891 -0.246 -0.297 -0.276 -0.263 -0.263
 0.186  0.895 -0.242 -0.294 -0.274 -0.262 -0.262
 0.188  0.899 -0.237 -0.292 -0.272 -0.260 -0.260
 0.190  0.903 -0.234 -0.289 -0.271 -0.259 -0.259
 0.192  0.907 -0.230 -0.287 -0.269 -0.257 -0.257
 0.194  0.910 -0.225 -0.284 -0.268 -0.256 -0.256
 0.196  0.914 -0.222 -0.281 -0.266 -0.255 -0.255
 0.198  0.918 -0.218 -0.279 -0.264 -0.253 -0.253
 0.200  0.921 -0.214 -0.277 -0.262 -0.252 -0.252
 0.202  0.925 -0.209 -0.274 -0.260 -0.250 -0.250
 0.204  0.928 -0.205 -0.272 -0.259 -0.249 -0.249
 0.206  0.932 -0.202 -0.270 -0.258 -0.248 -0.248
 0.208  0.936 -0.197 -0.267 -0.256 -0.246 -0.246
 0.210  0.940 -0.193 -0.265 -0.255 -0.244 -0.244
 0.212  0.944 -0.188 -0.263 -0.253 -0.243 -0.243
 0.214  0.948 -0.183 -0.260 -0.251 -0.242 -0.242
 0.216  0.951 -0.179 -0.258 -0.250 -0.240 -0.240
 0.218  0.955 -0.175 -0.256 -0.248 -0.239 -0.239
 0.220  0.958 -0.170 -0.254 -0.247 -0.237 -0.237
 0.222  0.962 -0.166 -0.252 -0.245 -0.236 -0.236
 0.224  0.966 -0.161 -0.249 -0.244 -0.234 -0.234
 0.226  0.970 -0.156 -0.248 -0.243 -0.233 -0.233
 0.228  0.974 -0.152 -0.246 -0.241 -0.232 -0.232
 0.230  0.978 -0.148 -0.243 -0.240 -0.230 -0.230
 0.232  0.980 -0.143 -0.241 -0.238 -0.228 -0.228
 0.234  0.984 -0.139 -0.239 -0.237 -0.227 -0.227
 0.236  0.988 -0.135 -0.237 -0.235 -0.226 -0.226
 0.238  0.991 -0.130 -0.235 -0.234 -0.224 -0.224
 0.240  0.995 -0.126 -0.233 -0.233 -0.223 -0.223
 0.242  0.999 -0.122 -0.230 -0.231 -0.221 -0.221
 0.244  1.002 -0.117 -0.229 -0.230 -0.220 -0.220
 0.246  1.006 -0.113 -0.226 -0.229 -0.219 -0.219
 0.248  1.008 -0.109 -0.224 -0.227 -0.217 -0.217
 0.250  1.012 -0.106 -0.222 -0.226 -0.216 -0.216
 0.252  1.015 -0.101 -0.219 -0.225 -0.214 -0.214
 0.254  1.019 -0.097 -0.218 -0.223 -0.213 -0.213
 0.256  1.022 -0.093 -0.216 -0.222 -0.212 -0.212
 0.258  1.026 -0.089 -0.213 -0.220 -0.211 -0.211
 0.260  1.029 -0.085 -0.211 -0.219 -0.209 -0.209
 0.262  1.032 -0.082 -0.209 -0.217 -0.207 -0.207
 0.264  1.036 -0.077 -0.206 -0.216 -0.206 -0.206
 0.266  1.038 -0.074 -0.204 -0.214 -0.205 -0.205
 0.268  1.041 -0.070 -0.202 -0.213 -0.204 -0.204
 0.270  1.045 -0.067 -0.200 -0.211 -0.202 -0.202
 0.272  1.048 -0.063 -0.198 -0.210 -0.201 -0.201
 0.274  1.051 -0.059 -0.195 -0.208 -0.199 -0.199
 0.276  1.054 -0.056 -0.193 -0.206 -0.198 -0.198
 0.278  1.057 -0.053 -0.191 -0.205 -0.197 -0.197
 0.280  1.060 -0.049 -0.189 -0.203 -0.196 -0.196
 0.282  1.063 -0.046 -0.186 -0.202 -0.194 -0.194
 0.284  1.066 -0.042 -0.184 -0.200 -0.193 -0.193
 0.286  1.068 -0.039 -0.182 -0.198 -0.192 -0.192
 0.288  1.071 -0.035 -0.179 -0.197 -0.190 -0.190
 0.290  1.074 -0.032 -0.177 -0.195 -0.189 -0.189
 0.292  1.077 -0.029 -0.175 -0.193 -0.187 -0.187
 0.294  1.080 -0.026 -0.173 -0.191 -0.186 -0.186
 0.296  1.083 -0.023 -0.171 -0.190 -0.185 -0.185
 0.298  1.086 -0.020 -0.168 -0.188 -0.184 -0.184
 0.300  1.089 -0.017 -0.166 -0.186 -0.183 -0.183
 0.302  1.091 -0.014 -0.164 -0.184 -0.181 -0.181
 0.304  1.094 -0.011 -0.161 -0.183 -0.180 -0.180
 0.306  1.096 -0.007 -0.159 -0.181 -0.178 -0.178
 0.308  1.099 -0.004 -0.157 -0.179 -0.177 -0.177
 0.310  1.102 -0.001 -0.155 -0.177 -0.176 -0.176
 0.312  1.104  0.001 -0.152 -0.175 -0.175 -0.175
 0.314  1.107  0.005 -0.150 -0.174 -0.173 -0.173
 0.316  1.110  0.008 -0.148 -0.171 -0.172 -0.172
 0.318  1.113  0.011 -0.146 -0.169 -0.171 -0.171
 0.320  1.115  0.014 -0.144 -0.168 -0.170 -0.170
 0.322  1.118  0.018 -0.141 -0.166 -0.169 -0.169
 0.324  1.121  0.021 -0.139 -0.164 -0.167 -0.167
 0.326  1.124  0.024 -0.137 -0.162 -0.166 -0.166
 0.328  1.125  0.027 -0.134 -0.161 -0.165 -0.165
 0.330  1.128  0.031 -0.133 -0.159 -0.163 -0.163
 0.332  1.131  0.034 -0.131 -0.158 -0.162 -0.162
 0.334  1.133  0.036 -0.128 -0.156 -0.161 -0.161
 0.336  1.136  0.039 -0.126 -0.154 -0.159 -0.159
 0.338  1.139  0.042 -0.124 -0.152 -0.158 -0.158
 0.340  1.141  0.046 -0.122 -0.150 -0.157 -0.157
 0.342  1.144  0.049 -0.120 -0.149 -0.156 -0.156
 0.344  1.147  0.052 -0.117 -0.147 -0.155 -0.155
 0.346  1.149  0.055 -0.115 -0.146 -0.154 -0.154
 0.348  1.152  0.059 -0.113 -0.144 -0.152 -0.152
 0.350  1.155  0.062 -0.111 -0.143 -0.151 -0.151
 0.352  1.156  0.065 -0.109 -0.141 -0.150 -0.150
 0.354  1.159  0.068 -0.107 -0.139 -0.149 -0.149
 0.356  1.161  0.072 -0.104 -0.138 -0.148 -0.148
 0.358  1.164  0.075 -0.103 -0.136 -0.147 -0.147
 0.360  1.167  0.078 -0.100 -0.134 -0.145 -0.145
 0.362  1.169  0.081 -0.098 -0.133 -0.144 -0.144
 0.364  1.172  0.085 -0.096 -0.131 -0.143 -0.143
 0.366  1.174  0.088 -0.094 -0.130 -0.142 -0.142
 0.368  1.177  0.090 -0.092 -0.128 -0.140 -0.140
 0.370  1.179  0.093 -0.090 -0.127 -0.139 -0.139
 0.372  1.182  0.096 -0.088 -0.125 -0.138 -0.138
 0.374  1.184  0.100 -0.086 -0.124 -0.136 -0.136
 0.376  1.186  0.103 -0.084 -0.123 -0.135 -0.135
 0.378  1.188  0.106 -0.082 -0.121 -0.134 -0.134
 0.380  1.191  0.109 -0.080 -0.120 -0.133 -0.133
 0.382  1.193  0.112 -0.077 -0.119 -0.131 -0.131
 0.384  1.196  0.115 -0.076 -0.117 -0.130 -0.130
 0.386  1.198  0.118 -0.073 -0.116 -0.129 -0.129
 0.388  1.201  0.121 -0.071 -0.114 -0.128 -0.128
 0.390  1.203  0.123 -0.070 -0.113 -0.127 -0.127
 0.392  1.206  0.127 -0.067 -0.112 -0.126 -0.126
 0.394  1.208  0.130 -0.066 -0.110 -0.124 -0.124
 0.396  1.211  0.132 -0.063 -0.109 -0.123 -0.123
 0.398  1.213  0.135 -0.062 -0.107 -0.122 -0.122
 0.400  1.214  0.137 -0.060 -0.106 -0.120 -0.120
 0.402  1.217  0.141 -0.058 -0.105 -0.119 -0.119
 0.404  1.219  0.143 -0.056 -0.103 -0.118 -0.118
 0.406  1.222  0.146 -0.053 -0.102 -0.116 -0.116
 0.408  1.224  0.148 -0.052 -0.100 -0.115 -0.115
 0.410  1.226  0.151 -0.050 -0.099 -0.114 -0.114
 0.412  1.229  0.154 -0.048 -0.097 -0.113 -0.113
 0.414  1.231  0.157 -0.046 -0.096 -0.111 -0.111
 0.416  1.233  0.159 -0.044 -0.094 -0.110 -0.110
 0.418  1.236  0.161 -0.043 -0.093 -0.109 -0.109
 0.420  1.238  0.163 -0.040 -0.091 -0.107 -0.107
 0.422  1.240  0.167 -0.039 -0.090 -0.106 -0.106
 0.424  1.243  0.169 -0.036 -0.088 -0.105 -0.105
 0.426  1.244  0.171 -0.035 -0.086 -0.104 -0.104
 0.428  1.246  0.173 -0.033 -0.085 -0.102 -0.102
 0.430  1.249  0.176 -0.031 -0.083 -0.101 -0.101
 0.432  1.251  0.178 -0.029 -0.082 -0.099 -0.099
 0.434  1.253  0.181 -0.027 -0.080 -0.098 -0.098
 0.436  1.255  0.183 -0.026 -0.078 -0.097 -0.097
 0.438  1.258  0.185 -0.024 -0.077 -0.095 -0.095
 0.440  1.260  0.187 -0.022 -0.075 -0.094 -0.094
 0.442  1.262  0.189 -0.020 -0.074 -0.093 -0.093
 0.444  1.264  0.191 -0.019 -0.072 -0.092 -0.092
 0.446  1.266  0.194 -0.017 -0.071 -0.091 -0.091
 0.448  1.268  0.196 -0.016 -0.069 -0.089 -0.089
 0.450  1.270  0.198 -0.013 -0.068 -0.088 -0.088
 0.452  1.273  0.200 -0.012 -0.066 -0.087 -0.087
 0.454  1.274  0.201 -0.010 -0.064 -0.085 -0.085
 0.456  1.275  0.203 -0.009 -0.063 -0.084 -0.084
 0.458  1.277  0.205 -0.007 -0.061 -0.083 -0.083
 0.460  1.279  0.208 -0.006 -0.059 -0.081 -0.081
 0.462  1.281  0.209 -0.004 -0.058 -0.080 -0.080
 0.464  1.283  0.211 -0.002 -0.056 -0.079 -0.079
 0.466  1.285  0.213 -0.002 -0.055 -0.078 -0.078
 0.468  1.287  0.214 -0.000 -0.053 -0.077 -0.077
 0.470  1.288  0.216  0.001 -0.052 -0.076 -0.076
 0.472  1.290  0.217  0.003 -0.050 -0.074 -0.074
 0.474  1.292  0.219  0.004 -0.049 -0.073 -0.073
 0.476  1.293  0.221  0.005 -0.048 -0.072 -0.072
 0.478  1.295  0.223  0.007 -0.046 -0.071 -0.071
 0.480  1.297  0.224  0.008 -0.045 -0.070 -0.070
 0.482  1.298  0.226  0.009 -0.044 -0.069 -0.069
 0.484  1.300  0.227  0.011 -0.043 -0.067 -0.067
 0.486  1.301  0.228  0.012 -0.041 -0.066 -0.066
 0.488  1.302  0.229  0.013 -0.040 -0.065 -0.065
 0.490  1.303  0.231  0.015 -0.039 -0.064 -0.064
 0.492  1.304  0.232  0.015 -0.037 -0.063 -0.063
 0.494  1.306  0.234  0.016 -0.036 -0.062 -0.062
 0.496  1.307  0.235  0.018 -0.035 -0.060 -0.060
 0.498  1.308  0.236  0.018 -0.034 -0.059 -0.059
 0.500  1.310  0.237  0.020 -0.033 -0.058 -0.058
 0.502  1.311  0.238  0.021 -0.031 -0.057 -0.057
 0.504  1.312  0.239  0.021 -0.031 -0.056 -0.056
 0.506  1.313  0.240  0.022 -0.030 -0.055 -0.055
 0.508  1.314  0.241  0.024 -0.028 -0.054 -0.054
 0.510  1.315  0.242  0.025 -0.027 -0.053 -0.053
 0.512  1.316  0.243  0.025 -0.026 -0.052 -0.052
 0.514  1.317  0.244  0.027 -0.025 -0.051 -0.051
 0.516  1.318  0.245  0.028 -0.024 -0.050 -0.050
 0.518  1.319  0.246  0.028 -0.024 -0.049 -0.049
 0.520  1.320  0.246  0.029 -0.022 -0.048 -0.048
 0.522  1.321  0.248  0.031 -0.021 -0.047 -0.047
 0.524  1.322  0.249  0.032 -0.021 -0.046 -0.046
 0.526  1.323  0.250  0.032 -0.019 -0.045 -0.045
 0.528  1.324  0.251  0.034 -0.019 -0.044 -0.044
 0.530  1.325  0.252  0.035 -0.018 -0.043 -0.043
 0.532  1.326  0.252  0.035 -0.017 -0.042 -0.042
 0.534  1.327  0.253  0.037 -0.016 -0.041 -0.041
 0.536  1.328  0.254  0.038 -0.015 -0.041 -0.041
 0.538  1.329  0.255  0.038 -0.015 -0.039 -0.039
 0.540  1.330  0.255  0.040 -0.014 -0.039 -0.039
 0.542  1.330  0.256  0.041 -0.013 -0.038 -0.038
 0.544  1.331  0.257  0.042 -0.012 -0.037 -0.037
 0.546  1.332  0.258  0.043 -0.012 -0.036 -0.036
 0.548  1.332  0.258  0.044 -0.011 -0.036 -0.036
 0.550  1.332  0.259  0.045 -0.010 -0.035 -0.035
 0.552  1.333  0.261  0.046 -0.009 -0.034 -0.034
 0.554  1.334  0.261  0.047 -0.009 -0.033 -0.033
 0.556  1.335  0.262  0.048 -0.008 -0.032 -0.032
 0.558  1.335  0.263  0.049 -0.007 -0.032 -0.032
 0.560  1.336  0.263  0.050 -0.006 -0.031 -0.031
 0.562  1.337  0.264  0.051 -0.006 -0.030 -0.030
 0.564  1.337  0.265  0.052 -0.005 -0.030 -0.030
 0.566  1.338  0.265  0.053 -0.005 -0.029 -0.029
 0.568  1.338  0.266  0.054 -0.004 -0.028 -0.028
 0.570  1.339  0.267  0.055 -0.003 -0.028 -0.028
 0.572  1.340  0.267  0.056 -0.003 -0.027 -0.027
 0.574  1.340  0.268  0.058 -0.002 -0.027 -0.027
 0.576  1.341  0.269  0.059 -0.002 -0.026 -0.026
 0.578  1.341  0.269  0.059 -0.001 -0.025 -0.025
 0.580  1.342  0.270  0.061 -0.000 -0.024 -0.024
 0.582  1.342  0.270  0.062  0.000 -0.024 -0.024
 0.584  1.343  0.271  0.062  0.001 -0.023 -0.023
 0.586  1.343  0.271  0.063  0.001 -0.023 -0.023
 0.588  1.344  0.272  0.064  0.002 -0.022 -0.022
 0.590  1.344  0.272  0.065  0.003 -0.022 -0.022
 0.592  1.344  0.273  0.066  0.003 -0.021 -0.021
 0.594  1.345  0.273  0.067  0.003 -0.021 -0.021
 0.596  1.345  0.275  0.068  0.004 -0.020 -0.020
 0.598  1.345  0.275  0.069  0.004 -0.020 -0.020
 0.600  1.345  0.275  0.069  0.005 -0.019 -0.019
 0.602  1.346  0.276  0.069  0.006 -0.019 -0.019
 0.604  1.346  0.276  0.070  0.006 -0.019 -0.019
 0.606  1.346  0.276  0.071  0.006 -0.018 -0.018
 0.608  1.346  0.276  0.072  0.007 -0.017 -0.017
 0.610  1.346  0.277  0.072  0.007 -0.017 -0.017
 0.612  1.346  0.277  0.072  0.008 -0.016 -0.016
 0.614  1.346  0.277  0.073  0.009 -0.016 -0.016
 0.616  1.346  0.277  0.073  0.009 -0.016 -0.016
 0.618  1.346  0.278  0.074  0.009 -0.015 -0.015
 0.620  1.346  0.278  0.074  0.010 -0.015 -0.015
 0.622  1.346  0.278  0.075  0.010 -0.015 -0.015
 0.624  1.346  0.278  0.075  0.011 -0.014 -0.014
 0.626  1.346  0.278  0.075  0.011 -0.014 -0.014
 0.628  1.346  0.278  0.076  0.012 -0.014 -0.014
 0.630  1.345  0.278  0.076  0.013 -0.013 -0.013
 0.632  1.345  0.278  0.076  0.013 -0.013 -0.013
 0.634  1.345  0.278  0.076  0.013 -0.013 -0.013
 0.636  1.345  0.278  0.076  0.014 -0.012 -0.012
 0.638  1.344  0.278  0.076  0.014 -0.012 -0.012
 0.640  1.344  0.278  0.076  0.015 -0.012 -0.012
 0.642  1.343  0.277  0.076  0.016 -0.012 -0.012
 0.644  1.343  0.277  0.076  0.016 -0.011 -0.011
 0.646  1.343  0.277  0.076  0.017 -0.011 -0.011
 0.648  1.342  0.277  0.076  0.017 -0.010 -0.010
 0.650  1.342  0.277  0.076  0.018 -0.010 -0.010
 0.652  1.341  0.277  0.076  0.019 -0.010 -0.010
 0.654  1.341  0.276  0.076  0.019 -0.009 -0.009
 0.656  1.340  0.276  0.076  0.019 -0.009 -0.009
 0.658  1.340  0.276  0.076  0.020 -0.009 -0.009
 0.660  1.339  0.276  0.076  0.020 -0.009 -0.009
 0.662  1.339  0.275  0.076  0.021 -0.008 -0.008
 0.664  1.338  0.275  0.076  0.022 -0.008 -0.008
 0.666  1.338  0.275  0.077  0.022 -0.008 -0.008
 0.668  1.337  0.275  0.077  0.023 -0.007 -0.007
 0.670  1.337  0.273  0.078  0.023 -0.007 -0.007
 0.672  1.336  0.273  0.078  0.024 -0.007 -0.007
 0.674  1.336  0.273  0.079  0.025 -0.006 -0.006
 0.676  1.335  0.273  0.079  0.026 -0.006 -0.006
 0.678  1.335  0.272  0.079  0.027 -0.006 -0.006
 0.680  1.334  0.272  0.080  0.028 -0.005 -0.005
 0.682  1.334  0.272  0.081  0.029 -0.005 -0.005
 0.684  1.333  0.272  0.082  0.029 -0.005 -0.005
 0.686  1.333  0.272  0.082  0.031 -0.004 -0.004
 0.688  1.332  0.271  0.083  0.032 -0.004 -0.004
 0.690  1.332  0.271  0.084  0.033 -0.003 -0.003
 0.692  1.332  0.271  0.085  0.034 -0.003 -0.003
 0.694  1.332  0.271  0.086  0.035 -0.002 -0.002
 0.696  1.332  0.271  0.087  0.037 -0.002 -0.002
 0.698  1.332  0.271  0.088  0.038 -0.002 -0.002
 0.700  1.331  0.271  0.089  0.039 -0.001 -0.001
 0.702  1.331  0.271  0.090  0.041 -0.001 -0.001
 0.704  1.331  0.270  0.091  0.043 -0.001 -0.001
 0.706  1.330  0.270  0.093  0.045 -0.000 -0.000
 0.708  1.330  0.270  0.093  0.046  0.000  0.000
 0.710  1.330  0.270  0.095  0.048  0.001  0.001
 0.712  1.329  0.270  0.096  0.050  0.001  0.001
 0.714  1.329  0.269  0.097  0.052  0.001  0.001
 0.716  1.328  0.269  0.099  0.054  0.002  0.002
 0.718  1.328  0.269  0.100  0.056  0.002  0.002
 0.720  1.328  0.269  0.102  0.058  0.003  0.003
 0.722  1.327  0.269  0.103  0.060  0.004  0.004
 0.724  1.327  0.269  0.105  0.062  0.004  0.004
 0.726  1.327  0.269  0.106  0.064  0.005  0.005
 0.728  1.327  0.269  0.108  0.067  0.005  0.005
 0.730  1.327  0.269  0.110  0.069  0.006  0.006
 0.732  1.328  0.270  0.112  0.072  0.006  0.006
 0.734  1.328  0.270  0.113  0.074  0.007  0.007
 0.736  1.329  0.271  0.116  0.076  0.007  0.007
 0.738  1.330  0.272  0.117  0.079  0.008  0.008
 0.740  1.331  0.273  0.120  0.081  0.009  0.009
 0.742  1.332  0.275  0.122  0.084  0.009  0.009
 0.744  1.332  0.277  0.123  0.086  0.010  0.010
 0.746  1.334  0.278  0.126  0.089  0.011  0.011
 0.748  1.335  0.280  0.128  0.091  0.012  0.012
 0.750  1.337  0.282  0.130  0.094  0.012  0.012
 0.752  1.339  0.283  0.133  0.095  0.013  0.013
 0.754  1.342  0.285  0.135  0.098  0.014  0.014
 0.756  1.344  0.289  0.137  0.100  0.014  0.014
 0.758  1.346  0.291  0.140  0.102  0.015  0.015
 0.760  1.349  0.293  0.142  0.104  0.016  0.016
 0.762  1.352  0.296  0.144  0.106  0.017  0.017
 0.764  1.355  0.299  0.147  0.108  0.018  0.018
 0.766  1.358  0.303  0.149  0.110  0.019  0.019
 0.768  1.361  0.306  0.152  0.111  0.020  0.020
 0.770  1.365  0.309  0.154  0.113  0.020  0.020
 0.772  1.369  0.313  0.157  0.115  0.021  0.021
 0.774  1.373  0.317  0.160  0.117  0.022  0.022
 0.776  1.377  0.321  0.164  0.118  0.023  0.023
 0.778  1.382  0.325  0.167  0.119  0.024  0.024
 0.780  1.386  0.330  0.170  0.121  0.025  0.025
 0.782  1.391  0.335  0.173  0.122  0.026  0.026
 0.784  1.395  0.339  0.176  0.123  0.027  0.027
 0.786  1.400  0.344  0.179  0.125  0.028  0.028
 0.788  1.405  0.349  0.182  0.126  0.029  0.029
 0.790  1.411  0.354  0.184  0.127  0.030  0.030
 0.792  1.416  0.359  0.187  0.128  0.031  0.031
 0.794  1.421  0.364  0.190  0.129  0.033  0.033
 0.796  1.426  0.369  0.192  0.131  0.034  0.034
 0.798  1.431  0.374  0.194  0.132  0.035  0.035
 0.800  1.437  0.378  0.197  0.133  0.036  0.036
 0.802  1.442  0.383  0.198  0.133  0.038  0.038
 0.804  1.446  0.387  0.200  0.135  0.039  0.039
 0.806  1.450  0.390  0.201  0.135  0.041  0.041
 0.808  1.454  0.393  0.202  0.136  0.042  0.042
