# IsPeriodic    : True
# Period        : 0.630272 days
# Normalization : <g_mag>=0
# 
# Phase u_mag  g_mag  r_mag  i_mag  z_mag  y_mag
 0.000  0.406 -0.828 -0.655 -0.565 -0.520 -0.520
 0.002  0.406 -0.828 -0.655 -0.565 -0.520 -0.520
 0.004  0.407 -0.828 -0.654 -0.564 -0.520 -0.520
 0.006  0.409 -0.826 -0.654 -0.563 -0.519 -0.519
 0.008  0.410 -0.825 -0.653 -0.563 -0.518 -0.518
 0.010  0.412 -0.822 -0.653 -0.561 -0.517 -0.517
 0.012  0.415 -0.821 -0.652 -0.560 -0.516 -0.516
 0.014  0.418 -0.819 -0.651 -0.558 -0.515 -0.515
 0.016  0.421 -0.816 -0.650 -0.556 -0.513 -0.513
 0.018  0.424 -0.813 -0.649 -0.554 -0.512 -0.512
 0.020  0.428 -0.809 -0.647 -0.553 -0.510 -0.510
 0.022  0.431 -0.807 -0.646 -0.550 -0.509 -0.509
 0.024  0.436 -0.803 -0.644 -0.548 -0.507 -0.507
 0.026  0.440 -0.799 -0.642 -0.546 -0.505 -0.505
 0.028  0.444 -0.795 -0.641 -0.544 -0.504 -0.504
 0.030  0.449 -0.791 -0.639 -0.542 -0.502 -0.502
 0.032  0.454 -0.787 -0.637 -0.540 -0.500 -0.500
 0.034  0.459 -0.783 -0.636 -0.538 -0.498 -0.498
 0.036  0.464 -0.779 -0.633 -0.537 -0.496 -0.496
 0.038  0.470 -0.774 -0.631 -0.534 -0.494 -0.494
 0.040  0.475 -0.770 -0.629 -0.533 -0.492 -0.492
 0.042  0.482 -0.765 -0.626 -0.530 -0.489 -0.489
 0.044  0.488 -0.759 -0.624 -0.528 -0.487 -0.487
 0.046  0.494 -0.754 -0.621 -0.527 -0.485 -0.485
 0.048  0.500 -0.749 -0.619 -0.524 -0.482 -0.482
 0.050  0.508 -0.742 -0.616 -0.522 -0.480 -0.480
 0.052  0.516 -0.737 -0.613 -0.520 -0.477 -0.477
 0.054  0.523 -0.730 -0.609 -0.517 -0.475 -0.475
 0.056  0.531 -0.724 -0.606 -0.515 -0.472 -0.472
 0.058  0.538 -0.717 -0.603 -0.513 -0.469 -0.469
 0.060  0.547 -0.709 -0.600 -0.511 -0.466 -0.466
 0.062  0.555 -0.703 -0.596 -0.507 -0.463 -0.463
 0.064  0.563 -0.696 -0.592 -0.505 -0.460 -0.460
 0.066  0.572 -0.688 -0.589 -0.503 -0.457 -0.457
 0.068  0.582 -0.680 -0.585 -0.500 -0.453 -0.453
 0.070  0.591 -0.672 -0.581 -0.498 -0.450 -0.450
 0.072  0.601 -0.665 -0.577 -0.495 -0.447 -0.447
 0.074  0.610 -0.657 -0.574 -0.492 -0.444 -0.444
 0.076  0.620 -0.649 -0.570 -0.490 -0.440 -0.440
 0.078  0.629 -0.641 -0.565 -0.488 -0.437 -0.437
 0.080  0.639 -0.633 -0.561 -0.485 -0.434 -0.434
 0.082  0.649 -0.625 -0.558 -0.482 -0.430 -0.430
 0.084  0.658 -0.617 -0.553 -0.479 -0.427 -0.427
 0.086  0.666 -0.609 -0.549 -0.477 -0.424 -0.424
 0.088  0.675 -0.601 -0.545 -0.474 -0.421 -0.421
 0.090  0.684 -0.593 -0.542 -0.472 -0.418 -0.418
 0.092  0.693 -0.586 -0.537 -0.469 -0.415 -0.415
 0.094  0.702 -0.578 -0.533 -0.466 -0.412 -0.412
 0.096  0.709 -0.571 -0.529 -0.464 -0.409 -0.409
 0.098  0.718 -0.563 -0.525 -0.462 -0.406 -0.406
 0.100  0.725 -0.557 -0.521 -0.458 -0.403 -0.403
 0.102  0.733 -0.549 -0.517 -0.456 -0.401 -0.401
 0.104  0.741 -0.542 -0.513 -0.454 -0.398 -0.398
 0.106  0.748 -0.534 -0.509 -0.451 -0.395 -0.395
 0.108  0.756 -0.528 -0.505 -0.449 -0.392 -0.392
 0.110  0.762 -0.521 -0.501 -0.446 -0.390 -0.390
 0.112  0.769 -0.513 -0.497 -0.443 -0.388 -0.388
 0.114  0.776 -0.507 -0.493 -0.441 -0.385 -0.385
 0.116  0.783 -0.500 -0.489 -0.439 -0.383 -0.383
 0.118  0.790 -0.493 -0.485 -0.436 -0.380 -0.380
 0.120  0.796 -0.487 -0.481 -0.434 -0.378 -0.378
 0.122  0.802 -0.480 -0.477 -0.432 -0.376 -0.376
 0.124  0.808 -0.474 -0.473 -0.429 -0.374 -0.374
 0.126  0.815 -0.467 -0.469 -0.426 -0.371 -0.371
 0.128  0.820 -0.462 -0.464 -0.424 -0.369 -0.369
 0.130  0.826 -0.455 -0.461 -0.422 -0.367 -0.367
 0.132  0.831 -0.449 -0.457 -0.419 -0.365 -0.365
 0.134  0.836 -0.443 -0.453 -0.417 -0.363 -0.363
 0.136  0.841 -0.437 -0.448 -0.415 -0.361 -0.361
 0.138  0.846 -0.432 -0.445 -0.413 -0.359 -0.359
 0.140  0.851 -0.425 -0.441 -0.410 -0.358 -0.358
 0.142  0.856 -0.420 -0.436 -0.408 -0.356 -0.356
 0.144  0.860 -0.414 -0.432 -0.406 -0.354 -0.354
 0.146  0.865 -0.408 -0.429 -0.403 -0.352 -0.352
 0.148  0.870 -0.403 -0.425 -0.401 -0.350 -0.350
 0.150  0.874 -0.397 -0.421 -0.399 -0.349 -0.349
 0.152  0.879 -0.392 -0.417 -0.396 -0.347 -0.347
 0.154  0.883 -0.387 -0.414 -0.394 -0.345 -0.345
 0.156  0.888 -0.380 -0.410 -0.392 -0.343 -0.343
 0.158  0.891 -0.375 -0.406 -0.390 -0.342 -0.342
 0.160  0.896 -0.370 -0.402 -0.387 -0.340 -0.340
 0.162  0.900 -0.364 -0.399 -0.385 -0.338 -0.338
 0.164  0.905 -0.359 -0.395 -0.383 -0.336 -0.336
 0.166  0.909 -0.354 -0.391 -0.380 -0.335 -0.335
 0.168  0.914 -0.349 -0.388 -0.379 -0.333 -0.333
 0.170  0.919 -0.343 -0.385 -0.377 -0.331 -0.331
 0.172  0.923 -0.338 -0.381 -0.374 -0.329 -0.329
 0.174  0.928 -0.332 -0.378 -0.372 -0.327 -0.327
 0.176  0.933 -0.326 -0.374 -0.370 -0.325 -0.325
 0.178  0.937 -0.321 -0.371 -0.367 -0.324 -0.324
 0.180  0.942 -0.316 -0.368 -0.366 -0.322 -0.322
 0.182  0.947 -0.310 -0.365 -0.364 -0.320 -0.320
 0.184  0.950 -0.305 -0.361 -0.361 -0.318 -0.318
 0.186  0.955 -0.300 -0.358 -0.359 -0.316 -0.316
 0.188  0.961 -0.295 -0.355 -0.357 -0.314 -0.314
 0.190  0.966 -0.291 -0.353 -0.355 -0.312 -0.312
 0.192  0.969 -0.285 -0.349 -0.353 -0.310 -0.310
 0.194  0.974 -0.280 -0.346 -0.351 -0.308 -0.308
 0.196  0.979 -0.275 -0.343 -0.349 -0.306 -0.306
 0.198  0.984 -0.270 -0.340 -0.347 -0.305 -0.305
 0.200  0.988 -0.264 -0.338 -0.344 -0.302 -0.302
 0.202  0.993 -0.259 -0.335 -0.343 -0.300 -0.300
 0.204  0.998 -0.254 -0.332 -0.341 -0.298 -0.298
 0.206  1.003 -0.250 -0.329 -0.338 -0.296 -0.296
 0.208  1.008 -0.245 -0.327 -0.337 -0.294 -0.294
 0.210  1.012 -0.239 -0.324 -0.334 -0.292 -0.292
 0.212  1.017 -0.234 -0.322 -0.332 -0.290 -0.290
 0.214  1.022 -0.229 -0.319 -0.331 -0.288 -0.288
 0.216  1.027 -0.225 -0.317 -0.328 -0.286 -0.286
 0.218  1.032 -0.220 -0.314 -0.327 -0.284 -0.284
 0.220  1.037 -0.214 -0.311 -0.325 -0.282 -0.282
 0.222  1.042 -0.209 -0.309 -0.322 -0.280 -0.280
 0.224  1.046 -0.205 -0.306 -0.321 -0.278 -0.278
 0.226  1.051 -0.200 -0.304 -0.318 -0.275 -0.275
 0.228  1.056 -0.195 -0.302 -0.317 -0.273 -0.273
 0.230  1.061 -0.191 -0.299 -0.315 -0.271 -0.271
 0.232  1.065 -0.185 -0.296 -0.313 -0.269 -0.269
 0.234  1.070 -0.181 -0.294 -0.311 -0.267 -0.267
 0.236  1.074 -0.176 -0.291 -0.308 -0.265 -0.265
 0.238  1.079 -0.172 -0.289 -0.307 -0.263 -0.263
 0.240  1.084 -0.167 -0.286 -0.305 -0.262 -0.262
 0.242  1.087 -0.163 -0.284 -0.303 -0.260 -0.260
 0.244  1.092 -0.158 -0.281 -0.301 -0.257 -0.257
 0.246  1.096 -0.154 -0.278 -0.299 -0.255 -0.255
 0.248  1.100 -0.149 -0.275 -0.297 -0.253 -0.253
 0.250  1.105 -0.145 -0.273 -0.295 -0.252 -0.252
 0.252  1.109 -0.139 -0.271 -0.292 -0.250 -0.250
 0.254  1.114 -0.135 -0.268 -0.291 -0.248 -0.248
 0.256  1.118 -0.131 -0.265 -0.289 -0.246 -0.246
 0.258  1.121 -0.126 -0.262 -0.286 -0.244 -0.244
 0.260  1.125 -0.122 -0.259 -0.285 -0.242 -0.242
 0.262  1.130 -0.118 -0.257 -0.282 -0.240 -0.240
 0.264  1.134 -0.114 -0.254 -0.280 -0.239 -0.239
 0.266  1.138 -0.109 -0.252 -0.279 -0.237 -0.237
 0.268  1.141 -0.105 -0.249 -0.276 -0.235 -0.235
 0.270  1.145 -0.101 -0.246 -0.274 -0.233 -0.233
 0.272  1.149 -0.097 -0.243 -0.273 -0.231 -0.231
 0.274  1.153 -0.093 -0.241 -0.270 -0.229 -0.229
 0.276  1.157 -0.088 -0.238 -0.268 -0.228 -0.228
 0.278  1.160 -0.084 -0.235 -0.266 -0.226 -0.226
 0.280  1.164 -0.080 -0.232 -0.264 -0.224 -0.224
 0.282  1.168 -0.076 -0.229 -0.262 -0.222 -0.222
 0.284  1.172 -0.072 -0.227 -0.259 -0.221 -0.221
 0.286  1.175 -0.068 -0.224 -0.258 -0.219 -0.219
 0.288  1.179 -0.064 -0.221 -0.256 -0.217 -0.217
 0.290  1.183 -0.060 -0.218 -0.253 -0.215 -0.215
 0.292  1.185 -0.056 -0.215 -0.251 -0.214 -0.214
 0.294  1.189 -0.052 -0.212 -0.250 -0.212 -0.212
 0.296  1.193 -0.049 -0.211 -0.247 -0.210 -0.210
 0.298  1.197 -0.045 -0.208 -0.245 -0.209 -0.209
 0.300  1.201 -0.041 -0.205 -0.243 -0.207 -0.207
 0.302  1.203 -0.037 -0.202 -0.241 -0.206 -0.206
 0.304  1.207 -0.033 -0.199 -0.239 -0.204 -0.204
 0.306  1.211 -0.029 -0.196 -0.237 -0.202 -0.202
 0.308  1.214 -0.025 -0.194 -0.235 -0.201 -0.201
 0.310  1.218 -0.021 -0.191 -0.233 -0.199 -0.199
 0.312  1.221 -0.017 -0.188 -0.230 -0.197 -0.197
 0.314  1.224 -0.013 -0.185 -0.229 -0.195 -0.195
 0.316  1.228 -0.009 -0.182 -0.227 -0.194 -0.194
 0.318  1.232 -0.005 -0.180 -0.225 -0.192 -0.192
 0.320  1.236  0.000 -0.178 -0.223 -0.190 -0.190
 0.322  1.238  0.004 -0.175 -0.220 -0.189 -0.189
 0.324  1.242  0.008 -0.172 -0.219 -0.188 -0.188
 0.326  1.246  0.012 -0.169 -0.217 -0.186 -0.186
 0.328  1.250  0.016 -0.166 -0.215 -0.184 -0.184
 0.330  1.252  0.020 -0.165 -0.213 -0.183 -0.183
 0.332  1.256  0.024 -0.162 -0.211 -0.181 -0.181
 0.334  1.260  0.028 -0.159 -0.209 -0.179 -0.179
 0.336  1.263  0.033 -0.156 -0.207 -0.178 -0.178
 0.338  1.266  0.037 -0.153 -0.205 -0.177 -0.177
 0.340  1.270  0.041 -0.151 -0.204 -0.174 -0.174
 0.342  1.273  0.045 -0.149 -0.201 -0.173 -0.173
 0.344  1.277  0.049 -0.146 -0.200 -0.172 -0.172
 0.346  1.281  0.053 -0.143 -0.197 -0.170 -0.170
 0.348  1.284  0.058 -0.140 -0.196 -0.168 -0.168
 0.350  1.287  0.062 -0.138 -0.194 -0.167 -0.167
 0.352  1.291  0.066 -0.135 -0.192 -0.165 -0.165
 0.354  1.295  0.070 -0.133 -0.191 -0.164 -0.164
 0.356  1.297  0.074 -0.130 -0.188 -0.162 -0.162
 0.358  1.301  0.079 -0.128 -0.187 -0.161 -0.161
 0.360  1.305  0.083 -0.125 -0.184 -0.159 -0.159
 0.362  1.307  0.087 -0.122 -0.183 -0.158 -0.158
 0.364  1.311  0.091 -0.120 -0.181 -0.156 -0.156
 0.366  1.315  0.095 -0.117 -0.179 -0.154 -0.154
 0.368  1.319  0.099 -0.115 -0.178 -0.153 -0.153
 0.370  1.321  0.103 -0.113 -0.176 -0.152 -0.152
 0.372  1.325  0.107 -0.110 -0.174 -0.150 -0.150
 0.374  1.329  0.111 -0.107 -0.172 -0.148 -0.148
 0.376  1.331  0.115 -0.105 -0.170 -0.147 -0.147
 0.378  1.335  0.119 -0.102 -0.168 -0.145 -0.145
 0.380  1.339  0.123 -0.101 -0.167 -0.143 -0.143
 0.382  1.341  0.127 -0.098 -0.165 -0.142 -0.142
 0.384  1.345  0.130 -0.096 -0.163 -0.141 -0.141
 0.386  1.348  0.133 -0.093 -0.162 -0.138 -0.138
 0.388  1.351  0.137 -0.091 -0.159 -0.137 -0.137
 0.390  1.355  0.141 -0.088 -0.158 -0.135 -0.135
 0.392  1.358  0.144 -0.086 -0.155 -0.134 -0.134
 0.394  1.361  0.148 -0.084 -0.154 -0.132 -0.132
 0.396  1.364  0.152 -0.082 -0.152 -0.130 -0.130
 0.398  1.368  0.154 -0.079 -0.150 -0.129 -0.129
 0.400  1.370  0.158 -0.077 -0.149 -0.127 -0.127
 0.402  1.374  0.161 -0.075 -0.146 -0.125 -0.125
 0.404  1.377  0.165 -0.072 -0.145 -0.123 -0.123
 0.406  1.380  0.167 -0.070 -0.142 -0.122 -0.122
 0.408  1.383  0.170 -0.068 -0.141 -0.120 -0.120
 0.410  1.387  0.174 -0.066 -0.139 -0.118 -0.118
 0.412  1.389  0.177 -0.064 -0.137 -0.116 -0.116
 0.414  1.393  0.179 -0.062 -0.135 -0.115 -0.115
 0.416  1.395  0.182 -0.059 -0.133 -0.113 -0.113
 0.418  1.399  0.184 -0.057 -0.132 -0.111 -0.111
 0.420  1.402  0.187 -0.055 -0.129 -0.109 -0.109
 0.422  1.405  0.191 -0.053 -0.128 -0.107 -0.107
 0.424  1.408  0.194 -0.051 -0.126 -0.106 -0.106
 0.426  1.410  0.196 -0.049 -0.124 -0.104 -0.104
 0.428  1.414  0.199 -0.047 -0.122 -0.102 -0.102
 0.430  1.417  0.200 -0.045 -0.120 -0.100 -0.100
 0.432  1.419  0.203 -0.042 -0.119 -0.098 -0.098
 0.434  1.423  0.206 -0.040 -0.116 -0.096 -0.096
 0.436  1.426  0.208 -0.039 -0.115 -0.095 -0.095
 0.438  1.428  0.211 -0.037 -0.113 -0.093 -0.093
 0.440  1.432  0.213 -0.035 -0.111 -0.091 -0.091
 0.442  1.434  0.215 -0.033 -0.109 -0.089 -0.089
 0.444  1.437  0.217 -0.031 -0.107 -0.087 -0.087
 0.446  1.439  0.220 -0.028 -0.106 -0.086 -0.086
 0.448  1.442  0.223 -0.026 -0.103 -0.084 -0.084
 0.450  1.446  0.224 -0.024 -0.102 -0.082 -0.082
 0.452  1.448  0.227 -0.023 -0.100 -0.081 -0.081
 0.454  1.451  0.229 -0.021 -0.099 -0.079 -0.079
 0.456  1.453  0.231 -0.019 -0.096 -0.078 -0.078
 0.458  1.456  0.233 -0.017 -0.095 -0.076 -0.076
 0.460  1.458  0.234 -0.015 -0.093 -0.074 -0.074
 0.462  1.461  0.237 -0.013 -0.092 -0.073 -0.073
 0.464  1.463  0.240 -0.011 -0.090 -0.071 -0.071
 0.466  1.466  0.241 -0.008 -0.089 -0.069 -0.069
 0.468  1.468  0.244 -0.007 -0.087 -0.068 -0.068
 0.470  1.471  0.245 -0.005 -0.086 -0.067 -0.067
 0.472  1.473  0.246 -0.003 -0.083 -0.065 -0.065
 0.474  1.476  0.249 -0.001 -0.082 -0.064 -0.064
 0.476  1.477  0.250  0.001 -0.080 -0.062 -0.062
 0.478  1.480  0.253  0.003 -0.079 -0.060 -0.060
 0.480  1.482  0.254  0.005 -0.078 -0.059 -0.059
 0.482  1.485  0.256  0.007 -0.077 -0.058 -0.058
 0.484  1.486  0.258  0.008 -0.075 -0.056 -0.056
 0.486  1.488  0.259  0.010 -0.073 -0.055 -0.055
 0.488  1.491  0.261  0.012 -0.072 -0.053 -0.053
 0.490  1.493  0.263  0.014 -0.070 -0.052 -0.052
 0.492  1.495  0.265  0.016 -0.069 -0.051 -0.051
 0.494  1.497  0.266  0.018 -0.068 -0.050 -0.050
 0.496  1.500  0.267  0.020 -0.067 -0.049 -0.049
 0.498  1.501  0.269  0.022 -0.065 -0.047 -0.047
 0.500  1.503  0.270  0.024 -0.064 -0.046 -0.046
 0.502  1.505  0.273  0.024 -0.063 -0.044 -0.044
 0.504  1.507  0.274  0.026 -0.061 -0.044 -0.044
 0.506  1.509  0.275  0.028 -0.060 -0.042 -0.042
 0.508  1.511  0.277  0.030 -0.059 -0.041 -0.041
 0.510  1.512  0.278  0.032 -0.057 -0.040 -0.040
 0.512  1.514  0.279  0.034 -0.057 -0.039 -0.039
 0.514  1.516  0.281  0.036 -0.055 -0.037 -0.037
 0.516  1.517  0.282  0.037 -0.054 -0.036 -0.036
 0.518  1.519  0.283  0.039 -0.053 -0.035 -0.035
 0.520  1.520  0.285  0.040 -0.051 -0.034 -0.034
 0.522  1.521  0.286  0.042 -0.051 -0.033 -0.033
 0.524  1.522  0.287  0.043 -0.049 -0.032 -0.032
 0.526  1.524  0.288  0.045 -0.047 -0.031 -0.031
 0.528  1.525  0.290  0.047 -0.047 -0.030 -0.030
 0.530  1.526  0.291  0.048 -0.045 -0.028 -0.028
 0.532  1.527  0.292  0.050 -0.044 -0.027 -0.027
 0.534  1.529  0.294  0.052 -0.043 -0.026 -0.026
 0.536  1.530  0.295  0.053 -0.042 -0.025 -0.025
 0.538  1.531  0.296  0.055 -0.041 -0.024 -0.024
 0.540  1.531  0.298  0.056 -0.039 -0.023 -0.023
 0.542  1.532  0.299  0.057 -0.038 -0.022 -0.022
 0.544  1.534  0.300  0.058 -0.037 -0.021 -0.021
 0.546  1.534  0.302  0.060 -0.036 -0.020 -0.020
 0.548  1.535  0.303  0.061 -0.034 -0.019 -0.019
 0.550  1.535  0.304  0.063 -0.033 -0.018 -0.018
 0.552  1.536  0.306  0.064 -0.032 -0.017 -0.017
 0.554  1.536  0.307  0.066 -0.031 -0.016 -0.016
 0.556  1.537  0.308  0.067 -0.030 -0.015 -0.015
 0.558  1.537  0.310  0.068 -0.028 -0.015 -0.015
 0.560  1.537  0.311  0.070 -0.028 -0.013 -0.013
 0.562  1.539  0.312  0.071 -0.026 -0.013 -0.013
 0.564  1.539  0.312  0.071 -0.025 -0.012 -0.012
 0.566  1.539  0.313  0.073 -0.024 -0.010 -0.010
 0.568  1.539  0.315  0.074 -0.022 -0.010 -0.010
 0.570  1.539  0.316  0.075 -0.021 -0.009 -0.009
 0.572  1.539  0.317  0.076 -0.020 -0.008 -0.008
 0.574  1.539  0.319  0.078 -0.019 -0.007 -0.007
 0.576  1.539  0.319  0.079 -0.018 -0.006 -0.006
 0.578  1.539  0.320  0.080 -0.017 -0.006 -0.006
 0.580  1.539  0.321  0.081 -0.015 -0.005 -0.005
 0.582  1.539  0.323  0.082 -0.015 -0.004 -0.004
 0.584  1.539  0.323  0.083 -0.013 -0.003 -0.003
 0.586  1.539  0.324  0.084 -0.012 -0.002 -0.002
 0.588  1.539  0.325  0.085 -0.011 -0.002 -0.002
 0.590  1.539  0.325  0.086 -0.010 -0.000 -0.000
 0.592  1.539  0.327  0.087 -0.009  0.001  0.001
 0.594  1.539  0.328  0.087 -0.008  0.001  0.001
 0.596  1.539  0.328  0.087 -0.007  0.002  0.002
 0.598  1.539  0.329  0.088 -0.006  0.003  0.003
 0.600  1.539  0.329  0.089 -0.005  0.003  0.003
 0.602  1.539  0.331  0.090 -0.005  0.005  0.005
 0.604  1.539  0.331  0.090 -0.004  0.005  0.005
 0.606  1.539  0.331  0.091 -0.003  0.006  0.006
 0.608  1.539  0.332  0.091 -0.002  0.007  0.007
 0.610  1.539  0.332  0.092 -0.002  0.007  0.007
 0.612  1.539  0.332  0.092 -0.001  0.008  0.008
 0.614  1.537  0.333  0.093 -0.000  0.010  0.010
 0.616  1.537  0.333  0.093  0.001  0.010  0.010
 0.618  1.537  0.333  0.094  0.002  0.011  0.011
 0.620  1.537  0.333  0.094  0.002  0.012  0.012
 0.622  1.537  0.335  0.095  0.002  0.012  0.012
 0.624  1.537  0.335  0.095  0.003  0.013  0.013
 0.626  1.537  0.335  0.095  0.003  0.014  0.014
 0.628  1.537  0.335  0.095  0.004  0.015  0.015
 0.630  1.537  0.335  0.096  0.005  0.016  0.016
 0.632  1.537  0.335  0.096  0.005  0.016  0.016
 0.634  1.537  0.335  0.096  0.005  0.017  0.017
 0.636  1.537  0.335  0.096  0.005  0.018  0.018
 0.638  1.537  0.335  0.096  0.005  0.019  0.019
 0.640  1.537  0.335  0.096  0.005  0.019  0.019
 0.642  1.537  0.335  0.096  0.006  0.020  0.020
 0.644  1.537  0.335  0.096  0.006  0.021  0.021
 0.646  1.537  0.335  0.096  0.006  0.021  0.021
 0.648  1.536  0.335  0.096  0.007  0.022  0.022
 0.650  1.536  0.333  0.096  0.007  0.023  0.023
 0.652  1.536  0.333  0.096  0.007  0.024  0.024
 0.654  1.536  0.333  0.097  0.008  0.025  0.025
 0.656  1.536  0.333  0.097  0.008  0.025  0.025
 0.658  1.536  0.333  0.097  0.008  0.025  0.025
 0.660  1.536  0.332  0.097  0.008  0.026  0.026
 0.662  1.536  0.332  0.098  0.008  0.027  0.027
 0.664  1.535  0.332  0.098  0.009  0.028  0.028
 0.666  1.535  0.332  0.099  0.010  0.028  0.028
 0.668  1.535  0.332  0.099  0.010  0.029  0.029
 0.670  1.535  0.331  0.100  0.011  0.030  0.030
 0.672  1.535  0.331  0.101  0.011  0.030  0.030
 0.674  1.534  0.331  0.102  0.012  0.030  0.030
 0.676  1.534  0.331  0.102  0.013  0.031  0.031
 0.678  1.534  0.329  0.103  0.014  0.032  0.032
 0.680  1.534  0.329  0.103  0.015  0.032  0.032
 0.682  1.532  0.329  0.104  0.015  0.032  0.032
 0.684  1.532  0.329  0.105  0.016  0.033  0.033
 0.686  1.532  0.328  0.106  0.018  0.034  0.034
 0.688  1.532  0.328  0.107  0.018  0.034  0.034
 0.690  1.531  0.328  0.109  0.020  0.034  0.034
 0.692  1.531  0.327  0.110  0.021  0.034  0.034
 0.694  1.531  0.327  0.111  0.022  0.035  0.035
 0.696  1.530  0.327  0.112  0.024  0.035  0.035
 0.698  1.530  0.325  0.114  0.024  0.036  0.036
 0.700  1.529  0.325  0.115  0.026  0.037  0.037
 0.702  1.529  0.325  0.117  0.028  0.037  0.037
 0.704  1.529  0.324  0.118  0.029  0.037  0.037
 0.706  1.527  0.324  0.119  0.031  0.037  0.037
 0.708  1.527  0.324  0.121  0.032  0.037  0.037
 0.710  1.526  0.323  0.122  0.034  0.038  0.038
 0.712  1.526  0.323  0.124  0.035  0.038  0.038
 0.714  1.525  0.323  0.126  0.037  0.039  0.039
 0.716  1.525  0.321  0.128  0.038  0.039  0.039
 0.718  1.525  0.321  0.130  0.041  0.039  0.039
 0.720  1.524  0.321  0.132  0.042  0.039  0.039
 0.722  1.524  0.321  0.134  0.044  0.040  0.040
 0.724  1.522  0.321  0.135  0.046  0.040  0.040
 0.726  1.522  0.321  0.138  0.048  0.041  0.041
 0.728  1.522  0.321  0.140  0.051  0.041  0.041
 0.730  1.522  0.323  0.143  0.053  0.042  0.042
 0.732  1.522  0.323  0.145  0.055  0.043  0.043
 0.734  1.522  0.324  0.148  0.057  0.044  0.044
 0.736  1.522  0.325  0.150  0.060  0.045  0.045
 0.738  1.522  0.327  0.153  0.063  0.046  0.046
 0.740  1.522  0.329  0.156  0.065  0.047  0.047
 0.742  1.522  0.331  0.159  0.068  0.048  0.048
 0.744  1.522  0.333  0.162  0.071  0.050  0.050
 0.746  1.522  0.335  0.166  0.074  0.052  0.052
 0.748  1.524  0.337  0.168  0.077  0.053  0.053
 0.750  1.524  0.340  0.171  0.080  0.055  0.055
 0.752  1.524  0.342  0.175  0.083  0.057  0.057
 0.754  1.525  0.345  0.178  0.086  0.058  0.058
 0.756  1.525  0.348  0.182  0.090  0.060  0.060
 0.758  1.526  0.350  0.185  0.093  0.062  0.062
 0.760  1.526  0.354  0.188  0.096  0.064  0.064
 0.762  1.527  0.357  0.192  0.100  0.066  0.066
 0.764  1.529  0.361  0.196  0.103  0.068  0.068
 0.766  1.530  0.365  0.200  0.107  0.070  0.070
 0.768  1.530  0.369  0.204  0.111  0.073  0.073
 0.770  1.531  0.374  0.208  0.116  0.075  0.075
 0.772  1.532  0.378  0.213  0.119  0.078  0.078
 0.774  1.534  0.383  0.217  0.124  0.081  0.081
 0.776  1.535  0.388  0.222  0.129  0.084  0.084
 0.778  1.536  0.394  0.227  0.133  0.086  0.086
 0.780  1.537  0.399  0.231  0.138  0.090  0.090
 0.782  1.539  0.404  0.236  0.142  0.093  0.093
 0.784  1.541  0.410  0.241  0.147  0.096  0.096
 0.786  1.542  0.415  0.244  0.152  0.099  0.099
 0.788  1.544  0.421  0.249  0.156  0.102  0.102
 0.790  1.546  0.427  0.253  0.161  0.105  0.105
 0.792  1.547  0.432  0.258  0.165  0.108  0.108
 0.794  1.549  0.437  0.261  0.169  0.111  0.111
 0.796  1.551  0.441  0.264  0.174  0.114  0.114
 0.798  1.554  0.446  0.268  0.178  0.117  0.117
 0.800  1.555  0.452  0.271  0.181  0.120  0.120
 0.802  1.558  0.456  0.274  0.184  0.123  0.123
 0.804  1.560  0.460  0.276  0.188  0.126  0.126
 0.806  1.563  0.464  0.278  0.191  0.129  0.129
 0.808  1.565  0.467  0.280  0.193  0.131  0.131
