# IsPeriodic    : True
# Period        : 0.712153 days
# Normalization : <g_mag>=0
# 
# Phase u_mag  g_mag  r_mag  i_mag  z_mag  y_mag
 0.000  0.733 -0.477 -0.522 -0.462 -0.424 -0.424
 0.002  0.733 -0.477 -0.522 -0.462 -0.424 -0.424
 0.004  0.733 -0.477 -0.521 -0.462 -0.424 -0.424
 0.006  0.734 -0.476 -0.521 -0.462 -0.424 -0.424
 0.008  0.735 -0.475 -0.520 -0.462 -0.424 -0.424
 0.010  0.736 -0.474 -0.520 -0.462 -0.424 -0.424
 0.012  0.738 -0.474 -0.519 -0.461 -0.423 -0.423
 0.014  0.739 -0.472 -0.519 -0.461 -0.423 -0.423
 0.016  0.741 -0.470 -0.518 -0.461 -0.422 -0.422
 0.018  0.743 -0.469 -0.518 -0.460 -0.422 -0.422
 0.020  0.746 -0.467 -0.516 -0.459 -0.422 -0.422
 0.022  0.748 -0.466 -0.516 -0.459 -0.421 -0.421
 0.024  0.750 -0.464 -0.515 -0.459 -0.420 -0.420
 0.026  0.753 -0.462 -0.513 -0.458 -0.419 -0.419
 0.028  0.755 -0.460 -0.513 -0.457 -0.419 -0.419
 0.030  0.758 -0.458 -0.512 -0.456 -0.418 -0.418
 0.032  0.760 -0.455 -0.510 -0.455 -0.417 -0.417
 0.034  0.763 -0.453 -0.509 -0.454 -0.417 -0.417
 0.036  0.766 -0.451 -0.507 -0.453 -0.416 -0.416
 0.038  0.768 -0.448 -0.506 -0.453 -0.415 -0.415
 0.040  0.771 -0.445 -0.505 -0.451 -0.414 -0.414
 0.042  0.774 -0.443 -0.503 -0.450 -0.414 -0.414
 0.044  0.777 -0.439 -0.502 -0.449 -0.413 -0.413
 0.046  0.780 -0.436 -0.500 -0.448 -0.412 -0.412
 0.048  0.783 -0.434 -0.498 -0.446 -0.411 -0.411
 0.050  0.787 -0.431 -0.497 -0.445 -0.410 -0.410
 0.052  0.790 -0.427 -0.495 -0.443 -0.409 -0.409
 0.054  0.793 -0.423 -0.492 -0.442 -0.407 -0.407
 0.056  0.797 -0.420 -0.491 -0.440 -0.406 -0.406
 0.058  0.801 -0.416 -0.488 -0.439 -0.405 -0.405
 0.060  0.804 -0.413 -0.487 -0.437 -0.404 -0.404
 0.062  0.808 -0.409 -0.484 -0.435 -0.403 -0.403
 0.064  0.812 -0.405 -0.482 -0.434 -0.401 -0.401
 0.066  0.816 -0.401 -0.479 -0.432 -0.400 -0.400
 0.068  0.820 -0.396 -0.477 -0.430 -0.398 -0.398
 0.070  0.824 -0.392 -0.475 -0.428 -0.397 -0.397
 0.072  0.829 -0.388 -0.472 -0.426 -0.396 -0.396
 0.074  0.833 -0.383 -0.470 -0.424 -0.394 -0.394
 0.076  0.837 -0.379 -0.467 -0.422 -0.393 -0.393
 0.078  0.842 -0.374 -0.464 -0.420 -0.392 -0.392
 0.080  0.847 -0.369 -0.462 -0.418 -0.390 -0.390
 0.082  0.851 -0.365 -0.460 -0.416 -0.389 -0.389
 0.084  0.855 -0.360 -0.457 -0.414 -0.387 -0.387
 0.086  0.860 -0.355 -0.454 -0.412 -0.386 -0.386
 0.088  0.865 -0.350 -0.452 -0.411 -0.385 -0.385
 0.090  0.869 -0.345 -0.450 -0.409 -0.383 -0.383
 0.092  0.873 -0.341 -0.447 -0.407 -0.382 -0.382
 0.094  0.878 -0.336 -0.444 -0.405 -0.380 -0.380
 0.096  0.882 -0.332 -0.442 -0.404 -0.379 -0.379
 0.098  0.886 -0.327 -0.439 -0.402 -0.378 -0.378
 0.100  0.890 -0.322 -0.436 -0.401 -0.377 -0.377
 0.102  0.895 -0.318 -0.434 -0.399 -0.375 -0.375
 0.104  0.899 -0.314 -0.432 -0.397 -0.374 -0.374
 0.106  0.903 -0.310 -0.429 -0.396 -0.373 -0.373
 0.108  0.907 -0.305 -0.426 -0.395 -0.372 -0.372
 0.110  0.910 -0.301 -0.424 -0.393 -0.370 -0.370
 0.112  0.914 -0.297 -0.422 -0.391 -0.369 -0.369
 0.114  0.918 -0.293 -0.419 -0.390 -0.368 -0.368
 0.116  0.922 -0.289 -0.416 -0.389 -0.367 -0.367
 0.118  0.926 -0.285 -0.414 -0.388 -0.366 -0.366
 0.120  0.929 -0.281 -0.411 -0.386 -0.364 -0.364
 0.122  0.933 -0.277 -0.408 -0.385 -0.363 -0.363
 0.124  0.936 -0.273 -0.406 -0.384 -0.362 -0.362
 0.126  0.940 -0.270 -0.404 -0.383 -0.361 -0.361
 0.128  0.943 -0.266 -0.401 -0.382 -0.360 -0.360
 0.130  0.946 -0.263 -0.398 -0.380 -0.359 -0.359
 0.132  0.950 -0.259 -0.396 -0.379 -0.358 -0.358
 0.134  0.953 -0.255 -0.394 -0.379 -0.357 -0.357
 0.136  0.956 -0.252 -0.391 -0.378 -0.356 -0.356
 0.138  0.959 -0.248 -0.388 -0.376 -0.355 -0.355
 0.140  0.963 -0.245 -0.386 -0.375 -0.354 -0.354
 0.142  0.965 -0.242 -0.383 -0.374 -0.353 -0.353
 0.144  0.968 -0.239 -0.380 -0.373 -0.352 -0.352
 0.146  0.971 -0.236 -0.378 -0.373 -0.351 -0.351
 0.148  0.974 -0.232 -0.376 -0.372 -0.350 -0.350
 0.150  0.976 -0.229 -0.373 -0.371 -0.349 -0.349
 0.152  0.980 -0.226 -0.371 -0.370 -0.348 -0.348
 0.154  0.982 -0.223 -0.368 -0.369 -0.347 -0.347
 0.156  0.985 -0.220 -0.366 -0.368 -0.346 -0.346
 0.158  0.987 -0.217 -0.364 -0.367 -0.345 -0.345
 0.160  0.990 -0.214 -0.361 -0.366 -0.344 -0.344
 0.162  0.993 -0.211 -0.359 -0.365 -0.343 -0.343
 0.164  0.995 -0.209 -0.357 -0.364 -0.342 -0.342
 0.166  0.998 -0.205 -0.354 -0.363 -0.341 -0.341
 0.168  1.001 -0.202 -0.352 -0.362 -0.340 -0.340
 0.170  1.004 -0.199 -0.350 -0.362 -0.339 -0.339
 0.172  1.006 -0.196 -0.348 -0.361 -0.338 -0.338
 0.174  1.009 -0.193 -0.346 -0.359 -0.337 -0.337
 0.176  1.011 -0.189 -0.343 -0.358 -0.336 -0.336
 0.178  1.015 -0.186 -0.342 -0.357 -0.335 -0.335
 0.180  1.017 -0.183 -0.339 -0.356 -0.334 -0.334
 0.182  1.020 -0.180 -0.337 -0.355 -0.333 -0.333
 0.184  1.023 -0.177 -0.335 -0.354 -0.332 -0.332
 0.186  1.025 -0.173 -0.333 -0.353 -0.331 -0.331
 0.188  1.029 -0.170 -0.332 -0.352 -0.330 -0.330
 0.190  1.031 -0.167 -0.330 -0.351 -0.329 -0.329
 0.192  1.034 -0.164 -0.327 -0.350 -0.328 -0.328
 0.194  1.037 -0.160 -0.326 -0.348 -0.327 -0.327
 0.196  1.039 -0.157 -0.324 -0.347 -0.326 -0.326
 0.198  1.043 -0.154 -0.322 -0.346 -0.325 -0.325
 0.200  1.045 -0.150 -0.320 -0.345 -0.324 -0.324
 0.202  1.048 -0.147 -0.318 -0.344 -0.323 -0.323
 0.204  1.051 -0.143 -0.317 -0.342 -0.322 -0.322
 0.206  1.053 -0.140 -0.315 -0.341 -0.321 -0.321
 0.208  1.057 -0.137 -0.314 -0.340 -0.319 -0.319
 0.210  1.060 -0.133 -0.312 -0.339 -0.319 -0.319
 0.212  1.062 -0.130 -0.310 -0.338 -0.317 -0.317
 0.214  1.065 -0.126 -0.308 -0.336 -0.317 -0.317
 0.216  1.068 -0.123 -0.307 -0.335 -0.315 -0.315
 0.218  1.071 -0.119 -0.305 -0.334 -0.314 -0.314
 0.220  1.074 -0.115 -0.303 -0.333 -0.313 -0.313
 0.222  1.077 -0.111 -0.302 -0.331 -0.312 -0.312
 0.224  1.080 -0.108 -0.301 -0.330 -0.311 -0.311
 0.226  1.083 -0.104 -0.299 -0.328 -0.310 -0.310
 0.228  1.085 -0.101 -0.298 -0.328 -0.309 -0.309
 0.230  1.088 -0.097 -0.296 -0.326 -0.308 -0.308
 0.232  1.092 -0.094 -0.294 -0.325 -0.307 -0.307
 0.234  1.094 -0.091 -0.293 -0.323 -0.306 -0.306
 0.236  1.097 -0.087 -0.291 -0.322 -0.305 -0.305
 0.238  1.100 -0.084 -0.289 -0.321 -0.304 -0.304
 0.240  1.102 -0.080 -0.287 -0.320 -0.303 -0.303
 0.242  1.106 -0.077 -0.286 -0.319 -0.302 -0.302
 0.244  1.108 -0.074 -0.284 -0.317 -0.301 -0.301
 0.246  1.111 -0.071 -0.283 -0.316 -0.300 -0.300
 0.248  1.113 -0.068 -0.281 -0.315 -0.298 -0.298
 0.250  1.116 -0.064 -0.279 -0.314 -0.298 -0.298
 0.252  1.119 -0.061 -0.278 -0.312 -0.296 -0.296
 0.254  1.122 -0.058 -0.276 -0.311 -0.296 -0.296
 0.256  1.124 -0.055 -0.274 -0.310 -0.295 -0.295
 0.258  1.127 -0.052 -0.272 -0.309 -0.293 -0.293
 0.260  1.130 -0.049 -0.271 -0.307 -0.293 -0.293
 0.262  1.133 -0.047 -0.269 -0.306 -0.292 -0.292
 0.264  1.135 -0.044 -0.267 -0.305 -0.291 -0.291
 0.266  1.137 -0.041 -0.266 -0.304 -0.290 -0.290
 0.268  1.140 -0.038 -0.264 -0.302 -0.289 -0.289
 0.270  1.143 -0.036 -0.262 -0.301 -0.288 -0.288
 0.272  1.145 -0.033 -0.261 -0.300 -0.287 -0.287
 0.274  1.148 -0.030 -0.259 -0.299 -0.286 -0.286
 0.276  1.151 -0.028 -0.257 -0.297 -0.285 -0.285
 0.278  1.153 -0.025 -0.255 -0.296 -0.284 -0.284
 0.280  1.155 -0.023 -0.253 -0.295 -0.283 -0.283
 0.282  1.158 -0.021 -0.252 -0.294 -0.282 -0.282
 0.284  1.161 -0.018 -0.250 -0.293 -0.281 -0.281
 0.286  1.163 -0.016 -0.248 -0.291 -0.280 -0.280
 0.288  1.165 -0.013 -0.246 -0.290 -0.279 -0.279
 0.290  1.168 -0.011 -0.244 -0.289 -0.278 -0.278
 0.292  1.170 -0.009 -0.243 -0.288 -0.277 -0.277
 0.294  1.172 -0.007 -0.241 -0.286 -0.276 -0.276
 0.296  1.175 -0.005 -0.240 -0.285 -0.275 -0.275
 0.298  1.177 -0.002 -0.238 -0.283 -0.275 -0.275
 0.300  1.179 -0.001 -0.236 -0.282 -0.273 -0.273
 0.302  1.182  0.002 -0.234 -0.281 -0.272 -0.272
 0.304  1.184  0.004 -0.233 -0.280 -0.272 -0.272
 0.306  1.186  0.006 -0.231 -0.278 -0.270 -0.270
 0.308  1.189  0.008 -0.229 -0.277 -0.270 -0.270
 0.310  1.191  0.010 -0.227 -0.276 -0.269 -0.269
 0.312  1.193  0.013 -0.225 -0.274 -0.267 -0.267
 0.314  1.196  0.015 -0.224 -0.273 -0.267 -0.267
 0.316  1.198  0.018 -0.222 -0.271 -0.265 -0.265
 0.318  1.200  0.020 -0.221 -0.270 -0.264 -0.264
 0.320  1.203  0.022 -0.219 -0.269 -0.263 -0.263
 0.322  1.204  0.025 -0.217 -0.267 -0.262 -0.262
 0.324  1.207  0.027 -0.215 -0.266 -0.262 -0.262
 0.326  1.209  0.030 -0.213 -0.265 -0.260 -0.260
 0.328  1.211  0.032 -0.212 -0.263 -0.259 -0.259
 0.330  1.214  0.034 -0.210 -0.262 -0.258 -0.258
 0.332  1.215  0.037 -0.209 -0.260 -0.257 -0.257
 0.334  1.217  0.039 -0.207 -0.259 -0.256 -0.256
 0.336  1.220  0.041 -0.205 -0.257 -0.255 -0.255
 0.338  1.221  0.045 -0.203 -0.256 -0.254 -0.254
 0.340  1.224  0.047 -0.202 -0.254 -0.253 -0.253
 0.342  1.226  0.049 -0.200 -0.253 -0.252 -0.252
 0.344  1.228  0.052 -0.199 -0.251 -0.251 -0.251
 0.346  1.230  0.055 -0.197 -0.250 -0.249 -0.249
 0.348  1.232  0.057 -0.195 -0.248 -0.249 -0.249
 0.350  1.234  0.060 -0.194 -0.247 -0.247 -0.247
 0.352  1.236  0.063 -0.192 -0.245 -0.246 -0.246
 0.354  1.238  0.065 -0.190 -0.243 -0.245 -0.245
 0.356  1.240  0.069 -0.188 -0.242 -0.244 -0.244
 0.358  1.242  0.071 -0.187 -0.240 -0.243 -0.243
 0.360  1.244  0.074 -0.185 -0.239 -0.242 -0.242
 0.362  1.245  0.076 -0.184 -0.237 -0.241 -0.241
 0.364  1.248  0.080 -0.182 -0.236 -0.239 -0.239
 0.366  1.249  0.083 -0.181 -0.234 -0.238 -0.238
 0.368  1.252  0.085 -0.179 -0.232 -0.237 -0.237
 0.370  1.253  0.088 -0.178 -0.231 -0.236 -0.236
 0.372  1.256  0.091 -0.176 -0.229 -0.235 -0.235
 0.374  1.257  0.094 -0.174 -0.228 -0.234 -0.234
 0.376  1.259  0.096 -0.173 -0.226 -0.233 -0.233
 0.378  1.261  0.099 -0.171 -0.225 -0.232 -0.232
 0.380  1.263  0.102 -0.170 -0.224 -0.230 -0.230
 0.382  1.265  0.104 -0.168 -0.222 -0.230 -0.230
 0.384  1.267  0.108 -0.167 -0.220 -0.228 -0.228
 0.386  1.269  0.110 -0.165 -0.219 -0.228 -0.228
 0.388  1.271  0.112 -0.164 -0.218 -0.226 -0.226
 0.390  1.273  0.115 -0.162 -0.216 -0.225 -0.225
 0.392  1.275  0.117 -0.161 -0.215 -0.224 -0.224
 0.394  1.277  0.119 -0.159 -0.214 -0.223 -0.223
 0.396  1.279  0.122 -0.158 -0.212 -0.222 -0.222
 0.398  1.280  0.124 -0.156 -0.211 -0.221 -0.221
 0.400  1.283  0.127 -0.155 -0.209 -0.220 -0.220
 0.402  1.285  0.129 -0.154 -0.208 -0.219 -0.219
 0.404  1.287  0.131 -0.152 -0.207 -0.218 -0.218
 0.406  1.289  0.133 -0.151 -0.206 -0.217 -0.217
 0.408  1.290  0.135 -0.149 -0.204 -0.216 -0.216
 0.410  1.293  0.138 -0.148 -0.203 -0.215 -0.215
 0.412  1.295  0.139 -0.147 -0.202 -0.214 -0.214
 0.414  1.297  0.142 -0.146 -0.201 -0.213 -0.213
 0.416  1.299  0.143 -0.144 -0.200 -0.212 -0.212
 0.418  1.301  0.146 -0.143 -0.198 -0.211 -0.211
 0.420  1.303  0.147 -0.141 -0.197 -0.210 -0.210
 0.422  1.305  0.149 -0.140 -0.196 -0.209 -0.209
 0.424  1.308  0.151 -0.138 -0.195 -0.208 -0.208
 0.426  1.309  0.153 -0.137 -0.194 -0.207 -0.207
 0.428  1.311  0.155 -0.136 -0.192 -0.206 -0.206
 0.430  1.314  0.156 -0.135 -0.191 -0.205 -0.205
 0.432  1.316  0.158 -0.133 -0.190 -0.204 -0.204
 0.434  1.318  0.159 -0.132 -0.189 -0.203 -0.203
 0.436  1.320  0.161 -0.131 -0.188 -0.202 -0.202
 0.438  1.322  0.162 -0.129 -0.187 -0.201 -0.201
 0.440  1.324  0.164 -0.128 -0.186 -0.200 -0.200
 0.442  1.326  0.166 -0.127 -0.185 -0.199 -0.199
 0.444  1.329  0.167 -0.126 -0.184 -0.199 -0.199
 0.446  1.330  0.169 -0.124 -0.183 -0.197 -0.197
 0.448  1.332  0.170 -0.123 -0.182 -0.196 -0.196
 0.450  1.335  0.172 -0.122 -0.180 -0.196 -0.196
 0.452  1.336  0.173 -0.120 -0.180 -0.195 -0.195
 0.454  1.338  0.174 -0.119 -0.179 -0.193 -0.193
 0.456  1.340  0.176 -0.118 -0.178 -0.193 -0.193
 0.458  1.342  0.178 -0.117 -0.177 -0.192 -0.192
 0.460  1.343  0.178 -0.116 -0.175 -0.191 -0.191
 0.462  1.346  0.180 -0.115 -0.174 -0.190 -0.190
 0.464  1.347  0.182 -0.113 -0.174 -0.189 -0.189
 0.466  1.349  0.182 -0.112 -0.173 -0.188 -0.188
 0.468  1.350  0.184 -0.110 -0.172 -0.187 -0.187
 0.470  1.352  0.186 -0.109 -0.171 -0.186 -0.186
 0.472  1.353  0.186 -0.108 -0.170 -0.185 -0.185
 0.474  1.355  0.188 -0.107 -0.169 -0.184 -0.184
 0.476  1.357  0.189 -0.106 -0.168 -0.183 -0.183
 0.478  1.358  0.190 -0.104 -0.167 -0.183 -0.183
 0.480  1.360  0.191 -0.103 -0.166 -0.182 -0.182
 0.482  1.361  0.193 -0.102 -0.165 -0.180 -0.180
 0.484  1.362  0.194 -0.101 -0.164 -0.180 -0.180
 0.486  1.364  0.195 -0.100 -0.163 -0.179 -0.179
 0.488  1.365  0.196 -0.098 -0.162 -0.178 -0.178
 0.490  1.366  0.198 -0.097 -0.162 -0.177 -0.177
 0.492  1.367  0.198 -0.096 -0.161 -0.176 -0.176
 0.494  1.368  0.199 -0.095 -0.160 -0.175 -0.175
 0.496  1.370  0.201 -0.094 -0.159 -0.174 -0.174
 0.498  1.371  0.201 -0.092 -0.158 -0.173 -0.173
 0.500  1.372  0.202 -0.091 -0.157 -0.172 -0.172
 0.502  1.373  0.203 -0.091 -0.157 -0.172 -0.172
 0.504  1.374  0.205 -0.089 -0.156 -0.170 -0.170
 0.506  1.374  0.205 -0.088 -0.155 -0.170 -0.170
 0.508  1.376  0.206 -0.087 -0.154 -0.169 -0.169
 0.510  1.377  0.207 -0.086 -0.154 -0.168 -0.168
 0.512  1.378  0.208 -0.085 -0.153 -0.167 -0.167
 0.514  1.378  0.209 -0.084 -0.152 -0.166 -0.166
 0.516  1.379  0.210 -0.083 -0.151 -0.165 -0.165
 0.518  1.380  0.211 -0.082 -0.151 -0.165 -0.165
 0.520  1.381  0.212 -0.081 -0.150 -0.164 -0.164
 0.522  1.381  0.213 -0.079 -0.149 -0.163 -0.163
 0.524  1.382  0.213 -0.079 -0.148 -0.162 -0.162
 0.526  1.383  0.214 -0.078 -0.147 -0.161 -0.161
 0.528  1.384  0.215 -0.076 -0.146 -0.160 -0.160
 0.530  1.385  0.216 -0.076 -0.146 -0.160 -0.160
 0.532  1.385  0.217 -0.075 -0.145 -0.159 -0.159
 0.534  1.386  0.217 -0.073 -0.144 -0.158 -0.158
 0.536  1.387  0.217 -0.073 -0.144 -0.157 -0.157
 0.538  1.388  0.218 -0.072 -0.143 -0.157 -0.157
 0.540  1.388  0.219 -0.071 -0.142 -0.156 -0.156
 0.542  1.388  0.220 -0.070 -0.141 -0.155 -0.155
 0.544  1.389  0.220 -0.069 -0.140 -0.154 -0.154
 0.546  1.390  0.221 -0.068 -0.140 -0.154 -0.154
 0.548  1.390  0.221 -0.067 -0.139 -0.153 -0.153
 0.550  1.391  0.221 -0.066 -0.138 -0.152 -0.152
 0.552  1.392  0.222 -0.066 -0.138 -0.152 -0.152
 0.554  1.392  0.222 -0.064 -0.137 -0.151 -0.151
 0.556  1.392  0.223 -0.064 -0.136 -0.151 -0.151
 0.558  1.393  0.223 -0.063 -0.135 -0.150 -0.150
 0.560  1.393  0.224 -0.062 -0.134 -0.149 -0.149
 0.562  1.394  0.224 -0.061 -0.134 -0.149 -0.149
 0.564  1.395  0.225 -0.061 -0.133 -0.148 -0.148
 0.566  1.395  0.225 -0.060 -0.132 -0.147 -0.147
 0.568  1.395  0.225 -0.059 -0.132 -0.147 -0.147
 0.570  1.395  0.225 -0.058 -0.131 -0.146 -0.146
 0.572  1.396  0.225 -0.058 -0.130 -0.146 -0.146
 0.574  1.396  0.225 -0.057 -0.129 -0.145 -0.145
 0.576  1.397  0.226 -0.056 -0.128 -0.144 -0.144
 0.578  1.397  0.226 -0.056 -0.128 -0.144 -0.144
 0.580  1.397  0.226 -0.055 -0.127 -0.144 -0.144
 0.582  1.398  0.226 -0.054 -0.126 -0.143 -0.143
 0.584  1.398  0.226 -0.054 -0.126 -0.142 -0.142
 0.586  1.399  0.227 -0.053 -0.125 -0.142 -0.142
 0.588  1.399  0.227 -0.053 -0.124 -0.141 -0.141
 0.590  1.399  0.227 -0.052 -0.123 -0.141 -0.141
 0.592  1.399  0.227 -0.051 -0.122 -0.140 -0.140
 0.594  1.399  0.227 -0.051 -0.122 -0.139 -0.139
 0.596  1.400  0.227 -0.051 -0.121 -0.139 -0.139
 0.598  1.400  0.228 -0.050 -0.120 -0.138 -0.138
 0.600  1.400  0.228 -0.050 -0.119 -0.138 -0.138
 0.602  1.401  0.228 -0.049 -0.118 -0.137 -0.137
 0.604  1.401  0.228 -0.049 -0.117 -0.136 -0.136
 0.606  1.402  0.228 -0.048 -0.116 -0.136 -0.136
 0.608  1.402  0.228 -0.048 -0.115 -0.136 -0.136
 0.610  1.402  0.229 -0.048 -0.114 -0.135 -0.135
 0.612  1.402  0.229 -0.048 -0.113 -0.134 -0.134
 0.614  1.402  0.229 -0.047 -0.112 -0.133 -0.133
 0.616  1.403  0.229 -0.047 -0.111 -0.133 -0.133
 0.618  1.403  0.229 -0.047 -0.110 -0.133 -0.133
 0.620  1.404  0.229 -0.047 -0.109 -0.132 -0.132
 0.622  1.404  0.229 -0.046 -0.108 -0.131 -0.131
 0.624  1.405  0.229 -0.046 -0.106 -0.131 -0.131
 0.626  1.405  0.229 -0.046 -0.105 -0.130 -0.130
 0.628  1.405  0.230 -0.046 -0.105 -0.130 -0.130
 0.630  1.406  0.230 -0.045 -0.103 -0.129 -0.129
 0.632  1.406  0.230 -0.045 -0.102 -0.128 -0.128
 0.634  1.406  0.230 -0.045 -0.101 -0.128 -0.128
 0.636  1.406  0.230 -0.045 -0.100 -0.127 -0.127
 0.638  1.407  0.231 -0.045 -0.099 -0.127 -0.127
 0.640  1.407  0.231 -0.045 -0.098 -0.126 -0.126
 0.642  1.408  0.231 -0.045 -0.096 -0.125 -0.125
 0.644  1.408  0.231 -0.045 -0.095 -0.125 -0.125
 0.646  1.409  0.231 -0.045 -0.094 -0.124 -0.124
 0.648  1.409  0.232 -0.045 -0.093 -0.124 -0.124
 0.650  1.409  0.232 -0.045 -0.091 -0.123 -0.123
 0.652  1.409  0.232 -0.045 -0.090 -0.123 -0.123
 0.654  1.409  0.233 -0.045 -0.088 -0.122 -0.122
 0.656  1.410  0.233 -0.045 -0.087 -0.121 -0.121
 0.658  1.410  0.233 -0.045 -0.086 -0.120 -0.120
 0.660  1.411  0.233 -0.045 -0.085 -0.120 -0.120
 0.662  1.412  0.234 -0.044 -0.083 -0.119 -0.119
 0.664  1.412  0.234 -0.044 -0.082 -0.119 -0.119
 0.666  1.413  0.235 -0.044 -0.080 -0.118 -0.118
 0.668  1.413  0.236 -0.044 -0.079 -0.117 -0.117
 0.670  1.413  0.237 -0.043 -0.077 -0.117 -0.117
 0.672  1.413  0.237 -0.042 -0.076 -0.116 -0.116
 0.674  1.414  0.238 -0.042 -0.075 -0.115 -0.115
 0.676  1.415  0.239 -0.042 -0.073 -0.115 -0.115
 0.678  1.415  0.241 -0.041 -0.071 -0.114 -0.114
 0.680  1.416  0.241 -0.041 -0.070 -0.113 -0.113
 0.682  1.416  0.243 -0.040 -0.068 -0.112 -0.112
 0.684  1.416  0.244 -0.039 -0.067 -0.111 -0.111
 0.686  1.417  0.245 -0.039 -0.065 -0.111 -0.111
 0.688  1.418  0.247 -0.038 -0.064 -0.110 -0.110
 0.690  1.418  0.248 -0.037 -0.062 -0.109 -0.109
 0.692  1.419  0.250 -0.036 -0.060 -0.108 -0.108
 0.694  1.420  0.252 -0.036 -0.059 -0.107 -0.107
 0.696  1.420  0.253 -0.035 -0.057 -0.107 -0.107
 0.698  1.420  0.255 -0.034 -0.055 -0.106 -0.106
 0.700  1.421  0.257 -0.033 -0.053 -0.105 -0.105
 0.702  1.422  0.259 -0.032 -0.051 -0.104 -0.104
 0.704  1.423  0.261 -0.032 -0.049 -0.103 -0.103
 0.706  1.423  0.263 -0.030 -0.048 -0.102 -0.102
 0.708  1.423  0.265 -0.029 -0.046 -0.102 -0.102
 0.710  1.424  0.268 -0.029 -0.044 -0.101 -0.101
 0.712  1.425  0.270 -0.027 -0.043 -0.100 -0.100
 0.714  1.426  0.272 -0.026 -0.041 -0.099 -0.099
 0.716  1.426  0.275 -0.025 -0.039 -0.098 -0.098
 0.718  1.427  0.278 -0.024 -0.037 -0.097 -0.097
 0.720  1.427  0.280 -0.023 -0.035 -0.096 -0.096
 0.722  1.428  0.283 -0.022 -0.033 -0.095 -0.095
 0.724  1.429  0.286 -0.020 -0.032 -0.094 -0.094
 0.726  1.430  0.288 -0.019 -0.030 -0.093 -0.093
 0.728  1.430  0.291 -0.017 -0.028 -0.091 -0.091
 0.730  1.431  0.294 -0.016 -0.027 -0.090 -0.090
 0.732  1.433  0.296 -0.014 -0.026 -0.089 -0.089
 0.734  1.434  0.299 -0.013 -0.024 -0.088 -0.088
 0.736  1.434  0.300 -0.011 -0.022 -0.086 -0.086
 0.738  1.436  0.303 -0.009 -0.021 -0.084 -0.084
 0.740  1.437  0.304 -0.007 -0.020 -0.083 -0.083
 0.742  1.438  0.307 -0.005 -0.018 -0.081 -0.081
 0.744  1.440  0.308 -0.004 -0.017 -0.079 -0.079
 0.746  1.441  0.310 -0.001 -0.016 -0.078 -0.078
 0.748  1.443  0.311  0.001 -0.015 -0.075 -0.075
 0.750  1.444  0.313  0.002 -0.014 -0.074 -0.074
 0.752  1.446  0.314  0.005 -0.013 -0.072 -0.072
 0.754  1.447  0.315  0.006 -0.012 -0.070 -0.070
 0.756  1.449  0.316  0.009 -0.011 -0.068 -0.068
 0.758  1.451  0.317  0.011 -0.010 -0.066 -0.066
 0.760  1.453  0.318  0.013 -0.009 -0.064 -0.064
 0.762  1.454  0.318  0.015 -0.009 -0.061 -0.061
 0.764  1.457  0.319  0.018 -0.008 -0.059 -0.059
 0.766  1.459  0.319  0.021 -0.007 -0.057 -0.057
 0.768  1.461  0.319  0.023 -0.007 -0.054 -0.054
 0.770  1.463  0.319  0.026 -0.006 -0.052 -0.052
 0.772  1.465  0.319  0.029 -0.005 -0.049 -0.049
 0.774  1.468  0.319  0.032 -0.005 -0.046 -0.046
 0.776  1.471  0.319  0.035 -0.004 -0.043 -0.043
 0.778  1.473  0.319  0.037 -0.003 -0.040 -0.040
 0.780  1.476  0.319  0.040 -0.003 -0.037 -0.037
 0.782  1.479  0.318  0.043 -0.003 -0.034 -0.034
 0.784  1.482  0.317  0.046 -0.003 -0.031 -0.031
 0.786  1.485  0.316  0.049 -0.003 -0.028 -0.028
 0.788  1.487  0.315  0.052 -0.003 -0.026 -0.026
 0.790  1.490  0.314  0.054 -0.003 -0.023 -0.023
 0.792  1.493  0.313  0.057 -0.003 -0.020 -0.020
 0.794  1.496  0.311  0.060 -0.004 -0.018 -0.018
 0.796  1.499  0.310  0.061 -0.005 -0.016 -0.016
 0.798  1.501  0.308  0.064 -0.006 -0.014 -0.014
 0.800  1.503  0.306  0.066 -0.008 -0.012 -0.012
 0.802  1.506  0.303  0.067 -0.009 -0.010 -0.010
 0.804  1.507  0.301  0.069 -0.011 -0.009 -0.009
 0.806  1.509  0.298  0.070 -0.013 -0.007 -0.007
 0.808  1.510  0.295  0.071 -0.015 -0.006 -0.006
