# IsPeriodic    : True
# Period        : 0.661751 days
# Normalization : <g_mag>=0
# 
# Phase u_mag  g_mag  r_mag  i_mag  z_mag  y_mag
 0.000  0.887 -0.248 -0.334 -0.368 -0.335 -0.335
 0.002  0.887 -0.248 -0.334 -0.368 -0.335 -0.335
 0.004  0.887 -0.247 -0.334 -0.368 -0.335 -0.335
 0.006  0.888 -0.247 -0.334 -0.367 -0.335 -0.335
 0.008  0.888 -0.247 -0.334 -0.367 -0.334 -0.334
 0.010  0.889 -0.246 -0.334 -0.367 -0.334 -0.334
 0.012  0.890 -0.246 -0.333 -0.366 -0.333 -0.333
 0.014  0.890 -0.246 -0.333 -0.366 -0.333 -0.333
 0.016  0.891 -0.245 -0.333 -0.365 -0.332 -0.332
 0.018  0.892 -0.245 -0.332 -0.364 -0.332 -0.332
 0.020  0.893 -0.244 -0.332 -0.364 -0.331 -0.331
 0.022  0.895 -0.244 -0.331 -0.363 -0.330 -0.330
 0.024  0.896 -0.243 -0.331 -0.362 -0.329 -0.329
 0.026  0.897 -0.242 -0.330 -0.362 -0.329 -0.329
 0.028  0.898 -0.241 -0.330 -0.361 -0.328 -0.328
 0.030  0.899 -0.240 -0.329 -0.360 -0.327 -0.327
 0.032  0.901 -0.239 -0.329 -0.360 -0.326 -0.326
 0.034  0.902 -0.238 -0.328 -0.359 -0.325 -0.325
 0.036  0.903 -0.237 -0.327 -0.358 -0.325 -0.325
 0.038  0.905 -0.236 -0.326 -0.358 -0.324 -0.324
 0.040  0.906 -0.235 -0.325 -0.357 -0.323 -0.323
 0.042  0.908 -0.234 -0.324 -0.356 -0.322 -0.322
 0.044  0.909 -0.233 -0.323 -0.355 -0.321 -0.321
 0.046  0.911 -0.232 -0.322 -0.355 -0.320 -0.320
 0.048  0.913 -0.230 -0.321 -0.354 -0.320 -0.320
 0.050  0.914 -0.229 -0.320 -0.353 -0.319 -0.319
 0.052  0.916 -0.227 -0.319 -0.352 -0.318 -0.318
 0.054  0.918 -0.226 -0.318 -0.352 -0.317 -0.317
 0.056  0.920 -0.224 -0.317 -0.351 -0.316 -0.316
 0.058  0.922 -0.223 -0.315 -0.350 -0.316 -0.316
 0.060  0.924 -0.221 -0.314 -0.350 -0.315 -0.315
 0.062  0.926 -0.220 -0.313 -0.349 -0.314 -0.314
 0.064  0.928 -0.218 -0.311 -0.348 -0.314 -0.314
 0.066  0.931 -0.216 -0.310 -0.347 -0.313 -0.313
 0.068  0.933 -0.214 -0.308 -0.347 -0.312 -0.312
 0.070  0.935 -0.212 -0.307 -0.346 -0.311 -0.311
 0.072  0.938 -0.210 -0.305 -0.345 -0.311 -0.311
 0.074  0.940 -0.209 -0.304 -0.344 -0.310 -0.310
 0.076  0.942 -0.206 -0.302 -0.344 -0.309 -0.309
 0.078  0.945 -0.205 -0.301 -0.343 -0.308 -0.308
 0.080  0.947 -0.203 -0.299 -0.342 -0.307 -0.307
 0.082  0.950 -0.200 -0.297 -0.341 -0.307 -0.307
 0.084  0.952 -0.199 -0.296 -0.341 -0.306 -0.306
 0.086  0.954 -0.197 -0.294 -0.340 -0.305 -0.305
 0.088  0.957 -0.194 -0.293 -0.339 -0.305 -0.305
 0.090  0.959 -0.193 -0.291 -0.338 -0.304 -0.304
 0.092  0.962 -0.191 -0.290 -0.338 -0.303 -0.303
 0.094  0.964 -0.189 -0.288 -0.337 -0.303 -0.303
 0.096  0.967 -0.187 -0.287 -0.336 -0.302 -0.302
 0.098  0.969 -0.185 -0.286 -0.335 -0.301 -0.301
 0.100  0.972 -0.183 -0.285 -0.334 -0.301 -0.301
 0.102  0.974 -0.181 -0.283 -0.334 -0.300 -0.300
 0.104  0.976 -0.179 -0.282 -0.333 -0.299 -0.299
 0.106  0.979 -0.177 -0.281 -0.332 -0.299 -0.299
 0.108  0.981 -0.176 -0.280 -0.331 -0.298 -0.298
 0.110  0.984 -0.174 -0.278 -0.330 -0.297 -0.297
 0.112  0.986 -0.172 -0.277 -0.329 -0.297 -0.297
 0.114  0.988 -0.170 -0.276 -0.328 -0.296 -0.296
 0.116  0.991 -0.168 -0.275 -0.327 -0.295 -0.295
 0.118  0.993 -0.166 -0.274 -0.326 -0.295 -0.295
 0.120  0.995 -0.165 -0.273 -0.325 -0.294 -0.294
 0.122  0.998 -0.163 -0.272 -0.325 -0.293 -0.293
 0.124  1.000 -0.161 -0.271 -0.323 -0.293 -0.293
 0.126  1.003 -0.159 -0.270 -0.323 -0.292 -0.292
 0.128  1.005 -0.157 -0.269 -0.321 -0.291 -0.291
 0.130  1.007 -0.156 -0.268 -0.321 -0.291 -0.291
 0.132  1.010 -0.154 -0.267 -0.319 -0.290 -0.290
 0.134  1.012 -0.152 -0.266 -0.319 -0.290 -0.290
 0.136  1.014 -0.151 -0.265 -0.317 -0.289 -0.289
 0.138  1.017 -0.149 -0.264 -0.316 -0.288 -0.288
 0.140  1.019 -0.147 -0.264 -0.315 -0.288 -0.288
 0.142  1.021 -0.145 -0.263 -0.314 -0.287 -0.287
 0.144  1.024 -0.144 -0.262 -0.313 -0.286 -0.286
 0.146  1.026 -0.142 -0.261 -0.312 -0.286 -0.286
 0.148  1.028 -0.141 -0.260 -0.311 -0.285 -0.285
 0.150  1.031 -0.139 -0.260 -0.310 -0.285 -0.285
 0.152  1.033 -0.137 -0.259 -0.309 -0.284 -0.284
 0.154  1.036 -0.136 -0.258 -0.307 -0.283 -0.283
 0.156  1.038 -0.134 -0.257 -0.306 -0.283 -0.283
 0.158  1.040 -0.132 -0.256 -0.305 -0.282 -0.282
 0.160  1.043 -0.131 -0.255 -0.304 -0.281 -0.281
 0.162  1.045 -0.129 -0.254 -0.303 -0.281 -0.281
 0.164  1.047 -0.127 -0.254 -0.301 -0.280 -0.280
 0.166  1.049 -0.125 -0.253 -0.300 -0.280 -0.280
 0.168  1.052 -0.124 -0.252 -0.299 -0.279 -0.279
 0.170  1.054 -0.122 -0.251 -0.298 -0.279 -0.279
 0.172  1.056 -0.120 -0.250 -0.297 -0.278 -0.278
 0.174  1.058 -0.118 -0.249 -0.296 -0.278 -0.278
 0.176  1.061 -0.116 -0.248 -0.295 -0.277 -0.277
 0.178  1.063 -0.115 -0.247 -0.294 -0.276 -0.276
 0.180  1.065 -0.113 -0.246 -0.293 -0.276 -0.276
 0.182  1.067 -0.111 -0.245 -0.291 -0.275 -0.275
 0.184  1.069 -0.109 -0.244 -0.291 -0.275 -0.275
 0.186  1.072 -0.108 -0.243 -0.289 -0.274 -0.274
 0.188  1.074 -0.106 -0.242 -0.289 -0.273 -0.273
 0.190  1.076 -0.104 -0.241 -0.287 -0.273 -0.273
 0.192  1.078 -0.102 -0.240 -0.287 -0.272 -0.272
 0.194  1.080 -0.100 -0.238 -0.285 -0.272 -0.272
 0.196  1.082 -0.098 -0.237 -0.285 -0.271 -0.271
 0.198  1.084 -0.096 -0.236 -0.284 -0.270 -0.270
 0.200  1.086 -0.094 -0.235 -0.283 -0.270 -0.270
 0.202  1.089 -0.093 -0.234 -0.282 -0.269 -0.269
 0.204  1.091 -0.091 -0.233 -0.281 -0.269 -0.269
 0.206  1.093 -0.089 -0.231 -0.280 -0.268 -0.268
 0.208  1.095 -0.087 -0.230 -0.279 -0.268 -0.268
 0.210  1.097 -0.085 -0.229 -0.279 -0.267 -0.267
 0.212  1.099 -0.083 -0.228 -0.278 -0.267 -0.267
 0.214  1.101 -0.081 -0.227 -0.277 -0.266 -0.266
 0.216  1.103 -0.079 -0.225 -0.276 -0.265 -0.265
 0.218  1.105 -0.077 -0.224 -0.275 -0.265 -0.265
 0.220  1.107 -0.075 -0.223 -0.275 -0.264 -0.264
 0.222  1.109 -0.073 -0.221 -0.274 -0.264 -0.264
 0.224  1.111 -0.071 -0.220 -0.273 -0.263 -0.263
 0.226  1.113 -0.070 -0.219 -0.272 -0.263 -0.263
 0.228  1.115 -0.067 -0.218 -0.272 -0.262 -0.262
 0.230  1.117 -0.065 -0.216 -0.271 -0.262 -0.262
 0.232  1.119 -0.064 -0.215 -0.270 -0.261 -0.261
 0.234  1.121 -0.061 -0.214 -0.269 -0.260 -0.260
 0.236  1.123 -0.060 -0.212 -0.269 -0.260 -0.260
 0.238  1.125 -0.058 -0.211 -0.268 -0.259 -0.259
 0.240  1.127 -0.056 -0.210 -0.267 -0.259 -0.259
 0.242  1.129 -0.054 -0.208 -0.267 -0.258 -0.258
 0.244  1.131 -0.052 -0.207 -0.266 -0.258 -0.258
 0.246  1.133 -0.050 -0.206 -0.265 -0.257 -0.257
 0.248  1.134 -0.048 -0.205 -0.265 -0.257 -0.257
 0.250  1.136 -0.046 -0.203 -0.264 -0.256 -0.256
 0.252  1.138 -0.044 -0.202 -0.263 -0.255 -0.255
 0.254  1.140 -0.042 -0.201 -0.262 -0.255 -0.255
 0.256  1.142 -0.041 -0.199 -0.261 -0.254 -0.254
 0.258  1.144 -0.038 -0.198 -0.260 -0.253 -0.253
 0.260  1.145 -0.037 -0.197 -0.259 -0.253 -0.253
 0.262  1.147 -0.035 -0.195 -0.259 -0.252 -0.252
 0.264  1.149 -0.033 -0.194 -0.258 -0.252 -0.252
 0.266  1.151 -0.031 -0.193 -0.257 -0.251 -0.251
 0.268  1.153 -0.029 -0.191 -0.256 -0.250 -0.250
 0.270  1.154 -0.027 -0.190 -0.255 -0.250 -0.250
 0.272  1.156 -0.025 -0.189 -0.254 -0.249 -0.249
 0.274  1.158 -0.024 -0.187 -0.253 -0.248 -0.248
 0.276  1.159 -0.021 -0.186 -0.252 -0.248 -0.248
 0.278  1.161 -0.020 -0.185 -0.251 -0.247 -0.247
 0.280  1.163 -0.018 -0.184 -0.250 -0.246 -0.246
 0.282  1.164 -0.016 -0.182 -0.249 -0.246 -0.246
 0.284  1.166 -0.014 -0.181 -0.248 -0.245 -0.245
 0.286  1.168 -0.012 -0.180 -0.247 -0.244 -0.244
 0.288  1.169 -0.010 -0.178 -0.246 -0.243 -0.243
 0.290  1.171 -0.008 -0.177 -0.245 -0.243 -0.243
 0.292  1.173 -0.006 -0.176 -0.244 -0.242 -0.242
 0.294  1.174 -0.005 -0.174 -0.243 -0.241 -0.241
 0.296  1.176 -0.003 -0.173 -0.242 -0.240 -0.240
 0.298  1.178 -0.001 -0.172 -0.241 -0.239 -0.239
 0.300  1.179  0.001 -0.171 -0.240 -0.239 -0.239
 0.302  1.181  0.002 -0.169 -0.239 -0.238 -0.238
 0.304  1.182  0.004 -0.168 -0.238 -0.237 -0.237
 0.306  1.184  0.006 -0.167 -0.237 -0.237 -0.237
 0.308  1.186  0.008 -0.166 -0.235 -0.236 -0.236
 0.310  1.187  0.009 -0.165 -0.234 -0.235 -0.235
 0.312  1.189  0.011 -0.163 -0.233 -0.234 -0.234
 0.314  1.190  0.012 -0.162 -0.232 -0.233 -0.233
 0.316  1.192  0.014 -0.161 -0.231 -0.233 -0.233
 0.318  1.194  0.016 -0.160 -0.230 -0.232 -0.232
 0.320  1.195  0.017 -0.159 -0.229 -0.231 -0.231
 0.322  1.197  0.019 -0.158 -0.228 -0.230 -0.230
 0.324  1.198  0.020 -0.156 -0.227 -0.229 -0.229
 0.326  1.200  0.022 -0.155 -0.226 -0.229 -0.229
 0.328  1.202  0.023 -0.154 -0.225 -0.228 -0.228
 0.330  1.203  0.025 -0.153 -0.223 -0.227 -0.227
 0.332  1.205  0.026 -0.152 -0.222 -0.227 -0.227
 0.334  1.206  0.027 -0.151 -0.221 -0.226 -0.226
 0.336  1.208  0.029 -0.150 -0.220 -0.225 -0.225
 0.338  1.210  0.030 -0.149 -0.219 -0.224 -0.224
 0.340  1.211  0.031 -0.148 -0.218 -0.224 -0.224
 0.342  1.213  0.033 -0.146 -0.217 -0.223 -0.223
 0.344  1.214  0.034 -0.146 -0.216 -0.222 -0.222
 0.346  1.216  0.035 -0.145 -0.215 -0.222 -0.222
 0.348  1.217  0.037 -0.144 -0.214 -0.221 -0.221
 0.350  1.219  0.038 -0.143 -0.213 -0.220 -0.220
 0.352  1.221  0.039 -0.142 -0.212 -0.219 -0.219
 0.354  1.222  0.040 -0.141 -0.211 -0.219 -0.219
 0.356  1.224  0.041 -0.140 -0.210 -0.218 -0.218
 0.358  1.225  0.043 -0.139 -0.209 -0.218 -0.218
 0.360  1.227  0.043 -0.138 -0.208 -0.217 -0.217
 0.362  1.229  0.045 -0.137 -0.207 -0.216 -0.216
 0.364  1.231  0.046 -0.136 -0.206 -0.216 -0.216
 0.366  1.232  0.047 -0.135 -0.205 -0.215 -0.215
 0.368  1.234  0.048 -0.134 -0.204 -0.215 -0.215
 0.370  1.235  0.049 -0.133 -0.203 -0.214 -0.214
 0.372  1.237  0.050 -0.132 -0.202 -0.213 -0.213
 0.374  1.238  0.052 -0.131 -0.201 -0.213 -0.213
 0.376  1.239  0.053 -0.130 -0.200 -0.212 -0.212
 0.378  1.241  0.054 -0.129 -0.199 -0.211 -0.211
 0.380  1.242  0.055 -0.128 -0.198 -0.211 -0.211
 0.382  1.244  0.056 -0.127 -0.197 -0.210 -0.210
 0.384  1.245  0.057 -0.126 -0.197 -0.210 -0.210
 0.386  1.246  0.059 -0.125 -0.196 -0.209 -0.209
 0.388  1.248  0.060 -0.124 -0.195 -0.208 -0.208
 0.390  1.249  0.061 -0.123 -0.194 -0.208 -0.208
 0.392  1.250  0.062 -0.122 -0.193 -0.207 -0.207
 0.394  1.252  0.063 -0.121 -0.192 -0.206 -0.206
 0.396  1.253  0.065 -0.120 -0.191 -0.206 -0.206
 0.398  1.254  0.066 -0.119 -0.190 -0.205 -0.205
 0.400  1.255  0.067 -0.118 -0.189 -0.205 -0.205
 0.402  1.257  0.069 -0.117 -0.188 -0.204 -0.204
 0.404  1.258  0.070 -0.116 -0.188 -0.203 -0.203
 0.406  1.259  0.071 -0.115 -0.187 -0.202 -0.202
 0.408  1.260  0.072 -0.114 -0.186 -0.202 -0.202
 0.410  1.261  0.074 -0.113 -0.185 -0.201 -0.201
 0.412  1.262  0.075 -0.112 -0.184 -0.200 -0.200
 0.414  1.264  0.076 -0.111 -0.183 -0.200 -0.200
 0.416  1.265  0.078 -0.110 -0.182 -0.199 -0.199
 0.418  1.266  0.079 -0.109 -0.181 -0.198 -0.198
 0.420  1.267  0.081 -0.107 -0.180 -0.197 -0.197
 0.422  1.268  0.082 -0.106 -0.180 -0.197 -0.197
 0.424  1.269  0.083 -0.106 -0.179 -0.196 -0.196
 0.426  1.270  0.085 -0.105 -0.178 -0.195 -0.195
 0.428  1.271  0.086 -0.103 -0.177 -0.195 -0.195
 0.430  1.272  0.087 -0.102 -0.176 -0.194 -0.194
 0.432  1.273  0.089 -0.101 -0.176 -0.193 -0.193
 0.434  1.274  0.090 -0.100 -0.175 -0.192 -0.192
 0.436  1.275  0.092 -0.099 -0.174 -0.191 -0.191
 0.438  1.276  0.093 -0.098 -0.173 -0.190 -0.190
 0.440  1.277  0.094 -0.097 -0.172 -0.190 -0.190
 0.442  1.278  0.095 -0.096 -0.172 -0.189 -0.189
 0.444  1.279  0.097 -0.095 -0.171 -0.188 -0.188
 0.446  1.280  0.098 -0.094 -0.170 -0.187 -0.187
 0.448  1.281  0.099 -0.093 -0.169 -0.186 -0.186
 0.450  1.282  0.101 -0.092 -0.168 -0.186 -0.186
 0.452  1.283  0.102 -0.091 -0.168 -0.185 -0.185
 0.454  1.284  0.103 -0.090 -0.167 -0.184 -0.184
 0.456  1.285  0.104 -0.090 -0.166 -0.183 -0.183
 0.458  1.286  0.105 -0.089 -0.165 -0.182 -0.182
 0.460  1.287  0.107 -0.088 -0.164 -0.181 -0.181
 0.462  1.288  0.108 -0.087 -0.164 -0.181 -0.181
 0.464  1.289  0.109 -0.086 -0.163 -0.180 -0.180
 0.466  1.290  0.110 -0.086 -0.162 -0.179 -0.179
 0.468  1.291  0.111 -0.085 -0.161 -0.178 -0.178
 0.470  1.292  0.112 -0.084 -0.160 -0.177 -0.177
 0.472  1.293  0.113 -0.084 -0.160 -0.177 -0.177
 0.474  1.294  0.114 -0.083 -0.159 -0.176 -0.176
 0.476  1.295  0.115 -0.082 -0.158 -0.175 -0.175
 0.478  1.296  0.116 -0.082 -0.157 -0.175 -0.175
 0.480  1.298  0.117 -0.081 -0.156 -0.174 -0.174
 0.482  1.299  0.118 -0.081 -0.156 -0.174 -0.174
 0.484  1.300  0.118 -0.080 -0.155 -0.173 -0.173
 0.486  1.301  0.119 -0.079 -0.154 -0.172 -0.172
 0.488  1.302  0.120 -0.079 -0.154 -0.172 -0.172
 0.490  1.303  0.121 -0.078 -0.153 -0.171 -0.171
 0.492  1.304  0.122 -0.078 -0.152 -0.170 -0.170
 0.494  1.306  0.122 -0.077 -0.151 -0.170 -0.170
 0.496  1.307  0.123 -0.077 -0.150 -0.169 -0.169
 0.498  1.308  0.124 -0.076 -0.150 -0.169 -0.169
 0.500  1.309  0.125 -0.076 -0.149 -0.168 -0.168
 0.502  1.311  0.125 -0.076 -0.148 -0.168 -0.168
 0.504  1.312  0.126 -0.075 -0.147 -0.167 -0.167
 0.506  1.313  0.127 -0.075 -0.146 -0.167 -0.167
 0.508  1.314  0.127 -0.074 -0.146 -0.166 -0.166
 0.510  1.315  0.128 -0.074 -0.145 -0.166 -0.166
 0.512  1.316  0.129 -0.074 -0.144 -0.165 -0.165
 0.514  1.317  0.129 -0.073 -0.144 -0.165 -0.165
 0.516  1.318  0.130 -0.073 -0.143 -0.165 -0.165
 0.518  1.319  0.130 -0.072 -0.142 -0.164 -0.164
 0.520  1.320  0.131 -0.072 -0.141 -0.164 -0.164
 0.522  1.321  0.132 -0.071 -0.140 -0.163 -0.163
 0.524  1.322  0.132 -0.071 -0.140 -0.163 -0.163
 0.526  1.323  0.133 -0.071 -0.139 -0.162 -0.162
 0.528  1.323  0.133 -0.070 -0.138 -0.162 -0.162
 0.530  1.324  0.134 -0.070 -0.138 -0.162 -0.162
 0.532  1.325  0.135 -0.069 -0.137 -0.161 -0.161
 0.534  1.326  0.135 -0.069 -0.136 -0.161 -0.161
 0.536  1.326  0.136 -0.068 -0.136 -0.161 -0.161
 0.538  1.327  0.136 -0.068 -0.135 -0.160 -0.160
 0.540  1.327  0.137 -0.067 -0.134 -0.160 -0.160
 0.542  1.328  0.138 -0.067 -0.134 -0.160 -0.160
 0.544  1.328  0.138 -0.066 -0.133 -0.159 -0.159
 0.546  1.329  0.138 -0.066 -0.132 -0.159 -0.159
 0.548  1.329  0.139 -0.066 -0.132 -0.158 -0.158
 0.550  1.329  0.140 -0.065 -0.131 -0.158 -0.158
 0.552  1.329  0.140 -0.065 -0.130 -0.158 -0.158
 0.554  1.330  0.141 -0.064 -0.130 -0.157 -0.157
 0.556  1.330  0.141 -0.064 -0.129 -0.157 -0.157
 0.558  1.330  0.141 -0.063 -0.128 -0.156 -0.156
 0.560  1.330  0.142 -0.063 -0.128 -0.156 -0.156
 0.562  1.330  0.143 -0.062 -0.127 -0.156 -0.156
 0.564  1.330  0.143 -0.062 -0.127 -0.155 -0.155
 0.566  1.330  0.144 -0.061 -0.126 -0.155 -0.155
 0.568  1.330  0.144 -0.061 -0.125 -0.154 -0.154
 0.570  1.330  0.144 -0.060 -0.125 -0.154 -0.154
 0.572  1.330  0.145 -0.060 -0.124 -0.154 -0.154
 0.574  1.330  0.145 -0.059 -0.124 -0.153 -0.153
 0.576  1.330  0.146 -0.059 -0.123 -0.153 -0.153
 0.578  1.329  0.146 -0.058 -0.123 -0.153 -0.153
 0.580  1.329  0.147 -0.058 -0.122 -0.152 -0.152
 0.582  1.329  0.147 -0.057 -0.122 -0.152 -0.152
 0.584  1.329  0.147 -0.057 -0.121 -0.151 -0.151
 0.586  1.329  0.148 -0.056 -0.120 -0.151 -0.151
 0.588  1.329  0.148 -0.055 -0.120 -0.150 -0.150
 0.590  1.328  0.149 -0.055 -0.120 -0.150 -0.150
 0.592  1.328  0.149 -0.054 -0.119 -0.150 -0.150
 0.594  1.328  0.150 -0.054 -0.118 -0.149 -0.149
 0.596  1.328  0.150 -0.053 -0.118 -0.149 -0.149
 0.598  1.328  0.150 -0.053 -0.118 -0.149 -0.149
 0.600  1.328  0.150 -0.052 -0.117 -0.148 -0.148
 0.602  1.328  0.151 -0.052 -0.116 -0.148 -0.148
 0.604  1.328  0.151 -0.051 -0.116 -0.147 -0.147
 0.606  1.328  0.151 -0.051 -0.116 -0.147 -0.147
 0.608  1.327  0.151 -0.050 -0.115 -0.146 -0.146
 0.610  1.327  0.152 -0.050 -0.115 -0.146 -0.146
 0.612  1.327  0.152 -0.049 -0.114 -0.145 -0.145
 0.614  1.327  0.152 -0.049 -0.114 -0.145 -0.145
 0.616  1.327  0.152 -0.048 -0.113 -0.144 -0.144
 0.618  1.327  0.153 -0.048 -0.113 -0.144 -0.144
 0.620  1.327  0.153 -0.047 -0.112 -0.144 -0.144
 0.622  1.327  0.153 -0.047 -0.112 -0.143 -0.143
 0.624  1.327  0.153 -0.046 -0.112 -0.143 -0.143
 0.626  1.327  0.153 -0.046 -0.111 -0.142 -0.142
 0.628  1.327  0.153 -0.045 -0.111 -0.141 -0.141
 0.630  1.327  0.153 -0.045 -0.110 -0.141 -0.141
 0.632  1.327  0.153 -0.044 -0.110 -0.140 -0.140
 0.634  1.327  0.153 -0.044 -0.110 -0.140 -0.140
 0.636  1.328  0.153 -0.043 -0.109 -0.139 -0.139
 0.638  1.328  0.153 -0.043 -0.109 -0.139 -0.139
 0.640  1.328  0.154 -0.042 -0.108 -0.138 -0.138
 0.642  1.328  0.154 -0.042 -0.108 -0.138 -0.138
 0.644  1.328  0.154 -0.041 -0.108 -0.137 -0.137
 0.646  1.328  0.154 -0.041 -0.107 -0.136 -0.136
 0.648  1.328  0.154 -0.040 -0.107 -0.136 -0.136
 0.650  1.328  0.154 -0.040 -0.107 -0.135 -0.135
 0.652  1.329  0.154 -0.039 -0.106 -0.135 -0.135
 0.654  1.329  0.154 -0.039 -0.106 -0.134 -0.134
 0.656  1.329  0.154 -0.038 -0.106 -0.133 -0.133
 0.658  1.329  0.154 -0.037 -0.105 -0.133 -0.133
 0.660  1.329  0.154 -0.037 -0.105 -0.132 -0.132
 0.662  1.329  0.155 -0.036 -0.105 -0.132 -0.132
 0.664  1.330  0.155 -0.035 -0.104 -0.131 -0.131
 0.666  1.330  0.155 -0.035 -0.104 -0.130 -0.130
 0.668  1.330  0.156 -0.034 -0.104 -0.129 -0.129
 0.670  1.330  0.156 -0.033 -0.103 -0.129 -0.129
 0.672  1.330  0.156 -0.033 -0.103 -0.128 -0.128
 0.674  1.331  0.156 -0.032 -0.102 -0.127 -0.127
 0.676  1.331  0.157 -0.031 -0.102 -0.127 -0.127
 0.678  1.331  0.157 -0.030 -0.101 -0.126 -0.126
 0.680  1.331  0.158 -0.030 -0.101 -0.125 -0.125
 0.682  1.331  0.158 -0.029 -0.100 -0.124 -0.124
 0.684  1.332  0.159 -0.028 -0.100 -0.123 -0.123
 0.686  1.332  0.159 -0.027 -0.100 -0.122 -0.122
 0.688  1.332  0.160 -0.026 -0.099 -0.121 -0.121
 0.690  1.332  0.161 -0.025 -0.098 -0.120 -0.120
 0.692  1.333  0.161 -0.025 -0.098 -0.119 -0.119
 0.694  1.333  0.162 -0.024 -0.098 -0.118 -0.118
 0.696  1.333  0.163 -0.023 -0.097 -0.117 -0.117
 0.698  1.334  0.163 -0.022 -0.096 -0.116 -0.116
 0.700  1.334  0.164 -0.021 -0.096 -0.115 -0.115
 0.702  1.334  0.165 -0.020 -0.095 -0.114 -0.114
 0.704  1.334  0.166 -0.019 -0.095 -0.113 -0.113
 0.706  1.335  0.167 -0.018 -0.094 -0.112 -0.112
 0.708  1.335  0.167 -0.017 -0.094 -0.111 -0.111
 0.710  1.335  0.168 -0.016 -0.093 -0.109 -0.109
 0.712  1.336  0.170 -0.015 -0.092 -0.108 -0.108
 0.714  1.336  0.170 -0.014 -0.091 -0.107 -0.107
 0.716  1.336  0.171 -0.013 -0.091 -0.106 -0.106
 0.718  1.337  0.173 -0.012 -0.090 -0.104 -0.104
 0.720  1.337  0.173 -0.011 -0.089 -0.103 -0.103
 0.722  1.337  0.174 -0.010 -0.088 -0.102 -0.102
 0.724  1.338  0.175 -0.009 -0.088 -0.100 -0.100
 0.726  1.338  0.176 -0.008 -0.087 -0.099 -0.099
 0.728  1.339  0.176 -0.008 -0.086 -0.098 -0.098
 0.730  1.339  0.177 -0.007 -0.086 -0.096 -0.096
 0.732  1.340  0.178 -0.007 -0.085 -0.095 -0.095
 0.734  1.341  0.178 -0.007 -0.084 -0.093 -0.093
 0.736  1.342  0.178 -0.006 -0.084 -0.092 -0.092
 0.738  1.342  0.179 -0.006 -0.083 -0.090 -0.090
 0.740  1.343  0.179 -0.006 -0.083 -0.089 -0.089
 0.742  1.344  0.179 -0.007 -0.083 -0.088 -0.088
 0.744  1.345  0.179 -0.007 -0.082 -0.086 -0.086
 0.746  1.346  0.178 -0.007 -0.082 -0.085 -0.085
 0.748  1.347  0.178 -0.008 -0.082 -0.084 -0.084
 0.750  1.348  0.177 -0.008 -0.082 -0.082 -0.082
 0.752  1.349  0.177 -0.009 -0.082 -0.081 -0.081
 0.754  1.350  0.176 -0.010 -0.083 -0.080 -0.080
 0.756  1.351  0.176 -0.011 -0.083 -0.079 -0.079
 0.758  1.352  0.175 -0.012 -0.084 -0.078 -0.078
 0.760  1.354  0.174 -0.013 -0.084 -0.078 -0.078
 0.762  1.355  0.173 -0.014 -0.085 -0.077 -0.077
 0.764  1.356  0.172 -0.015 -0.086 -0.076 -0.076
 0.766  1.358  0.171 -0.017 -0.086 -0.076 -0.076
 0.768  1.359  0.170 -0.018 -0.087 -0.075 -0.075
 0.770  1.361  0.168 -0.020 -0.088 -0.074 -0.074
 0.772  1.362  0.167 -0.021 -0.090 -0.074 -0.074
 0.774  1.364  0.166 -0.023 -0.091 -0.073 -0.073
 0.776  1.366  0.164 -0.025 -0.092 -0.073 -0.073
 0.778  1.368  0.162 -0.027 -0.094 -0.073 -0.073
 0.780  1.370  0.161 -0.029 -0.095 -0.073 -0.073
 0.782  1.372  0.159 -0.031 -0.096 -0.072 -0.072
 0.784  1.373  0.157 -0.033 -0.098 -0.072 -0.072
 0.786  1.375  0.155 -0.036 -0.100 -0.072 -0.072
 0.788  1.377  0.153 -0.038 -0.102 -0.072 -0.072
 0.790  1.379  0.150 -0.041 -0.104 -0.072 -0.072
 0.792  1.380  0.148 -0.044 -0.106 -0.072 -0.072
 0.794  1.382  0.145 -0.046 -0.108 -0.072 -0.072
 0.796  1.383  0.143 -0.049 -0.110 -0.072 -0.072
 0.798  1.384  0.140 -0.052 -0.113 -0.073 -0.073
 0.800  1.385  0.137 -0.055 -0.115 -0.073 -0.073
 0.802  1.386  0.134 -0.058 -0.118 -0.073 -0.073
 0.804  1.387  0.131 -0.061 -0.120 -0.074 -0.074
 0.806  1.387  0.128 -0.064 -0.123 -0.075 -0.075
 0.808  1.388  0.124 -0.067 -0.126 -0.075 -0.075
