# IsPeriodic    : True
# Period        : 0.574309 days
# Normalization : <g_mag>=0
# 
# Phase u_mag  g_mag  r_mag  i_mag  z_mag  y_mag
 0.000  0.660 -0.499 -0.532 -0.500 -0.473 -0.473
 0.002  0.660 -0.499 -0.532 -0.500 -0.473 -0.473
 0.004  0.661 -0.498 -0.532 -0.500 -0.473 -0.473
 0.006  0.662 -0.497 -0.532 -0.499 -0.473 -0.473
 0.008  0.663 -0.496 -0.531 -0.499 -0.472 -0.472
 0.010  0.666 -0.495 -0.530 -0.499 -0.471 -0.471
 0.012  0.667 -0.493 -0.530 -0.498 -0.471 -0.471
 0.014  0.670 -0.491 -0.529 -0.497 -0.470 -0.470
 0.016  0.672 -0.490 -0.529 -0.496 -0.469 -0.469
 0.018  0.675 -0.488 -0.528 -0.495 -0.468 -0.468
 0.020  0.678 -0.486 -0.527 -0.494 -0.467 -0.467
 0.022  0.681 -0.483 -0.526 -0.493 -0.466 -0.466
 0.024  0.684 -0.481 -0.525 -0.492 -0.465 -0.465
 0.026  0.687 -0.479 -0.524 -0.491 -0.464 -0.464
 0.028  0.690 -0.477 -0.523 -0.490 -0.462 -0.462
 0.030  0.693 -0.473 -0.522 -0.489 -0.461 -0.461
 0.032  0.696 -0.471 -0.521 -0.488 -0.460 -0.460
 0.034  0.699 -0.468 -0.520 -0.487 -0.459 -0.459
 0.036  0.703 -0.466 -0.518 -0.485 -0.458 -0.458
 0.038  0.706 -0.463 -0.517 -0.484 -0.457 -0.457
 0.040  0.709 -0.459 -0.516 -0.483 -0.455 -0.455
 0.042  0.712 -0.457 -0.514 -0.482 -0.454 -0.454
 0.044  0.716 -0.454 -0.513 -0.481 -0.453 -0.453
 0.046  0.720 -0.450 -0.511 -0.480 -0.451 -0.451
 0.048  0.724 -0.447 -0.510 -0.479 -0.450 -0.450
 0.050  0.727 -0.443 -0.508 -0.477 -0.449 -0.449
 0.052  0.731 -0.440 -0.506 -0.476 -0.448 -0.448
 0.054  0.735 -0.435 -0.504 -0.475 -0.447 -0.447
 0.056  0.739 -0.431 -0.502 -0.474 -0.446 -0.446
 0.058  0.744 -0.428 -0.500 -0.473 -0.444 -0.444
 0.060  0.748 -0.423 -0.498 -0.471 -0.443 -0.443
 0.062  0.753 -0.419 -0.496 -0.470 -0.442 -0.442
 0.064  0.757 -0.415 -0.493 -0.469 -0.441 -0.441
 0.066  0.761 -0.411 -0.491 -0.467 -0.440 -0.440
 0.068  0.766 -0.406 -0.489 -0.466 -0.439 -0.439
 0.070  0.772 -0.401 -0.486 -0.464 -0.438 -0.438
 0.072  0.776 -0.397 -0.484 -0.463 -0.437 -0.437
 0.074  0.781 -0.392 -0.482 -0.462 -0.436 -0.436
 0.076  0.786 -0.387 -0.479 -0.460 -0.435 -0.435
 0.078  0.791 -0.382 -0.477 -0.459 -0.433 -0.433
 0.080  0.796 -0.377 -0.474 -0.457 -0.432 -0.432
 0.082  0.801 -0.372 -0.472 -0.456 -0.431 -0.431
 0.084  0.806 -0.367 -0.469 -0.455 -0.430 -0.430
 0.086  0.810 -0.363 -0.467 -0.453 -0.429 -0.429
 0.088  0.815 -0.358 -0.464 -0.452 -0.428 -0.428
 0.090  0.820 -0.353 -0.462 -0.450 -0.427 -0.427
 0.092  0.825 -0.349 -0.459 -0.449 -0.426 -0.426
 0.094  0.829 -0.344 -0.457 -0.447 -0.425 -0.425
 0.096  0.834 -0.340 -0.455 -0.446 -0.424 -0.424
 0.098  0.838 -0.336 -0.452 -0.444 -0.423 -0.423
 0.100  0.843 -0.331 -0.449 -0.443 -0.422 -0.422
 0.102  0.847 -0.327 -0.447 -0.441 -0.421 -0.421
 0.104  0.852 -0.323 -0.445 -0.440 -0.420 -0.420
 0.106  0.855 -0.318 -0.442 -0.438 -0.419 -0.419
 0.108  0.859 -0.314 -0.439 -0.437 -0.418 -0.418
 0.110  0.864 -0.310 -0.437 -0.435 -0.417 -0.417
 0.112  0.868 -0.306 -0.435 -0.434 -0.416 -0.416
 0.114  0.872 -0.302 -0.432 -0.433 -0.415 -0.415
 0.116  0.876 -0.299 -0.430 -0.431 -0.414 -0.414
 0.118  0.879 -0.295 -0.427 -0.430 -0.413 -0.413
 0.120  0.883 -0.291 -0.425 -0.428 -0.412 -0.412
 0.122  0.887 -0.287 -0.422 -0.427 -0.411 -0.411
 0.124  0.890 -0.284 -0.420 -0.425 -0.410 -0.410
 0.126  0.894 -0.280 -0.417 -0.424 -0.409 -0.409
 0.128  0.897 -0.276 -0.415 -0.423 -0.408 -0.408
 0.130  0.901 -0.273 -0.412 -0.421 -0.407 -0.407
 0.132  0.904 -0.270 -0.410 -0.420 -0.406 -0.406
 0.134  0.908 -0.267 -0.408 -0.418 -0.406 -0.406
 0.136  0.911 -0.263 -0.405 -0.417 -0.404 -0.404
 0.138  0.914 -0.260 -0.402 -0.416 -0.404 -0.404
 0.140  0.917 -0.257 -0.400 -0.414 -0.402 -0.402
 0.142  0.920 -0.253 -0.397 -0.413 -0.402 -0.402
 0.144  0.923 -0.250 -0.395 -0.411 -0.401 -0.401
 0.146  0.926 -0.248 -0.393 -0.410 -0.400 -0.400
 0.148  0.929 -0.244 -0.390 -0.409 -0.399 -0.399
 0.150  0.931 -0.241 -0.388 -0.407 -0.398 -0.398
 0.152  0.934 -0.238 -0.386 -0.406 -0.397 -0.397
 0.154  0.938 -0.235 -0.383 -0.404 -0.396 -0.396
 0.156  0.940 -0.232 -0.381 -0.403 -0.395 -0.395
 0.158  0.943 -0.229 -0.379 -0.402 -0.395 -0.395
 0.160  0.946 -0.226 -0.376 -0.400 -0.393 -0.393
 0.162  0.949 -0.223 -0.374 -0.399 -0.393 -0.393
 0.164  0.951 -0.220 -0.372 -0.398 -0.392 -0.392
 0.166  0.954 -0.217 -0.369 -0.396 -0.391 -0.391
 0.168  0.957 -0.214 -0.368 -0.395 -0.390 -0.390
 0.170  0.960 -0.210 -0.365 -0.394 -0.389 -0.389
 0.172  0.962 -0.208 -0.363 -0.392 -0.388 -0.388
 0.174  0.965 -0.205 -0.361 -0.391 -0.388 -0.388
 0.176  0.968 -0.201 -0.359 -0.390 -0.387 -0.387
 0.178  0.971 -0.198 -0.357 -0.388 -0.386 -0.386
 0.180  0.974 -0.195 -0.355 -0.387 -0.385 -0.385
 0.182  0.977 -0.192 -0.353 -0.386 -0.384 -0.384
 0.184  0.980 -0.189 -0.351 -0.385 -0.383 -0.383
 0.186  0.983 -0.186 -0.349 -0.383 -0.382 -0.382
 0.188  0.986 -0.182 -0.347 -0.382 -0.381 -0.381
 0.190  0.988 -0.179 -0.346 -0.381 -0.380 -0.380
 0.192  0.991 -0.176 -0.343 -0.379 -0.380 -0.380
 0.194  0.995 -0.173 -0.342 -0.378 -0.379 -0.379
 0.196  0.997 -0.170 -0.340 -0.377 -0.378 -0.378
 0.198  1.000 -0.167 -0.338 -0.375 -0.377 -0.377
 0.200  1.003 -0.164 -0.336 -0.374 -0.376 -0.376
 0.202  1.006 -0.160 -0.335 -0.373 -0.375 -0.375
 0.204  1.009 -0.157 -0.333 -0.371 -0.375 -0.375
 0.206  1.012 -0.154 -0.331 -0.370 -0.374 -0.374
 0.208  1.015 -0.150 -0.330 -0.369 -0.373 -0.373
 0.210  1.017 -0.147 -0.328 -0.367 -0.372 -0.372
 0.212  1.021 -0.144 -0.327 -0.367 -0.371 -0.371
 0.214  1.024 -0.140 -0.325 -0.365 -0.370 -0.370
 0.216  1.027 -0.137 -0.324 -0.364 -0.370 -0.370
 0.218  1.030 -0.134 -0.322 -0.363 -0.369 -0.369
 0.220  1.032 -0.131 -0.320 -0.361 -0.368 -0.368
 0.222  1.036 -0.127 -0.319 -0.360 -0.367 -0.367
 0.224  1.039 -0.124 -0.317 -0.359 -0.366 -0.366
 0.226  1.042 -0.121 -0.316 -0.358 -0.366 -0.366
 0.228  1.044 -0.117 -0.314 -0.356 -0.364 -0.364
 0.230  1.047 -0.114 -0.313 -0.355 -0.364 -0.364
 0.232  1.051 -0.112 -0.311 -0.354 -0.363 -0.363
 0.234  1.054 -0.108 -0.310 -0.353 -0.362 -0.362
 0.236  1.056 -0.105 -0.308 -0.352 -0.361 -0.361
 0.238  1.059 -0.102 -0.306 -0.350 -0.360 -0.360
 0.240  1.062 -0.099 -0.305 -0.349 -0.360 -0.360
 0.242  1.065 -0.096 -0.303 -0.348 -0.359 -0.359
 0.244  1.068 -0.094 -0.302 -0.347 -0.358 -0.358
 0.246  1.070 -0.090 -0.300 -0.346 -0.357 -0.357
 0.248  1.074 -0.087 -0.298 -0.345 -0.356 -0.356
 0.250  1.077 -0.084 -0.296 -0.343 -0.355 -0.355
 0.252  1.079 -0.081 -0.295 -0.342 -0.354 -0.354
 0.254  1.082 -0.079 -0.294 -0.341 -0.353 -0.353
 0.256  1.085 -0.076 -0.292 -0.340 -0.353 -0.353
 0.258  1.088 -0.073 -0.290 -0.339 -0.351 -0.351
 0.260  1.090 -0.070 -0.288 -0.337 -0.351 -0.351
 0.262  1.092 -0.068 -0.287 -0.336 -0.350 -0.350
 0.264  1.096 -0.065 -0.285 -0.335 -0.349 -0.349
 0.266  1.098 -0.062 -0.284 -0.334 -0.348 -0.348
 0.268  1.101 -0.060 -0.282 -0.333 -0.347 -0.347
 0.270  1.104 -0.057 -0.280 -0.331 -0.346 -0.346
 0.272  1.106 -0.055 -0.278 -0.330 -0.345 -0.345
 0.274  1.109 -0.052 -0.277 -0.329 -0.344 -0.344
 0.276  1.111 -0.050 -0.275 -0.328 -0.343 -0.343
 0.278  1.114 -0.047 -0.273 -0.327 -0.342 -0.342
 0.280  1.117 -0.045 -0.271 -0.326 -0.341 -0.341
 0.282  1.119 -0.042 -0.270 -0.324 -0.340 -0.340
 0.284  1.122 -0.040 -0.268 -0.323 -0.339 -0.339
 0.286  1.124 -0.037 -0.266 -0.322 -0.338 -0.338
 0.288  1.127 -0.035 -0.265 -0.321 -0.337 -0.337
 0.290  1.130 -0.033 -0.263 -0.320 -0.335 -0.335
 0.292  1.132 -0.031 -0.261 -0.319 -0.334 -0.334
 0.294  1.134 -0.028 -0.259 -0.317 -0.333 -0.333
 0.296  1.137 -0.026 -0.258 -0.317 -0.332 -0.332
 0.298  1.139 -0.023 -0.256 -0.315 -0.331 -0.331
 0.300  1.142 -0.021 -0.255 -0.314 -0.330 -0.330
 0.302  1.145 -0.019 -0.253 -0.313 -0.329 -0.329
 0.304  1.147 -0.017 -0.251 -0.312 -0.328 -0.328
 0.306  1.149 -0.014 -0.249 -0.310 -0.326 -0.326
 0.308  1.152 -0.012 -0.248 -0.310 -0.325 -0.325
 0.310  1.154 -0.009 -0.246 -0.308 -0.324 -0.324
 0.312  1.156 -0.007 -0.244 -0.307 -0.323 -0.323
 0.314  1.159 -0.005 -0.243 -0.306 -0.322 -0.322
 0.316  1.161 -0.003 -0.241 -0.305 -0.320 -0.320
 0.318  1.163 -0.000 -0.240 -0.303 -0.319 -0.319
 0.320  1.165  0.002 -0.238 -0.302 -0.318 -0.318
 0.322  1.168  0.005 -0.236 -0.301 -0.317 -0.317
 0.324  1.170  0.007 -0.234 -0.300 -0.316 -0.316
 0.326  1.172  0.009 -0.233 -0.299 -0.315 -0.315
 0.328  1.175  0.012 -0.231 -0.297 -0.313 -0.313
 0.330  1.176  0.014 -0.230 -0.296 -0.313 -0.313
 0.332  1.179  0.017 -0.228 -0.295 -0.311 -0.311
 0.334  1.181  0.019 -0.226 -0.293 -0.310 -0.310
 0.336  1.183  0.022 -0.225 -0.292 -0.309 -0.309
 0.338  1.185  0.024 -0.223 -0.291 -0.308 -0.308
 0.340  1.187  0.027 -0.222 -0.289 -0.307 -0.307
 0.342  1.190  0.029 -0.220 -0.288 -0.306 -0.306
 0.344  1.191  0.032 -0.218 -0.287 -0.305 -0.305
 0.346  1.194  0.034 -0.216 -0.285 -0.304 -0.304
 0.348  1.196  0.037 -0.215 -0.284 -0.303 -0.303
 0.350  1.198  0.039 -0.214 -0.283 -0.302 -0.302
 0.352  1.200  0.042 -0.212 -0.282 -0.301 -0.301
 0.354  1.202  0.044 -0.210 -0.280 -0.300 -0.300
 0.356  1.204  0.047 -0.208 -0.279 -0.299 -0.299
 0.358  1.205  0.049 -0.207 -0.278 -0.298 -0.298
 0.360  1.208  0.051 -0.205 -0.276 -0.297 -0.297
 0.362  1.209  0.054 -0.204 -0.275 -0.296 -0.296
 0.364  1.212  0.056 -0.203 -0.273 -0.295 -0.295
 0.366  1.213  0.059 -0.201 -0.272 -0.294 -0.294
 0.368  1.216  0.061 -0.199 -0.271 -0.293 -0.293
 0.370  1.217  0.064 -0.198 -0.269 -0.292 -0.292
 0.372  1.219  0.066 -0.196 -0.268 -0.291 -0.291
 0.374  1.221  0.069 -0.194 -0.266 -0.291 -0.291
 0.376  1.223  0.071 -0.193 -0.265 -0.290 -0.290
 0.378  1.225  0.073 -0.192 -0.264 -0.289 -0.289
 0.380  1.227  0.075 -0.190 -0.262 -0.288 -0.288
 0.382  1.229  0.078 -0.189 -0.260 -0.287 -0.287
 0.384  1.231  0.080 -0.187 -0.259 -0.286 -0.286
 0.386  1.233  0.083 -0.186 -0.258 -0.285 -0.285
 0.388  1.235  0.084 -0.185 -0.257 -0.284 -0.284
 0.390  1.237  0.087 -0.183 -0.255 -0.283 -0.283
 0.392  1.239  0.089 -0.182 -0.254 -0.282 -0.282
 0.394  1.241  0.091 -0.180 -0.253 -0.281 -0.281
 0.396  1.243  0.094 -0.179 -0.251 -0.281 -0.281
 0.398  1.245  0.096 -0.177 -0.250 -0.279 -0.279
 0.400  1.247  0.098 -0.176 -0.249 -0.279 -0.279
 0.402  1.249  0.100 -0.175 -0.247 -0.277 -0.277
 0.404  1.251  0.102 -0.173 -0.246 -0.277 -0.277
 0.406  1.253  0.104 -0.172 -0.245 -0.275 -0.275
 0.408  1.254  0.106 -0.170 -0.244 -0.274 -0.274
 0.410  1.257  0.108 -0.169 -0.243 -0.273 -0.273
 0.412  1.258  0.110 -0.168 -0.241 -0.272 -0.272
 0.414  1.261  0.112 -0.167 -0.240 -0.271 -0.271
 0.416  1.262  0.114 -0.165 -0.239 -0.270 -0.270
 0.418  1.265  0.116 -0.164 -0.238 -0.269 -0.269
 0.420  1.266  0.117 -0.163 -0.237 -0.268 -0.268
 0.422  1.269  0.120 -0.161 -0.236 -0.267 -0.267
 0.424  1.270  0.122 -0.160 -0.234 -0.266 -0.266
 0.426  1.273  0.123 -0.159 -0.233 -0.265 -0.265
 0.428  1.274  0.125 -0.157 -0.232 -0.264 -0.264
 0.430  1.277  0.127 -0.156 -0.231 -0.262 -0.262
 0.432  1.278  0.129 -0.154 -0.230 -0.261 -0.261
 0.434  1.281  0.131 -0.153 -0.229 -0.260 -0.260
 0.436  1.282  0.132 -0.152 -0.228 -0.259 -0.259
 0.438  1.284  0.134 -0.151 -0.227 -0.257 -0.257
 0.440  1.286  0.136 -0.150 -0.226 -0.256 -0.256
 0.442  1.288  0.137 -0.149 -0.225 -0.255 -0.255
 0.444  1.290  0.139 -0.148 -0.224 -0.254 -0.254
 0.446  1.292  0.140 -0.146 -0.223 -0.253 -0.253
 0.448  1.294  0.142 -0.145 -0.222 -0.251 -0.251
 0.450  1.296  0.144 -0.143 -0.221 -0.250 -0.250
 0.452  1.297  0.145 -0.142 -0.220 -0.249 -0.249
 0.454  1.299  0.147 -0.141 -0.219 -0.248 -0.248
 0.456  1.300  0.149 -0.140 -0.218 -0.246 -0.246
 0.458  1.302  0.150 -0.139 -0.217 -0.245 -0.245
 0.460  1.303  0.151 -0.138 -0.216 -0.244 -0.244
 0.462  1.305  0.153 -0.137 -0.215 -0.243 -0.243
 0.464  1.307  0.154 -0.135 -0.214 -0.242 -0.242
 0.466  1.308  0.156 -0.134 -0.213 -0.241 -0.241
 0.468  1.310  0.158 -0.132 -0.212 -0.239 -0.239
 0.470  1.311  0.159 -0.131 -0.211 -0.238 -0.238
 0.472  1.312  0.160 -0.130 -0.210 -0.237 -0.237
 0.474  1.314  0.162 -0.129 -0.209 -0.236 -0.236
 0.476  1.315  0.163 -0.128 -0.208 -0.235 -0.235
 0.478  1.316  0.164 -0.127 -0.207 -0.234 -0.234
 0.480  1.318  0.166 -0.126 -0.206 -0.233 -0.233
 0.482  1.319  0.167 -0.124 -0.205 -0.232 -0.232
 0.484  1.320  0.168 -0.123 -0.204 -0.231 -0.231
 0.486  1.321  0.169 -0.122 -0.203 -0.230 -0.230
 0.488  1.322  0.171 -0.121 -0.202 -0.230 -0.230
 0.490  1.323  0.172 -0.120 -0.201 -0.229 -0.229
 0.492  1.324  0.173 -0.119 -0.200 -0.228 -0.228
 0.494  1.326  0.174 -0.117 -0.199 -0.227 -0.227
 0.496  1.326  0.176 -0.116 -0.198 -0.226 -0.226
 0.498  1.327  0.177 -0.115 -0.197 -0.225 -0.225
 0.500  1.328  0.178 -0.114 -0.196 -0.224 -0.224
 0.502  1.329  0.179 -0.113 -0.196 -0.224 -0.224
 0.504  1.330  0.180 -0.112 -0.194 -0.223 -0.223
 0.506  1.330  0.181 -0.111 -0.193 -0.222 -0.222
 0.508  1.331  0.182 -0.110 -0.193 -0.221 -0.221
 0.510  1.332  0.183 -0.109 -0.192 -0.221 -0.221
 0.512  1.333  0.184 -0.108 -0.191 -0.220 -0.220
 0.514  1.333  0.185 -0.106 -0.190 -0.219 -0.219
 0.516  1.334  0.187 -0.106 -0.189 -0.219 -0.219
 0.518  1.335  0.187 -0.105 -0.188 -0.218 -0.218
 0.520  1.336  0.188 -0.104 -0.187 -0.217 -0.217
 0.522  1.337  0.189 -0.102 -0.186 -0.217 -0.217
 0.524  1.337  0.190 -0.102 -0.186 -0.217 -0.217
 0.526  1.337  0.191 -0.101 -0.185 -0.216 -0.216
 0.528  1.338  0.192 -0.099 -0.184 -0.215 -0.215
 0.530  1.339  0.192 -0.099 -0.183 -0.215 -0.215
 0.532  1.340  0.193 -0.098 -0.182 -0.214 -0.214
 0.534  1.340  0.195 -0.097 -0.182 -0.213 -0.213
 0.536  1.341  0.196 -0.096 -0.181 -0.213 -0.213
 0.538  1.341  0.196 -0.095 -0.180 -0.212 -0.212
 0.540  1.342  0.196 -0.094 -0.179 -0.212 -0.212
 0.542  1.342  0.197 -0.093 -0.179 -0.212 -0.212
 0.544  1.343  0.198 -0.092 -0.178 -0.211 -0.211
 0.546  1.344  0.199 -0.091 -0.177 -0.210 -0.210
 0.548  1.345  0.200 -0.091 -0.177 -0.210 -0.210
 0.550  1.345  0.201 -0.090 -0.176 -0.209 -0.209
 0.552  1.345  0.201 -0.089 -0.175 -0.208 -0.208
 0.554  1.346  0.202 -0.088 -0.175 -0.208 -0.208
 0.556  1.346  0.202 -0.087 -0.174 -0.207 -0.207
 0.558  1.347  0.203 -0.087 -0.174 -0.207 -0.207
 0.560  1.347  0.204 -0.086 -0.173 -0.206 -0.206
 0.562  1.348  0.205 -0.085 -0.172 -0.206 -0.206
 0.564  1.348  0.205 -0.084 -0.172 -0.205 -0.205
 0.566  1.348  0.206 -0.083 -0.172 -0.204 -0.204
 0.568  1.349  0.206 -0.083 -0.171 -0.204 -0.204
 0.570  1.349  0.206 -0.082 -0.170 -0.203 -0.203
 0.572  1.350  0.207 -0.081 -0.170 -0.202 -0.202
 0.574  1.350  0.208 -0.080 -0.169 -0.202 -0.202
 0.576  1.351  0.208 -0.080 -0.169 -0.201 -0.201
 0.578  1.351  0.209 -0.079 -0.168 -0.201 -0.201
 0.580  1.352  0.209 -0.079 -0.168 -0.200 -0.200
 0.582  1.352  0.210 -0.078 -0.168 -0.200 -0.200
 0.584  1.352  0.210 -0.077 -0.168 -0.199 -0.199
 0.586  1.352  0.210 -0.077 -0.167 -0.199 -0.199
 0.588  1.353  0.210 -0.076 -0.167 -0.198 -0.198
 0.590  1.353  0.211 -0.076 -0.166 -0.197 -0.197
 0.592  1.353  0.211 -0.075 -0.166 -0.197 -0.197
 0.594  1.354  0.211 -0.075 -0.166 -0.196 -0.196
 0.596  1.354  0.212 -0.075 -0.165 -0.195 -0.195
 0.598  1.354  0.212 -0.074 -0.165 -0.195 -0.195
 0.600  1.355  0.212 -0.073 -0.164 -0.194 -0.194
 0.602  1.355  0.213 -0.073 -0.164 -0.193 -0.193
 0.604  1.355  0.213 -0.073 -0.164 -0.193 -0.193
 0.606  1.356  0.213 -0.072 -0.164 -0.192 -0.192
 0.608  1.356  0.213 -0.072 -0.163 -0.192 -0.192
 0.610  1.356  0.214 -0.072 -0.163 -0.191 -0.191
 0.612  1.356  0.214 -0.072 -0.163 -0.190 -0.190
 0.614  1.356  0.214 -0.071 -0.162 -0.190 -0.190
 0.616  1.356  0.214 -0.071 -0.162 -0.189 -0.189
 0.618  1.356  0.214 -0.070 -0.161 -0.188 -0.188
 0.620  1.356  0.214 -0.070 -0.161 -0.188 -0.188
 0.622  1.356  0.214 -0.070 -0.161 -0.187 -0.187
 0.624  1.356  0.215 -0.070 -0.161 -0.186 -0.186
 0.626  1.357  0.215 -0.070 -0.160 -0.185 -0.185
 0.628  1.357  0.215 -0.070 -0.160 -0.184 -0.184
 0.630  1.357  0.214 -0.069 -0.160 -0.184 -0.184
 0.632  1.357  0.214 -0.069 -0.159 -0.183 -0.183
 0.634  1.357  0.214 -0.069 -0.159 -0.182 -0.182
 0.636  1.357  0.214 -0.069 -0.159 -0.181 -0.181
 0.638  1.357  0.214 -0.069 -0.158 -0.180 -0.180
 0.640  1.357  0.214 -0.069 -0.158 -0.179 -0.179
 0.642  1.357  0.214 -0.069 -0.157 -0.179 -0.179
 0.644  1.357  0.213 -0.069 -0.157 -0.178 -0.178
 0.646  1.357  0.213 -0.069 -0.157 -0.177 -0.177
 0.648  1.357  0.213 -0.069 -0.157 -0.176 -0.176
 0.650  1.357  0.213 -0.069 -0.156 -0.175 -0.175
 0.652  1.357  0.213 -0.069 -0.156 -0.174 -0.174
 0.654  1.357  0.213 -0.069 -0.156 -0.173 -0.173
 0.656  1.356  0.213 -0.069 -0.155 -0.172 -0.172
 0.658  1.356  0.213 -0.069 -0.155 -0.172 -0.172
 0.660  1.356  0.213 -0.069 -0.154 -0.170 -0.170
 0.662  1.356  0.213 -0.068 -0.154 -0.170 -0.170
 0.664  1.356  0.213 -0.068 -0.154 -0.168 -0.168
 0.666  1.356  0.213 -0.068 -0.153 -0.168 -0.168
 0.668  1.356  0.213 -0.068 -0.153 -0.166 -0.166
 0.670  1.356  0.213 -0.067 -0.152 -0.165 -0.165
 0.672  1.356  0.214 -0.066 -0.151 -0.164 -0.164
 0.674  1.356  0.214 -0.066 -0.150 -0.163 -0.163
 0.676  1.355  0.214 -0.066 -0.150 -0.162 -0.162
 0.678  1.355  0.215 -0.065 -0.149 -0.161 -0.161
 0.680  1.355  0.215 -0.065 -0.148 -0.159 -0.159
 0.682  1.354  0.215 -0.064 -0.147 -0.158 -0.158
 0.684  1.354  0.215 -0.064 -0.146 -0.157 -0.157
 0.686  1.354  0.216 -0.063 -0.144 -0.155 -0.155
 0.688  1.353  0.216 -0.062 -0.143 -0.154 -0.154
 0.690  1.353  0.217 -0.061 -0.142 -0.153 -0.153
 0.692  1.353  0.218 -0.061 -0.141 -0.152 -0.152
 0.694  1.352  0.218 -0.060 -0.140 -0.150 -0.150
 0.696  1.352  0.219 -0.059 -0.138 -0.148 -0.148
 0.698  1.352  0.220 -0.058 -0.136 -0.147 -0.147
 0.700  1.352  0.220 -0.058 -0.135 -0.145 -0.145
 0.702  1.352  0.221 -0.057 -0.133 -0.144 -0.144
 0.704  1.351  0.222 -0.056 -0.132 -0.142 -0.142
 0.706  1.351  0.223 -0.055 -0.130 -0.140 -0.140
 0.708  1.350  0.224 -0.054 -0.129 -0.139 -0.139
 0.710  1.350  0.224 -0.053 -0.127 -0.137 -0.137
 0.712  1.349  0.225 -0.052 -0.125 -0.135 -0.135
 0.714  1.348  0.226 -0.051 -0.123 -0.133 -0.133
 0.716  1.348  0.227 -0.050 -0.121 -0.131 -0.131
 0.718  1.348  0.228 -0.048 -0.118 -0.129 -0.129
 0.720  1.348  0.229 -0.047 -0.116 -0.127 -0.127
 0.722  1.347  0.230 -0.046 -0.114 -0.125 -0.125
 0.724  1.347  0.231 -0.045 -0.112 -0.123 -0.123
 0.726  1.347  0.233 -0.043 -0.110 -0.121 -0.121
 0.728  1.347  0.234 -0.042 -0.108 -0.119 -0.119
 0.730  1.347  0.235 -0.040 -0.105 -0.117 -0.117
 0.732  1.347  0.237 -0.039 -0.103 -0.115 -0.115
 0.734  1.347  0.238 -0.037 -0.101 -0.112 -0.112
 0.736  1.348  0.240 -0.036 -0.099 -0.110 -0.110
 0.738  1.348  0.242 -0.034 -0.097 -0.108 -0.108
 0.740  1.349  0.243 -0.032 -0.095 -0.106 -0.106
 0.742  1.350  0.245 -0.031 -0.093 -0.104 -0.104
 0.744  1.352  0.247 -0.029 -0.091 -0.102 -0.102
 0.746  1.352  0.249 -0.026 -0.089 -0.100 -0.100
 0.748  1.354  0.251 -0.025 -0.087 -0.098 -0.098
 0.750  1.355  0.253 -0.023 -0.085 -0.096 -0.096
 0.752  1.356  0.255 -0.021 -0.083 -0.095 -0.095
 0.754  1.358  0.257 -0.019 -0.082 -0.093 -0.093
 0.756  1.360  0.259 -0.017 -0.080 -0.092 -0.092
 0.758  1.362  0.262 -0.014 -0.079 -0.090 -0.090
 0.760  1.364  0.264 -0.013 -0.077 -0.089 -0.089
 0.762  1.366  0.266 -0.010 -0.076 -0.088 -0.088
 0.764  1.368  0.268 -0.008 -0.075 -0.087 -0.087
 0.766  1.371  0.271 -0.005 -0.073 -0.086 -0.086
 0.768  1.373  0.274 -0.003 -0.072 -0.085 -0.085
 0.770  1.376  0.276 -0.000 -0.071 -0.084 -0.084
 0.772  1.379  0.280  0.003 -0.070 -0.084 -0.084
 0.774  1.382  0.282  0.005 -0.069 -0.083 -0.083
 0.776  1.386  0.285  0.008 -0.068 -0.083 -0.083
 0.778  1.390  0.289  0.011 -0.068 -0.082 -0.082
 0.780  1.393  0.292  0.014 -0.067 -0.082 -0.082
 0.782  1.397  0.295  0.017 -0.066 -0.081 -0.081
 0.784  1.400  0.299  0.020 -0.065 -0.081 -0.081
 0.786  1.404  0.302  0.022 -0.065 -0.081 -0.081
 0.788  1.408  0.304  0.025 -0.064 -0.081 -0.081
 0.790  1.412  0.308  0.027 -0.064 -0.081 -0.081
 0.792  1.416  0.310  0.030 -0.063 -0.081 -0.081
 0.794  1.419  0.313  0.033 -0.063 -0.081 -0.081
 0.796  1.423  0.315  0.034 -0.062 -0.081 -0.081
 0.798  1.426  0.318  0.037 -0.062 -0.082 -0.082
 0.800  1.429  0.319  0.038 -0.062 -0.083 -0.083
 0.802  1.432  0.321  0.040 -0.062 -0.083 -0.083
 0.804  1.435  0.323  0.042 -0.062 -0.084 -0.084
 0.806  1.439  0.323  0.043 -0.063 -0.084 -0.084
 0.808  1.441  0.324  0.044 -0.063 -0.085 -0.085
