# IsPeriodic    : True
# Period        : 0.587747 days
# Normalization : <g_mag>=0
# 
# Phase u_mag  g_mag  r_mag  i_mag  z_mag  y_mag
 0.000  0.618 -0.561 -0.549 -0.506 -0.456 -0.456
 0.002  0.618 -0.561 -0.549 -0.506 -0.455 -0.455
 0.004  0.619 -0.561 -0.549 -0.505 -0.455 -0.455
 0.006  0.620 -0.560 -0.548 -0.505 -0.455 -0.455
 0.008  0.622 -0.558 -0.547 -0.504 -0.454 -0.454
 0.010  0.623 -0.557 -0.546 -0.503 -0.454 -0.454
 0.012  0.625 -0.556 -0.544 -0.502 -0.453 -0.453
 0.014  0.627 -0.554 -0.543 -0.501 -0.452 -0.452
 0.016  0.629 -0.552 -0.541 -0.500 -0.451 -0.451
 0.018  0.632 -0.550 -0.539 -0.498 -0.451 -0.451
 0.020  0.634 -0.548 -0.537 -0.497 -0.450 -0.450
 0.022  0.637 -0.546 -0.535 -0.496 -0.449 -0.449
 0.024  0.639 -0.544 -0.534 -0.494 -0.447 -0.447
 0.026  0.643 -0.541 -0.532 -0.493 -0.446 -0.446
 0.028  0.645 -0.538 -0.530 -0.492 -0.445 -0.445
 0.030  0.648 -0.535 -0.528 -0.490 -0.445 -0.445
 0.032  0.651 -0.532 -0.526 -0.489 -0.444 -0.444
 0.034  0.654 -0.529 -0.524 -0.487 -0.442 -0.442
 0.036  0.656 -0.526 -0.522 -0.486 -0.441 -0.441
 0.038  0.660 -0.523 -0.520 -0.485 -0.440 -0.440
 0.040  0.663 -0.518 -0.518 -0.484 -0.439 -0.439
 0.042  0.665 -0.515 -0.516 -0.482 -0.438 -0.438
 0.044  0.669 -0.511 -0.514 -0.481 -0.437 -0.437
 0.046  0.672 -0.507 -0.512 -0.480 -0.435 -0.435
 0.048  0.676 -0.502 -0.509 -0.478 -0.434 -0.434
 0.050  0.679 -0.498 -0.507 -0.476 -0.433 -0.433
 0.052  0.682 -0.494 -0.505 -0.475 -0.431 -0.431
 0.054  0.686 -0.488 -0.502 -0.473 -0.430 -0.430
 0.056  0.690 -0.484 -0.500 -0.472 -0.429 -0.429
 0.058  0.694 -0.479 -0.498 -0.470 -0.427 -0.427
 0.060  0.697 -0.474 -0.495 -0.469 -0.425 -0.425
 0.062  0.702 -0.468 -0.492 -0.466 -0.424 -0.424
 0.064  0.706 -0.462 -0.490 -0.465 -0.422 -0.422
 0.066  0.710 -0.457 -0.487 -0.463 -0.421 -0.421
 0.068  0.714 -0.451 -0.484 -0.461 -0.419 -0.419
 0.070  0.718 -0.445 -0.481 -0.460 -0.418 -0.418
 0.072  0.723 -0.440 -0.479 -0.458 -0.416 -0.416
 0.074  0.728 -0.433 -0.476 -0.456 -0.414 -0.414
 0.076  0.732 -0.427 -0.473 -0.454 -0.412 -0.412
 0.078  0.737 -0.421 -0.470 -0.453 -0.411 -0.411
 0.080  0.741 -0.415 -0.467 -0.451 -0.409 -0.409
 0.082  0.745 -0.409 -0.465 -0.449 -0.407 -0.407
 0.084  0.750 -0.403 -0.461 -0.447 -0.405 -0.405
 0.086  0.754 -0.398 -0.459 -0.445 -0.404 -0.404
 0.088  0.759 -0.392 -0.456 -0.443 -0.402 -0.402
 0.090  0.764 -0.386 -0.453 -0.442 -0.401 -0.401
 0.092  0.768 -0.380 -0.450 -0.440 -0.399 -0.399
 0.094  0.772 -0.375 -0.447 -0.438 -0.397 -0.397
 0.096  0.777 -0.370 -0.445 -0.436 -0.396 -0.396
 0.098  0.781 -0.364 -0.442 -0.435 -0.394 -0.394
 0.100  0.785 -0.360 -0.439 -0.433 -0.393 -0.393
 0.102  0.790 -0.355 -0.437 -0.431 -0.391 -0.391
 0.104  0.794 -0.350 -0.433 -0.430 -0.390 -0.390
 0.106  0.799 -0.345 -0.431 -0.428 -0.388 -0.388
 0.108  0.803 -0.340 -0.428 -0.426 -0.387 -0.387
 0.110  0.807 -0.336 -0.426 -0.424 -0.386 -0.386
 0.112  0.811 -0.331 -0.423 -0.422 -0.384 -0.384
 0.114  0.816 -0.327 -0.421 -0.421 -0.383 -0.383
 0.116  0.820 -0.322 -0.418 -0.419 -0.382 -0.382
 0.118  0.824 -0.317 -0.416 -0.418 -0.380 -0.380
 0.120  0.828 -0.314 -0.413 -0.416 -0.379 -0.379
 0.122  0.832 -0.309 -0.410 -0.414 -0.378 -0.378
 0.124  0.836 -0.305 -0.408 -0.412 -0.376 -0.376
 0.126  0.840 -0.301 -0.405 -0.411 -0.376 -0.376
 0.128  0.844 -0.297 -0.403 -0.409 -0.374 -0.374
 0.130  0.848 -0.294 -0.400 -0.408 -0.373 -0.373
 0.132  0.853 -0.290 -0.398 -0.406 -0.372 -0.372
 0.134  0.856 -0.287 -0.395 -0.404 -0.371 -0.371
 0.136  0.860 -0.283 -0.393 -0.403 -0.370 -0.370
 0.138  0.864 -0.280 -0.391 -0.401 -0.369 -0.369
 0.140  0.868 -0.276 -0.388 -0.400 -0.368 -0.368
 0.142  0.872 -0.273 -0.386 -0.398 -0.367 -0.367
 0.144  0.876 -0.269 -0.384 -0.397 -0.366 -0.366
 0.146  0.879 -0.267 -0.381 -0.395 -0.365 -0.365
 0.148  0.884 -0.263 -0.379 -0.393 -0.364 -0.364
 0.150  0.887 -0.260 -0.377 -0.392 -0.363 -0.363
 0.152  0.891 -0.257 -0.374 -0.390 -0.362 -0.362
 0.154  0.895 -0.254 -0.372 -0.389 -0.361 -0.361
 0.156  0.899 -0.250 -0.370 -0.387 -0.360 -0.360
 0.158  0.902 -0.247 -0.368 -0.386 -0.360 -0.360
 0.160  0.905 -0.244 -0.365 -0.384 -0.359 -0.359
 0.162  0.910 -0.240 -0.363 -0.382 -0.357 -0.357
 0.164  0.913 -0.238 -0.361 -0.381 -0.356 -0.356
 0.166  0.916 -0.234 -0.359 -0.379 -0.355 -0.355
 0.168  0.921 -0.231 -0.357 -0.378 -0.355 -0.355
 0.170  0.924 -0.227 -0.354 -0.377 -0.354 -0.354
 0.172  0.927 -0.225 -0.352 -0.375 -0.352 -0.352
 0.174  0.931 -0.221 -0.351 -0.373 -0.351 -0.351
 0.176  0.934 -0.218 -0.348 -0.372 -0.350 -0.350
 0.178  0.938 -0.214 -0.346 -0.370 -0.349 -0.349
 0.180  0.942 -0.211 -0.344 -0.369 -0.348 -0.348
 0.182  0.945 -0.207 -0.342 -0.368 -0.347 -0.347
 0.184  0.948 -0.205 -0.340 -0.366 -0.346 -0.346
 0.186  0.952 -0.201 -0.338 -0.365 -0.344 -0.344
 0.188  0.955 -0.198 -0.336 -0.364 -0.344 -0.344
 0.190  0.958 -0.194 -0.333 -0.362 -0.342 -0.342
 0.192  0.962 -0.191 -0.331 -0.360 -0.341 -0.341
 0.194  0.964 -0.187 -0.329 -0.359 -0.340 -0.340
 0.196  0.968 -0.184 -0.328 -0.358 -0.339 -0.339
 0.198  0.971 -0.180 -0.326 -0.356 -0.338 -0.338
 0.200  0.974 -0.177 -0.324 -0.355 -0.336 -0.336
 0.202  0.978 -0.173 -0.321 -0.354 -0.335 -0.335
 0.204  0.980 -0.170 -0.319 -0.352 -0.334 -0.334
 0.206  0.983 -0.166 -0.317 -0.350 -0.333 -0.333
 0.208  0.987 -0.163 -0.315 -0.349 -0.331 -0.331
 0.210  0.989 -0.159 -0.314 -0.348 -0.330 -0.330
 0.212  0.993 -0.156 -0.312 -0.346 -0.328 -0.328
 0.214  0.996 -0.152 -0.310 -0.345 -0.327 -0.327
 0.216  0.999 -0.149 -0.308 -0.344 -0.326 -0.326
 0.218  1.002 -0.145 -0.306 -0.343 -0.325 -0.325
 0.220  1.004 -0.142 -0.304 -0.341 -0.323 -0.323
 0.222  1.008 -0.138 -0.302 -0.339 -0.322 -0.322
 0.224  1.010 -0.135 -0.300 -0.338 -0.321 -0.321
 0.226  1.014 -0.131 -0.299 -0.337 -0.319 -0.319
 0.228  1.016 -0.128 -0.297 -0.336 -0.318 -0.318
 0.230  1.020 -0.124 -0.295 -0.334 -0.317 -0.317
 0.232  1.022 -0.121 -0.293 -0.333 -0.315 -0.315
 0.234  1.025 -0.117 -0.291 -0.332 -0.314 -0.314
 0.236  1.028 -0.114 -0.289 -0.330 -0.313 -0.313
 0.238  1.030 -0.110 -0.287 -0.329 -0.312 -0.312
 0.240  1.033 -0.108 -0.285 -0.327 -0.310 -0.310
 0.242  1.036 -0.104 -0.284 -0.326 -0.309 -0.309
 0.244  1.039 -0.101 -0.282 -0.325 -0.308 -0.308
 0.246  1.041 -0.098 -0.280 -0.323 -0.307 -0.307
 0.248  1.045 -0.095 -0.278 -0.322 -0.306 -0.306
 0.250  1.047 -0.091 -0.276 -0.320 -0.304 -0.304
 0.252  1.050 -0.088 -0.274 -0.319 -0.303 -0.303
 0.254  1.053 -0.085 -0.272 -0.318 -0.302 -0.302
 0.256  1.056 -0.082 -0.270 -0.316 -0.301 -0.301
 0.258  1.058 -0.079 -0.268 -0.315 -0.300 -0.300
 0.260  1.061 -0.076 -0.266 -0.314 -0.299 -0.299
 0.262  1.064 -0.073 -0.264 -0.312 -0.297 -0.297
 0.264  1.067 -0.070 -0.263 -0.311 -0.297 -0.297
 0.266  1.069 -0.068 -0.261 -0.309 -0.295 -0.295
 0.268  1.072 -0.064 -0.259 -0.308 -0.294 -0.294
 0.270  1.074 -0.061 -0.257 -0.306 -0.293 -0.293
 0.272  1.077 -0.059 -0.255 -0.305 -0.292 -0.292
 0.274  1.080 -0.055 -0.254 -0.304 -0.291 -0.291
 0.276  1.082 -0.053 -0.252 -0.302 -0.290 -0.290
 0.278  1.085 -0.050 -0.250 -0.301 -0.289 -0.289
 0.280  1.088 -0.047 -0.248 -0.299 -0.288 -0.288
 0.282  1.090 -0.045 -0.246 -0.298 -0.287 -0.287
 0.284  1.093 -0.042 -0.244 -0.296 -0.286 -0.286
 0.286  1.095 -0.040 -0.242 -0.295 -0.285 -0.285
 0.288  1.098 -0.037 -0.240 -0.294 -0.284 -0.284
 0.290  1.100 -0.034 -0.238 -0.292 -0.283 -0.283
 0.292  1.103 -0.031 -0.236 -0.291 -0.282 -0.282
 0.294  1.106 -0.028 -0.234 -0.290 -0.281 -0.281
 0.296  1.109 -0.026 -0.233 -0.288 -0.280 -0.280
 0.298  1.111 -0.023 -0.231 -0.286 -0.279 -0.279
 0.300  1.114 -0.021 -0.229 -0.285 -0.278 -0.278
 0.302  1.116 -0.019 -0.227 -0.284 -0.277 -0.277
 0.304  1.119 -0.016 -0.225 -0.282 -0.276 -0.276
 0.306  1.121 -0.013 -0.223 -0.281 -0.275 -0.275
 0.308  1.123 -0.011 -0.222 -0.280 -0.274 -0.274
 0.310  1.125 -0.008 -0.220 -0.278 -0.273 -0.273
 0.312  1.128 -0.006 -0.218 -0.276 -0.272 -0.272
 0.314  1.130 -0.003 -0.216 -0.275 -0.271 -0.271
 0.316  1.133 -0.000 -0.214 -0.274 -0.270 -0.270
 0.318  1.135  0.002 -0.213 -0.273 -0.269 -0.269
 0.320  1.138  0.005 -0.211 -0.271 -0.268 -0.268
 0.322  1.140  0.008 -0.209 -0.270 -0.266 -0.266
 0.324  1.143  0.010 -0.207 -0.269 -0.265 -0.265
 0.326  1.145  0.012 -0.206 -0.267 -0.264 -0.264
 0.328  1.148  0.015 -0.204 -0.266 -0.263 -0.263
 0.330  1.150  0.017 -0.202 -0.264 -0.262 -0.262
 0.332  1.153  0.020 -0.201 -0.263 -0.260 -0.260
 0.334  1.155  0.022 -0.199 -0.262 -0.259 -0.259
 0.336  1.157  0.025 -0.197 -0.261 -0.258 -0.258
 0.338  1.160  0.028 -0.196 -0.259 -0.257 -0.257
 0.340  1.162  0.029 -0.194 -0.258 -0.256 -0.256
 0.342  1.165  0.032 -0.192 -0.256 -0.254 -0.254
 0.344  1.167  0.035 -0.190 -0.255 -0.253 -0.253
 0.346  1.170  0.037 -0.189 -0.254 -0.252 -0.252
 0.348  1.171  0.040 -0.187 -0.253 -0.251 -0.251
 0.350  1.174  0.042 -0.185 -0.251 -0.249 -0.249
 0.352  1.176  0.044 -0.184 -0.250 -0.248 -0.248
 0.354  1.179  0.047 -0.182 -0.249 -0.247 -0.247
 0.356  1.182  0.049 -0.181 -0.248 -0.245 -0.245
 0.358  1.183  0.051 -0.179 -0.246 -0.244 -0.244
 0.360  1.186  0.054 -0.178 -0.245 -0.243 -0.243
 0.362  1.188  0.056 -0.176 -0.244 -0.241 -0.241
 0.364  1.191  0.058 -0.174 -0.243 -0.240 -0.240
 0.366  1.193  0.061 -0.173 -0.241 -0.238 -0.238
 0.368  1.195  0.063 -0.171 -0.240 -0.237 -0.237
 0.370  1.197  0.066 -0.170 -0.239 -0.236 -0.236
 0.372  1.200  0.068 -0.169 -0.238 -0.234 -0.234
 0.374  1.202  0.070 -0.167 -0.237 -0.233 -0.233
 0.376  1.204  0.073 -0.166 -0.235 -0.232 -0.232
 0.378  1.207  0.075 -0.164 -0.234 -0.231 -0.231
 0.380  1.208  0.077 -0.162 -0.233 -0.229 -0.229
 0.382  1.211  0.080 -0.161 -0.231 -0.228 -0.228
 0.384  1.213  0.082 -0.159 -0.230 -0.227 -0.227
 0.386  1.215  0.084 -0.158 -0.229 -0.226 -0.226
 0.388  1.218  0.087 -0.157 -0.228 -0.224 -0.224
 0.390  1.220  0.089 -0.155 -0.227 -0.223 -0.223
 0.392  1.222  0.091 -0.153 -0.225 -0.222 -0.222
 0.394  1.224  0.094 -0.152 -0.224 -0.221 -0.221
 0.396  1.226  0.096 -0.150 -0.223 -0.219 -0.219
 0.398  1.229  0.098 -0.149 -0.221 -0.218 -0.218
 0.400  1.230  0.101 -0.147 -0.220 -0.217 -0.217
 0.402  1.233  0.103 -0.146 -0.219 -0.216 -0.216
 0.404  1.234  0.105 -0.145 -0.218 -0.215 -0.215
 0.406  1.237  0.108 -0.143 -0.216 -0.213 -0.213
 0.408  1.239  0.110 -0.141 -0.215 -0.212 -0.212
 0.410  1.241  0.112 -0.140 -0.214 -0.211 -0.211
 0.412  1.243  0.114 -0.138 -0.212 -0.210 -0.210
 0.414  1.245  0.117 -0.137 -0.211 -0.209 -0.209
 0.416  1.247  0.119 -0.136 -0.210 -0.208 -0.208
 0.418  1.249  0.121 -0.134 -0.209 -0.207 -0.207
 0.420  1.251  0.124 -0.132 -0.207 -0.206 -0.206
 0.422  1.253  0.125 -0.131 -0.206 -0.205 -0.205
 0.424  1.255  0.128 -0.129 -0.204 -0.204 -0.204
 0.426  1.257  0.131 -0.128 -0.203 -0.203 -0.203
 0.428  1.259  0.132 -0.127 -0.202 -0.201 -0.201
 0.430  1.261  0.135 -0.125 -0.201 -0.201 -0.201
 0.432  1.263  0.137 -0.123 -0.200 -0.200 -0.200
 0.434  1.265  0.139 -0.122 -0.198 -0.199 -0.199
 0.436  1.266  0.141 -0.121 -0.197 -0.197 -0.197
 0.438  1.269  0.144 -0.119 -0.196 -0.196 -0.196
 0.440  1.270  0.146 -0.118 -0.195 -0.196 -0.196
 0.442  1.272  0.147 -0.116 -0.193 -0.195 -0.195
 0.444  1.274  0.150 -0.115 -0.192 -0.193 -0.193
 0.446  1.275  0.152 -0.113 -0.191 -0.192 -0.192
 0.448  1.277  0.153 -0.112 -0.189 -0.191 -0.191
 0.450  1.280  0.156 -0.111 -0.188 -0.190 -0.190
 0.452  1.281  0.158 -0.109 -0.187 -0.190 -0.190
 0.454  1.283  0.160 -0.108 -0.186 -0.188 -0.188
 0.456  1.285  0.161 -0.106 -0.185 -0.187 -0.187
 0.458  1.286  0.163 -0.105 -0.183 -0.186 -0.186
 0.460  1.288  0.165 -0.104 -0.182 -0.185 -0.185
 0.462  1.290  0.167 -0.102 -0.181 -0.184 -0.184
 0.464  1.291  0.168 -0.101 -0.180 -0.183 -0.183
 0.466  1.292  0.170 -0.100 -0.179 -0.182 -0.182
 0.468  1.294  0.172 -0.099 -0.178 -0.181 -0.181
 0.470  1.296  0.174 -0.097 -0.177 -0.180 -0.180
 0.472  1.297  0.175 -0.096 -0.176 -0.179 -0.179
 0.474  1.299  0.176 -0.095 -0.175 -0.178 -0.178
 0.476  1.301  0.178 -0.093 -0.174 -0.177 -0.177
 0.478  1.302  0.180 -0.092 -0.172 -0.176 -0.176
 0.480  1.303  0.180 -0.091 -0.172 -0.175 -0.175
 0.482  1.305  0.182 -0.090 -0.171 -0.174 -0.174
 0.484  1.306  0.184 -0.088 -0.170 -0.173 -0.173
 0.486  1.307  0.185 -0.087 -0.169 -0.172 -0.172
 0.488  1.309  0.187 -0.086 -0.168 -0.170 -0.170
 0.490  1.310  0.187 -0.085 -0.167 -0.169 -0.169
 0.492  1.312  0.189 -0.083 -0.166 -0.169 -0.169
 0.494  1.312  0.190 -0.083 -0.165 -0.167 -0.167
 0.496  1.314  0.192 -0.081 -0.164 -0.166 -0.166
 0.498  1.315  0.193 -0.080 -0.163 -0.165 -0.165
 0.500  1.317  0.194 -0.079 -0.162 -0.164 -0.164
 0.502  1.317  0.194 -0.078 -0.161 -0.163 -0.163
 0.504  1.319  0.196 -0.077 -0.160 -0.162 -0.162
 0.506  1.320  0.197 -0.076 -0.160 -0.161 -0.161
 0.508  1.321  0.198 -0.074 -0.159 -0.160 -0.160
 0.510  1.322  0.199 -0.073 -0.158 -0.159 -0.159
 0.512  1.323  0.200 -0.072 -0.157 -0.158 -0.158
 0.514  1.324  0.201 -0.071 -0.156 -0.157 -0.157
 0.516  1.326  0.202 -0.070 -0.155 -0.156 -0.156
 0.518  1.327  0.203 -0.069 -0.155 -0.155 -0.155
 0.520  1.328  0.204 -0.068 -0.154 -0.154 -0.154
 0.522  1.328  0.205 -0.067 -0.153 -0.153 -0.153
 0.524  1.329  0.206 -0.066 -0.152 -0.152 -0.152
 0.526  1.331  0.207 -0.065 -0.151 -0.151 -0.151
 0.528  1.332  0.208 -0.064 -0.150 -0.150 -0.150
 0.530  1.333  0.208 -0.064 -0.149 -0.149 -0.149
 0.532  1.333  0.209 -0.062 -0.149 -0.148 -0.148
 0.534  1.334  0.210 -0.062 -0.148 -0.148 -0.148
 0.536  1.335  0.211 -0.060 -0.147 -0.147 -0.147
 0.538  1.336  0.211 -0.060 -0.146 -0.146 -0.146
 0.540  1.337  0.212 -0.059 -0.145 -0.145 -0.145
 0.542  1.338  0.213 -0.058 -0.145 -0.144 -0.144
 0.544  1.338  0.214 -0.057 -0.144 -0.143 -0.143
 0.546  1.338  0.215 -0.057 -0.143 -0.143 -0.143
 0.548  1.339  0.215 -0.055 -0.142 -0.142 -0.142
 0.550  1.340  0.215 -0.055 -0.141 -0.141 -0.141
 0.552  1.341  0.216 -0.054 -0.140 -0.140 -0.140
 0.554  1.341  0.216 -0.053 -0.139 -0.140 -0.140
 0.556  1.342  0.217 -0.053 -0.139 -0.139 -0.139
 0.558  1.343  0.218 -0.052 -0.138 -0.138 -0.138
 0.560  1.343  0.218 -0.051 -0.137 -0.138 -0.138
 0.562  1.343  0.219 -0.050 -0.136 -0.137 -0.137
 0.564  1.344  0.219 -0.049 -0.135 -0.137 -0.137
 0.566  1.344  0.220 -0.049 -0.135 -0.136 -0.136
 0.568  1.345  0.220 -0.048 -0.134 -0.135 -0.135
 0.570  1.345  0.221 -0.048 -0.133 -0.135 -0.135
 0.572  1.346  0.221 -0.047 -0.132 -0.134 -0.134
 0.574  1.346  0.222 -0.046 -0.132 -0.133 -0.133
 0.576  1.347  0.222 -0.046 -0.130 -0.133 -0.133
 0.578  1.347  0.222 -0.046 -0.130 -0.132 -0.132
 0.580  1.348  0.222 -0.045 -0.129 -0.132 -0.132
 0.582  1.348  0.222 -0.044 -0.128 -0.132 -0.132
 0.584  1.348  0.223 -0.044 -0.127 -0.131 -0.131
 0.586  1.348  0.223 -0.043 -0.127 -0.130 -0.130
 0.588  1.348  0.223 -0.043 -0.126 -0.130 -0.130
 0.590  1.348  0.224 -0.042 -0.125 -0.129 -0.129
 0.592  1.349  0.224 -0.042 -0.125 -0.129 -0.129
 0.594  1.349  0.224 -0.042 -0.124 -0.128 -0.128
 0.596  1.349  0.225 -0.041 -0.123 -0.128 -0.128
 0.598  1.349  0.225 -0.041 -0.123 -0.127 -0.127
 0.600  1.349  0.225 -0.041 -0.122 -0.127 -0.127
 0.602  1.349  0.225 -0.041 -0.122 -0.126 -0.126
 0.604  1.350  0.226 -0.040 -0.121 -0.126 -0.126
 0.606  1.350  0.226 -0.040 -0.120 -0.125 -0.125
 0.608  1.350  0.226 -0.039 -0.120 -0.124 -0.124
 0.610  1.350  0.226 -0.039 -0.119 -0.124 -0.124
 0.612  1.350  0.226 -0.039 -0.119 -0.123 -0.123
 0.614  1.350  0.227 -0.039 -0.118 -0.122 -0.122
 0.616  1.350  0.227 -0.039 -0.118 -0.122 -0.122
 0.618  1.350  0.227 -0.039 -0.117 -0.121 -0.121
 0.620  1.350  0.227 -0.038 -0.117 -0.121 -0.121
 0.622  1.350  0.227 -0.038 -0.117 -0.120 -0.120
 0.624  1.350  0.227 -0.038 -0.116 -0.120 -0.120
 0.626  1.350  0.227 -0.038 -0.116 -0.119 -0.119
 0.628  1.349  0.227 -0.038 -0.116 -0.118 -0.118
 0.630  1.349  0.227 -0.038 -0.115 -0.118 -0.118
 0.632  1.349  0.227 -0.038 -0.115 -0.117 -0.117
 0.634  1.349  0.227 -0.038 -0.115 -0.117 -0.117
 0.636  1.349  0.227 -0.038 -0.115 -0.116 -0.116
 0.638  1.348  0.227 -0.038 -0.115 -0.116 -0.116
 0.640  1.348  0.227 -0.038 -0.115 -0.115 -0.115
 0.642  1.348  0.227 -0.038 -0.114 -0.114 -0.114
 0.644  1.348  0.227 -0.038 -0.114 -0.114 -0.114
 0.646  1.348  0.227 -0.038 -0.114 -0.113 -0.113
 0.648  1.348  0.227 -0.039 -0.114 -0.112 -0.112
 0.650  1.347  0.227 -0.039 -0.114 -0.112 -0.112
 0.652  1.347  0.227 -0.039 -0.114 -0.111 -0.111
 0.654  1.347  0.227 -0.039 -0.113 -0.111 -0.111
 0.656  1.346  0.226 -0.039 -0.113 -0.110 -0.110
 0.658  1.346  0.226 -0.039 -0.113 -0.110 -0.110
 0.660  1.346  0.226 -0.039 -0.113 -0.109 -0.109
 0.662  1.346  0.225 -0.039 -0.113 -0.108 -0.108
 0.664  1.345  0.225 -0.039 -0.112 -0.108 -0.108
 0.666  1.345  0.224 -0.039 -0.112 -0.107 -0.107
 0.668  1.345  0.224 -0.039 -0.112 -0.107 -0.107
 0.670  1.345  0.223 -0.038 -0.111 -0.106 -0.106
 0.672  1.345  0.223 -0.038 -0.111 -0.105 -0.105
 0.674  1.344  0.222 -0.038 -0.110 -0.105 -0.105
 0.676  1.344  0.222 -0.038 -0.109 -0.105 -0.105
 0.678  1.344  0.222 -0.037 -0.109 -0.104 -0.104
 0.680  1.344  0.221 -0.037 -0.108 -0.104 -0.104
 0.682  1.344  0.220 -0.037 -0.108 -0.103 -0.103
 0.684  1.344  0.220 -0.037 -0.107 -0.103 -0.103
 0.686  1.344  0.219 -0.036 -0.106 -0.102 -0.102
 0.688  1.344  0.218 -0.035 -0.106 -0.102 -0.102
 0.690  1.344  0.217 -0.035 -0.105 -0.101 -0.101
 0.692  1.344  0.216 -0.035 -0.104 -0.101 -0.101
 0.694  1.344  0.215 -0.034 -0.103 -0.100 -0.100
 0.696  1.345  0.215 -0.034 -0.102 -0.100 -0.100
 0.698  1.345  0.214 -0.033 -0.102 -0.100 -0.100
 0.700  1.345  0.213 -0.032 -0.101 -0.099 -0.099
 0.702  1.345  0.211 -0.032 -0.100 -0.099 -0.099
 0.704  1.345  0.210 -0.031 -0.098 -0.098 -0.098
 0.706  1.346  0.209 -0.030 -0.097 -0.098 -0.098
 0.708  1.346  0.208 -0.030 -0.096 -0.097 -0.097
 0.710  1.346  0.207 -0.029 -0.095 -0.097 -0.097
 0.712  1.346  0.206 -0.028 -0.094 -0.097 -0.097
 0.714  1.346  0.205 -0.028 -0.093 -0.096 -0.096
 0.716  1.347  0.203 -0.027 -0.092 -0.096 -0.096
 0.718  1.347  0.202 -0.026 -0.091 -0.095 -0.095
 0.720  1.347  0.201 -0.025 -0.090 -0.095 -0.095
 0.722  1.348  0.201 -0.024 -0.088 -0.095 -0.095
 0.724  1.348  0.200 -0.023 -0.087 -0.094 -0.094
 0.726  1.348  0.199 -0.022 -0.085 -0.094 -0.094
 0.728  1.349  0.198 -0.021 -0.084 -0.093 -0.093
 0.730  1.350  0.197 -0.020 -0.082 -0.092 -0.092
 0.732  1.351  0.197 -0.018 -0.081 -0.091 -0.091
 0.734  1.352  0.196 -0.017 -0.079 -0.090 -0.090
 0.736  1.354  0.196 -0.016 -0.077 -0.089 -0.089
 0.738  1.354  0.196 -0.014 -0.075 -0.088 -0.088
 0.740  1.356  0.196 -0.012 -0.074 -0.086 -0.086
 0.742  1.358  0.196 -0.011 -0.072 -0.085 -0.085
 0.744  1.359  0.197 -0.009 -0.070 -0.084 -0.084
 0.746  1.360  0.197 -0.007 -0.067 -0.082 -0.082
 0.748  1.363  0.198 -0.005 -0.065 -0.080 -0.080
 0.750  1.364  0.198 -0.003 -0.063 -0.079 -0.079
 0.752  1.366  0.199 -0.001 -0.061 -0.077 -0.077
 0.754  1.368  0.200  0.002 -0.059 -0.075 -0.075
 0.756  1.370  0.201  0.003 -0.057 -0.073 -0.073
 0.758  1.372  0.201  0.006 -0.054 -0.071 -0.071
 0.760  1.375  0.202  0.008 -0.052 -0.069 -0.069
 0.762  1.377  0.204  0.010 -0.050 -0.067 -0.067
 0.764  1.380  0.205  0.013 -0.048 -0.065 -0.065
 0.766  1.382  0.207  0.016 -0.045 -0.062 -0.062
 0.768  1.385  0.208  0.018 -0.042 -0.060 -0.060
 0.770  1.388  0.209  0.021 -0.039 -0.057 -0.057
 0.772  1.391  0.212  0.024 -0.037 -0.054 -0.054
 0.774  1.395  0.214  0.028 -0.033 -0.052 -0.052
 0.776  1.398  0.215  0.031 -0.030 -0.048 -0.048
 0.778  1.401  0.218  0.034 -0.027 -0.045 -0.045
 0.780  1.406  0.220  0.037 -0.024 -0.042 -0.042
 0.782  1.409  0.222  0.040 -0.021 -0.039 -0.039
 0.784  1.413  0.225  0.044 -0.018 -0.036 -0.036
 0.786  1.416  0.227  0.047 -0.014 -0.032 -0.032
 0.788  1.421  0.229  0.051 -0.011 -0.029 -0.029
 0.790  1.424  0.232  0.054 -0.008 -0.026 -0.026
 0.792  1.427  0.235  0.058 -0.005 -0.023 -0.023
 0.794  1.432  0.237  0.061 -0.002 -0.020 -0.020
 0.796  1.435  0.240  0.064  0.001 -0.017 -0.017
 0.798  1.438  0.242  0.067  0.003 -0.014 -0.014
 0.800  1.441  0.245  0.070  0.006 -0.012 -0.012
 0.802  1.444  0.248  0.073  0.008 -0.010 -0.010
 0.804  1.447  0.250  0.076  0.010 -0.007 -0.007
 0.806  1.449  0.252  0.078  0.012 -0.005 -0.005
 0.808  1.451  0.255  0.080  0.014 -0.004 -0.004
