# IsPeriodic    : True
# Period        : 0.549936 days
# Normalization : <g_mag>=0
# 
# Phase u_mag  g_mag  r_mag  i_mag  z_mag  y_mag
 0.000  0.395 -0.791 -0.678 -0.572 -0.518 -0.518
 0.002  0.395 -0.790 -0.678 -0.572 -0.518 -0.518
 0.004  0.395 -0.789 -0.677 -0.572 -0.518 -0.518
 0.006  0.397 -0.786 -0.675 -0.571 -0.517 -0.517
 0.008  0.398 -0.784 -0.672 -0.571 -0.517 -0.517
 0.010  0.400 -0.781 -0.669 -0.570 -0.515 -0.515
 0.012  0.401 -0.776 -0.666 -0.569 -0.515 -0.515
 0.014  0.403 -0.770 -0.662 -0.567 -0.513 -0.513
 0.016  0.405 -0.764 -0.658 -0.566 -0.512 -0.512
 0.018  0.409 -0.758 -0.654 -0.564 -0.511 -0.511
 0.020  0.412 -0.753 -0.649 -0.562 -0.509 -0.509
 0.022  0.414 -0.747 -0.645 -0.560 -0.508 -0.508
 0.024  0.418 -0.740 -0.640 -0.559 -0.507 -0.507
 0.026  0.422 -0.734 -0.636 -0.557 -0.505 -0.505
 0.028  0.425 -0.727 -0.631 -0.555 -0.504 -0.504
 0.030  0.429 -0.721 -0.627 -0.553 -0.502 -0.502
 0.032  0.433 -0.715 -0.623 -0.551 -0.500 -0.500
 0.034  0.438 -0.710 -0.619 -0.549 -0.498 -0.498
 0.036  0.442 -0.704 -0.615 -0.547 -0.497 -0.497
 0.038  0.446 -0.698 -0.611 -0.545 -0.495 -0.495
 0.040  0.451 -0.692 -0.607 -0.543 -0.493 -0.493
 0.042  0.456 -0.686 -0.604 -0.540 -0.491 -0.491
 0.044  0.462 -0.680 -0.600 -0.538 -0.489 -0.489
 0.046  0.468 -0.675 -0.595 -0.535 -0.487 -0.487
 0.048  0.473 -0.669 -0.591 -0.533 -0.485 -0.485
 0.050  0.479 -0.662 -0.587 -0.530 -0.483 -0.483
 0.052  0.485 -0.656 -0.583 -0.527 -0.481 -0.481
 0.054  0.492 -0.649 -0.578 -0.525 -0.478 -0.478
 0.056  0.499 -0.642 -0.574 -0.522 -0.476 -0.476
 0.058  0.505 -0.636 -0.570 -0.519 -0.473 -0.473
 0.060  0.512 -0.629 -0.565 -0.516 -0.470 -0.470
 0.062  0.520 -0.622 -0.561 -0.513 -0.468 -0.468
 0.064  0.528 -0.615 -0.557 -0.509 -0.465 -0.465
 0.066  0.534 -0.608 -0.552 -0.506 -0.462 -0.462
 0.068  0.543 -0.601 -0.548 -0.502 -0.459 -0.459
 0.070  0.551 -0.594 -0.544 -0.499 -0.457 -0.457
 0.072  0.559 -0.587 -0.540 -0.495 -0.454 -0.454
 0.074  0.568 -0.580 -0.536 -0.492 -0.451 -0.451
 0.076  0.575 -0.573 -0.531 -0.488 -0.448 -0.448
 0.078  0.584 -0.566 -0.527 -0.485 -0.445 -0.445
 0.080  0.592 -0.559 -0.523 -0.481 -0.442 -0.442
 0.082  0.601 -0.552 -0.518 -0.477 -0.439 -0.439
 0.084  0.609 -0.545 -0.514 -0.474 -0.436 -0.436
 0.086  0.616 -0.538 -0.510 -0.471 -0.434 -0.434
 0.088  0.624 -0.531 -0.506 -0.467 -0.431 -0.431
 0.090  0.632 -0.524 -0.501 -0.463 -0.428 -0.428
 0.092  0.640 -0.517 -0.497 -0.461 -0.425 -0.425
 0.094  0.647 -0.511 -0.493 -0.457 -0.423 -0.423
 0.096  0.654 -0.504 -0.489 -0.454 -0.420 -0.420
 0.098  0.662 -0.497 -0.485 -0.451 -0.418 -0.418
 0.100  0.669 -0.490 -0.481 -0.448 -0.415 -0.415
 0.102  0.675 -0.485 -0.477 -0.444 -0.413 -0.413
 0.104  0.682 -0.478 -0.473 -0.442 -0.410 -0.410
 0.106  0.689 -0.471 -0.469 -0.439 -0.408 -0.408
 0.108  0.695 -0.465 -0.464 -0.436 -0.406 -0.406
 0.110  0.702 -0.459 -0.460 -0.433 -0.404 -0.404
 0.112  0.709 -0.452 -0.457 -0.430 -0.401 -0.401
 0.114  0.714 -0.446 -0.453 -0.428 -0.399 -0.399
 0.116  0.721 -0.440 -0.449 -0.425 -0.397 -0.397
 0.118  0.726 -0.435 -0.445 -0.422 -0.395 -0.395
 0.120  0.733 -0.429 -0.442 -0.420 -0.393 -0.393
 0.122  0.739 -0.423 -0.437 -0.417 -0.391 -0.391
 0.124  0.744 -0.417 -0.433 -0.415 -0.389 -0.389
 0.126  0.750 -0.411 -0.430 -0.413 -0.387 -0.387
 0.128  0.755 -0.405 -0.426 -0.410 -0.385 -0.385
 0.130  0.761 -0.400 -0.423 -0.408 -0.383 -0.383
 0.132  0.765 -0.394 -0.419 -0.406 -0.382 -0.382
 0.134  0.771 -0.389 -0.415 -0.404 -0.380 -0.380
 0.136  0.775 -0.383 -0.411 -0.402 -0.378 -0.378
 0.138  0.781 -0.377 -0.408 -0.400 -0.376 -0.376
 0.140  0.785 -0.373 -0.405 -0.398 -0.375 -0.375
 0.142  0.790 -0.367 -0.401 -0.396 -0.373 -0.373
 0.144  0.794 -0.362 -0.397 -0.394 -0.372 -0.372
 0.146  0.798 -0.356 -0.393 -0.393 -0.370 -0.370
 0.148  0.803 -0.352 -0.390 -0.391 -0.368 -0.368
 0.150  0.807 -0.347 -0.387 -0.388 -0.367 -0.367
 0.152  0.812 -0.342 -0.383 -0.386 -0.365 -0.365
 0.154  0.816 -0.337 -0.380 -0.385 -0.364 -0.364
 0.156  0.821 -0.332 -0.376 -0.383 -0.362 -0.362
 0.158  0.825 -0.327 -0.373 -0.382 -0.361 -0.361
 0.160  0.830 -0.323 -0.369 -0.380 -0.359 -0.359
 0.162  0.833 -0.318 -0.366 -0.378 -0.358 -0.358
 0.164  0.837 -0.313 -0.363 -0.376 -0.356 -0.356
 0.166  0.842 -0.309 -0.360 -0.374 -0.355 -0.355
 0.168  0.846 -0.304 -0.356 -0.373 -0.353 -0.353
 0.170  0.851 -0.299 -0.353 -0.371 -0.351 -0.351
 0.172  0.855 -0.295 -0.350 -0.369 -0.350 -0.350
 0.174  0.860 -0.289 -0.347 -0.367 -0.348 -0.348
 0.176  0.863 -0.284 -0.344 -0.366 -0.346 -0.346
 0.178  0.867 -0.280 -0.341 -0.364 -0.345 -0.345
 0.180  0.872 -0.275 -0.338 -0.362 -0.343 -0.343
 0.182  0.876 -0.270 -0.334 -0.359 -0.342 -0.342
 0.184  0.881 -0.266 -0.331 -0.358 -0.340 -0.340
 0.186  0.885 -0.261 -0.329 -0.356 -0.338 -0.338
 0.188  0.890 -0.256 -0.325 -0.354 -0.337 -0.337
 0.190  0.893 -0.252 -0.322 -0.352 -0.335 -0.335
 0.192  0.897 -0.247 -0.320 -0.351 -0.333 -0.333
 0.194  0.902 -0.242 -0.316 -0.349 -0.331 -0.331
 0.196  0.906 -0.238 -0.313 -0.347 -0.329 -0.329
 0.198  0.911 -0.233 -0.311 -0.345 -0.328 -0.328
 0.200  0.915 -0.228 -0.307 -0.343 -0.326 -0.326
 0.202  0.918 -0.224 -0.305 -0.341 -0.324 -0.324
 0.204  0.923 -0.219 -0.302 -0.339 -0.323 -0.323
 0.206  0.927 -0.214 -0.299 -0.337 -0.321 -0.321
 0.208  0.932 -0.210 -0.297 -0.335 -0.319 -0.319
 0.210  0.935 -0.205 -0.293 -0.334 -0.317 -0.317
 0.212  0.940 -0.200 -0.291 -0.332 -0.315 -0.315
 0.214  0.944 -0.197 -0.288 -0.330 -0.313 -0.313
 0.216  0.948 -0.192 -0.285 -0.328 -0.312 -0.312
 0.218  0.953 -0.188 -0.283 -0.326 -0.310 -0.310
 0.220  0.956 -0.183 -0.280 -0.324 -0.308 -0.308
 0.222  0.961 -0.178 -0.277 -0.322 -0.306 -0.306
 0.224  0.965 -0.174 -0.274 -0.320 -0.304 -0.304
 0.226  0.968 -0.169 -0.272 -0.318 -0.302 -0.302
 0.228  0.973 -0.164 -0.270 -0.316 -0.301 -0.301
 0.230  0.977 -0.161 -0.267 -0.314 -0.299 -0.299
 0.232  0.981 -0.156 -0.265 -0.312 -0.297 -0.297
 0.234  0.985 -0.151 -0.262 -0.310 -0.295 -0.295
 0.236  0.988 -0.147 -0.260 -0.309 -0.293 -0.293
 0.238  0.993 -0.143 -0.257 -0.307 -0.292 -0.292
 0.240  0.996 -0.139 -0.255 -0.305 -0.290 -0.290
 0.242  1.001 -0.134 -0.252 -0.303 -0.288 -0.288
 0.244  1.004 -0.130 -0.250 -0.302 -0.287 -0.287
 0.246  1.007 -0.126 -0.247 -0.299 -0.285 -0.285
 0.248  1.012 -0.122 -0.245 -0.297 -0.283 -0.283
 0.250  1.015 -0.118 -0.243 -0.295 -0.282 -0.282
 0.252  1.018 -0.113 -0.240 -0.294 -0.280 -0.280
 0.254  1.023 -0.109 -0.238 -0.292 -0.278 -0.278
 0.256  1.026 -0.106 -0.235 -0.290 -0.276 -0.276
 0.258  1.029 -0.101 -0.234 -0.289 -0.275 -0.275
 0.260  1.033 -0.098 -0.231 -0.287 -0.273 -0.273
 0.262  1.036 -0.093 -0.229 -0.285 -0.271 -0.271
 0.264  1.041 -0.090 -0.226 -0.283 -0.270 -0.270
 0.266  1.044 -0.086 -0.224 -0.281 -0.268 -0.268
 0.268  1.047 -0.083 -0.222 -0.279 -0.267 -0.267
 0.270  1.051 -0.078 -0.220 -0.278 -0.265 -0.265
 0.272  1.054 -0.074 -0.217 -0.276 -0.263 -0.263
 0.274  1.057 -0.071 -0.216 -0.274 -0.262 -0.262
 0.276  1.061 -0.067 -0.213 -0.273 -0.260 -0.260
 0.278  1.064 -0.064 -0.211 -0.270 -0.259 -0.259
 0.280  1.067 -0.060 -0.209 -0.268 -0.257 -0.257
 0.282  1.071 -0.056 -0.207 -0.267 -0.256 -0.256
 0.284  1.073 -0.052 -0.205 -0.265 -0.254 -0.254
 0.286  1.076 -0.049 -0.202 -0.264 -0.252 -0.252
 0.288  1.079 -0.045 -0.201 -0.262 -0.251 -0.251
 0.290  1.083 -0.042 -0.198 -0.260 -0.249 -0.249
 0.292  1.086 -0.040 -0.197 -0.258 -0.248 -0.248
 0.294  1.089 -0.036 -0.194 -0.256 -0.246 -0.246
 0.296  1.092 -0.033 -0.193 -0.255 -0.245 -0.245
 0.298  1.095 -0.029 -0.191 -0.253 -0.244 -0.244
 0.300  1.098 -0.026 -0.189 -0.252 -0.242 -0.242
 0.302  1.102 -0.022 -0.187 -0.250 -0.241 -0.241
 0.304  1.104 -0.019 -0.184 -0.248 -0.239 -0.239
 0.306  1.107 -0.015 -0.183 -0.246 -0.238 -0.238
 0.308  1.111 -0.013 -0.180 -0.244 -0.237 -0.237
 0.310  1.114 -0.009 -0.179 -0.243 -0.235 -0.235
 0.312  1.116 -0.006 -0.176 -0.241 -0.234 -0.234
 0.314  1.119 -0.002 -0.175 -0.239 -0.232 -0.232
 0.316  1.123  0.001 -0.172 -0.237 -0.231 -0.231
 0.318  1.126  0.005 -0.170 -0.236 -0.229 -0.229
 0.320  1.128  0.007 -0.168 -0.234 -0.227 -0.227
 0.322  1.132  0.011 -0.166 -0.232 -0.226 -0.226
 0.324  1.135  0.014 -0.164 -0.231 -0.225 -0.225
 0.326  1.137  0.018 -0.162 -0.229 -0.223 -0.223
 0.328  1.140  0.021 -0.160 -0.227 -0.222 -0.222
 0.330  1.144  0.023 -0.158 -0.225 -0.221 -0.221
 0.332  1.147  0.027 -0.156 -0.223 -0.219 -0.219
 0.334  1.149  0.030 -0.153 -0.222 -0.218 -0.218
 0.336  1.153  0.034 -0.152 -0.220 -0.217 -0.217
 0.338  1.156  0.037 -0.149 -0.218 -0.215 -0.215
 0.340  1.158  0.040 -0.148 -0.217 -0.213 -0.213
 0.342  1.162  0.043 -0.145 -0.215 -0.212 -0.212
 0.344  1.164  0.047 -0.143 -0.213 -0.211 -0.211
 0.346  1.167  0.050 -0.141 -0.211 -0.210 -0.210
 0.348  1.170  0.053 -0.139 -0.209 -0.208 -0.208
 0.350  1.173  0.056 -0.137 -0.208 -0.207 -0.207
 0.352  1.176  0.060 -0.134 -0.206 -0.206 -0.206
 0.354  1.179  0.063 -0.132 -0.204 -0.204 -0.204
 0.356  1.182  0.065 -0.130 -0.202 -0.202 -0.202
 0.358  1.185  0.069 -0.128 -0.200 -0.201 -0.201
 0.360  1.187  0.072 -0.125 -0.198 -0.200 -0.200
 0.362  1.190  0.075 -0.123 -0.197 -0.199 -0.199
 0.364  1.194  0.078 -0.121 -0.195 -0.198 -0.198
 0.366  1.196  0.082 -0.119 -0.194 -0.196 -0.196
 0.368  1.199  0.085 -0.116 -0.192 -0.195 -0.195
 0.370  1.202  0.087 -0.115 -0.190 -0.193 -0.193
 0.372  1.205  0.091 -0.112 -0.188 -0.192 -0.192
 0.374  1.207  0.094 -0.110 -0.186 -0.190 -0.190
 0.376  1.210  0.097 -0.107 -0.184 -0.189 -0.189
 0.378  1.213  0.100 -0.106 -0.183 -0.188 -0.188
 0.380  1.216  0.104 -0.103 -0.181 -0.186 -0.186
 0.382  1.218  0.107 -0.101 -0.179 -0.185 -0.185
 0.384  1.222  0.110 -0.099 -0.177 -0.184 -0.184
 0.386  1.224  0.113 -0.097 -0.175 -0.182 -0.182
 0.388  1.227  0.117 -0.094 -0.173 -0.181 -0.181
 0.390  1.229  0.120 -0.093 -0.172 -0.179 -0.179
 0.392  1.233  0.122 -0.090 -0.170 -0.177 -0.177
 0.394  1.235  0.126 -0.088 -0.168 -0.176 -0.176
 0.396  1.238  0.129 -0.086 -0.167 -0.174 -0.174
 0.398  1.240  0.133 -0.084 -0.165 -0.173 -0.173
 0.400  1.244  0.135 -0.081 -0.163 -0.171 -0.171
 0.402  1.246  0.139 -0.080 -0.161 -0.170 -0.170
 0.404  1.249  0.142 -0.077 -0.159 -0.168 -0.168
 0.406  1.252  0.146 -0.075 -0.157 -0.167 -0.167
 0.408  1.254  0.149 -0.073 -0.156 -0.165 -0.165
 0.410  1.257  0.152 -0.071 -0.154 -0.164 -0.164
 0.412  1.259  0.155 -0.069 -0.152 -0.162 -0.162
 0.414  1.262  0.159 -0.067 -0.150 -0.161 -0.161
 0.416  1.265  0.162 -0.064 -0.148 -0.159 -0.159
 0.418  1.267  0.166 -0.062 -0.146 -0.157 -0.157
 0.420  1.270  0.168 -0.060 -0.145 -0.156 -0.156
 0.422  1.273  0.171 -0.058 -0.143 -0.154 -0.154
 0.424  1.275  0.175 -0.056 -0.141 -0.153 -0.153
 0.426  1.278  0.178 -0.053 -0.140 -0.151 -0.151
 0.428  1.280  0.182 -0.052 -0.138 -0.149 -0.149
 0.430  1.283  0.185 -0.049 -0.136 -0.148 -0.148
 0.432  1.285  0.188 -0.048 -0.134 -0.146 -0.146
 0.434  1.288  0.191 -0.045 -0.132 -0.145 -0.145
 0.436  1.290  0.195 -0.043 -0.130 -0.143 -0.143
 0.438  1.293  0.198 -0.041 -0.129 -0.141 -0.141
 0.440  1.295  0.202 -0.039 -0.127 -0.140 -0.140
 0.442  1.298  0.205 -0.037 -0.126 -0.138 -0.138
 0.444  1.300  0.208 -0.035 -0.123 -0.137 -0.137
 0.446  1.303  0.211 -0.033 -0.122 -0.135 -0.135
 0.448  1.305  0.215 -0.031 -0.120 -0.134 -0.134
 0.450  1.307  0.217 -0.029 -0.119 -0.132 -0.132
 0.452  1.309  0.220 -0.027 -0.117 -0.131 -0.131
 0.454  1.311  0.223 -0.026 -0.115 -0.129 -0.129
 0.456  1.314  0.225 -0.023 -0.114 -0.128 -0.128
 0.458  1.316  0.228 -0.021 -0.113 -0.126 -0.126
 0.460  1.318  0.231 -0.020 -0.111 -0.125 -0.125
 0.462  1.320  0.233 -0.018 -0.110 -0.124 -0.124
 0.464  1.323  0.235 -0.016 -0.108 -0.123 -0.123
 0.466  1.325  0.238 -0.014 -0.107 -0.121 -0.121
 0.468  1.327  0.240 -0.012 -0.105 -0.120 -0.120
 0.470  1.329  0.242 -0.011 -0.104 -0.118 -0.118
 0.472  1.331  0.245 -0.009 -0.103 -0.117 -0.117
 0.474  1.334  0.247 -0.008 -0.101 -0.116 -0.116
 0.476  1.336  0.249 -0.006 -0.101 -0.115 -0.115
 0.478  1.337  0.252 -0.004 -0.099 -0.113 -0.113
 0.480  1.339  0.253 -0.003 -0.098 -0.112 -0.112
 0.482  1.341  0.255 -0.001 -0.097 -0.110 -0.110
 0.484  1.344  0.258 -0.000 -0.095 -0.109 -0.109
 0.486  1.345  0.259  0.001 -0.094 -0.108 -0.108
 0.488  1.347  0.261  0.003 -0.093 -0.107 -0.107
 0.490  1.349  0.262  0.005 -0.092 -0.106 -0.106
 0.492  1.350  0.263  0.006 -0.091 -0.105 -0.105
 0.494  1.353  0.266  0.007 -0.090 -0.104 -0.104
 0.496  1.355  0.267  0.009 -0.089 -0.102 -0.102
 0.498  1.356  0.268  0.010 -0.088 -0.101 -0.101
 0.500  1.358  0.269  0.011 -0.087 -0.100 -0.100
 0.502  1.359  0.270  0.013 -0.086 -0.099 -0.099
 0.504  1.361  0.272  0.014 -0.085 -0.098 -0.098
 0.506  1.363  0.273  0.015 -0.084 -0.097 -0.097
 0.508  1.365  0.274  0.016 -0.083 -0.096 -0.096
 0.510  1.366  0.275  0.018 -0.082 -0.095 -0.095
 0.512  1.368  0.276  0.019 -0.081 -0.094 -0.094
 0.514  1.369  0.277  0.019 -0.080 -0.093 -0.093
 0.516  1.370  0.277  0.021 -0.080 -0.091 -0.091
 0.518  1.371  0.279  0.022 -0.078 -0.091 -0.091
 0.520  1.374  0.280  0.023 -0.078 -0.090 -0.090
 0.522  1.375  0.280  0.024 -0.077 -0.088 -0.088
 0.524  1.376  0.281  0.025 -0.076 -0.088 -0.088
 0.526  1.377  0.282  0.026 -0.076 -0.087 -0.087
 0.528  1.378  0.283  0.027 -0.074 -0.086 -0.086
 0.530  1.379  0.283  0.028 -0.074 -0.085 -0.085
 0.532  1.380  0.284  0.028 -0.073 -0.084 -0.084
 0.534  1.381  0.284  0.029 -0.072 -0.083 -0.083
 0.536  1.383  0.286  0.030 -0.072 -0.082 -0.082
 0.538  1.384  0.287  0.031 -0.071 -0.081 -0.081
 0.540  1.385  0.287  0.032 -0.070 -0.080 -0.080
 0.542  1.386  0.288  0.033 -0.069 -0.079 -0.079
 0.544  1.387  0.289  0.033 -0.068 -0.078 -0.078
 0.546  1.388  0.289  0.033 -0.068 -0.077 -0.077
 0.548  1.389  0.290  0.034 -0.067 -0.077 -0.077
 0.550  1.389  0.290  0.035 -0.066 -0.076 -0.076
 0.552  1.390  0.291  0.035 -0.065 -0.075 -0.075
 0.554  1.391  0.291  0.036 -0.065 -0.074 -0.074
 0.556  1.391  0.293  0.037 -0.064 -0.073 -0.073
 0.558  1.393  0.293  0.037 -0.063 -0.073 -0.073
 0.560  1.393  0.294  0.037 -0.063 -0.071 -0.071
 0.562  1.394  0.294  0.037 -0.062 -0.071 -0.071
 0.564  1.394  0.295  0.038 -0.061 -0.070 -0.070
 0.566  1.395  0.295  0.038 -0.061 -0.069 -0.069
 0.568  1.395  0.295  0.039 -0.060 -0.068 -0.068
 0.570  1.396  0.296  0.039 -0.060 -0.068 -0.068
 0.572  1.396  0.296  0.039 -0.059 -0.066 -0.066
 0.574  1.396  0.297  0.040 -0.059 -0.066 -0.066
 0.576  1.397  0.297  0.040 -0.058 -0.065 -0.065
 0.578  1.397  0.297  0.040 -0.057 -0.065 -0.065
 0.580  1.397  0.298  0.040 -0.057 -0.064 -0.064
 0.582  1.397  0.298  0.040 -0.056 -0.063 -0.063
 0.584  1.398  0.298  0.041 -0.055 -0.062 -0.062
 0.586  1.398  0.300  0.041 -0.055 -0.062 -0.062
 0.588  1.398  0.300  0.041 -0.055 -0.061 -0.061
 0.590  1.398  0.300  0.041 -0.054 -0.060 -0.060
 0.592  1.398  0.300  0.041 -0.053 -0.059 -0.059
 0.594  1.399  0.301  0.041 -0.053 -0.059 -0.059
 0.596  1.399  0.301  0.042 -0.052 -0.058 -0.058
 0.598  1.399  0.301  0.042 -0.051 -0.057 -0.057
 0.600  1.399  0.301  0.042 -0.051 -0.057 -0.057
 0.602  1.399  0.302  0.042 -0.050 -0.056 -0.056
 0.604  1.399  0.302  0.042 -0.050 -0.055 -0.055
 0.606  1.399  0.302  0.042 -0.049 -0.054 -0.054
 0.608  1.399  0.302  0.042 -0.049 -0.054 -0.054
 0.610  1.399  0.302  0.042 -0.048 -0.053 -0.053
 0.612  1.399  0.303  0.042 -0.047 -0.052 -0.052
 0.614  1.399  0.303  0.043 -0.047 -0.051 -0.051
 0.616  1.399  0.303  0.043 -0.046 -0.051 -0.051
 0.618  1.399  0.303  0.043 -0.045 -0.050 -0.050
 0.620  1.399  0.303  0.043 -0.045 -0.049 -0.049
 0.622  1.399  0.303  0.044 -0.044 -0.049 -0.049
 0.624  1.399  0.303  0.044 -0.043 -0.048 -0.048
 0.626  1.398  0.304  0.044 -0.043 -0.048 -0.048
 0.628  1.398  0.304  0.045 -0.042 -0.046 -0.046
 0.630  1.398  0.304  0.045 -0.041 -0.046 -0.046
 0.632  1.398  0.304  0.045 -0.041 -0.045 -0.045
 0.634  1.398  0.304  0.046 -0.040 -0.045 -0.045
 0.636  1.397  0.304  0.046 -0.039 -0.044 -0.044
 0.638  1.397  0.304  0.046 -0.039 -0.043 -0.043
 0.640  1.397  0.304  0.046 -0.038 -0.043 -0.043
 0.642  1.397  0.304  0.046 -0.037 -0.042 -0.042
 0.644  1.396  0.304  0.046 -0.037 -0.041 -0.041
 0.646  1.396  0.304  0.047 -0.036 -0.041 -0.041
 0.648  1.396  0.304  0.047 -0.035 -0.040 -0.040
 0.650  1.395  0.304  0.047 -0.034 -0.039 -0.039
 0.652  1.395  0.304  0.048 -0.034 -0.038 -0.038
 0.654  1.395  0.304  0.048 -0.033 -0.038 -0.038
 0.656  1.395  0.304  0.048 -0.032 -0.038 -0.038
 0.658  1.394  0.304  0.049 -0.032 -0.037 -0.037
 0.660  1.394  0.304  0.049 -0.032 -0.037 -0.037
 0.662  1.394  0.303  0.049 -0.031 -0.036 -0.036
 0.664  1.393  0.303  0.050 -0.030 -0.035 -0.035
 0.666  1.393  0.303  0.050 -0.030 -0.035 -0.035
 0.668  1.393  0.303  0.050 -0.030 -0.034 -0.034
 0.670  1.391  0.303  0.051 -0.029 -0.034 -0.034
 0.672  1.391  0.302  0.051 -0.029 -0.033 -0.033
 0.674  1.391  0.302  0.051 -0.028 -0.033 -0.033
 0.676  1.390  0.302  0.051 -0.028 -0.032 -0.032
 0.678  1.390  0.301  0.051 -0.028 -0.032 -0.032
 0.680  1.390  0.301  0.051 -0.028 -0.031 -0.031
 0.682  1.390  0.300  0.051 -0.027 -0.031 -0.031
 0.684  1.389  0.300  0.051 -0.027 -0.031 -0.031
 0.686  1.389  0.300  0.051 -0.027 -0.030 -0.030
 0.688  1.389  0.298  0.051 -0.026 -0.030 -0.030
 0.690  1.388  0.298  0.051 -0.026 -0.029 -0.029
 0.692  1.388  0.297  0.051 -0.026 -0.029 -0.029
 0.694  1.388  0.297  0.051 -0.026 -0.029 -0.029
 0.696  1.387  0.296  0.051 -0.026 -0.029 -0.029
 0.698  1.387  0.295  0.051 -0.026 -0.028 -0.028
 0.700  1.387  0.295  0.051 -0.026 -0.027 -0.027
 0.702  1.386  0.294  0.051 -0.026 -0.027 -0.027
 0.704  1.386  0.293  0.051 -0.026 -0.027 -0.027
 0.706  1.386  0.293  0.051 -0.026 -0.027 -0.027
 0.708  1.386  0.291  0.051 -0.026 -0.027 -0.027
 0.710  1.385  0.290  0.051 -0.026 -0.026 -0.026
 0.712  1.385  0.289  0.051 -0.026 -0.026 -0.026
 0.714  1.385  0.288  0.051 -0.026 -0.026 -0.026
 0.716  1.384  0.288  0.051 -0.026 -0.026 -0.026
 0.718  1.384  0.287  0.050 -0.026 -0.026 -0.026
 0.720  1.384  0.286  0.050 -0.026 -0.025 -0.025
 0.722  1.384  0.284  0.050 -0.026 -0.024 -0.024
 0.724  1.383  0.283  0.050 -0.026 -0.024 -0.024
 0.726  1.383  0.282  0.049 -0.026 -0.024 -0.024
 0.728  1.383  0.281  0.049 -0.026 -0.023 -0.023
 0.730  1.383  0.281  0.049 -0.026 -0.023 -0.023
 0.732  1.381  0.280  0.049 -0.026 -0.022 -0.022
 0.734  1.381  0.279  0.050 -0.025 -0.021 -0.021
 0.736  1.381  0.279  0.050 -0.024 -0.020 -0.020
 0.738  1.381  0.279  0.050 -0.024 -0.019 -0.019
 0.740  1.380  0.277  0.051 -0.023 -0.018 -0.018
 0.742  1.380  0.277  0.051 -0.022 -0.017 -0.017
 0.744  1.380  0.277  0.051 -0.021 -0.016 -0.016
 0.746  1.380  0.277  0.052 -0.020 -0.014 -0.014
 0.748  1.380  0.277  0.053 -0.019 -0.013 -0.013
 0.750  1.380  0.277  0.054 -0.018 -0.012 -0.012
 0.752  1.379  0.279  0.055 -0.016 -0.010 -0.010
 0.754  1.379  0.279  0.056 -0.015 -0.009 -0.009
 0.756  1.379  0.279  0.057 -0.014 -0.007 -0.007
 0.758  1.379  0.280  0.058 -0.012 -0.005 -0.005
 0.760  1.379  0.280  0.060 -0.010 -0.003 -0.003
 0.762  1.379  0.281  0.061 -0.008 -0.001 -0.001
 0.764  1.379  0.282  0.063 -0.007  0.001  0.001
 0.766  1.379  0.283  0.064 -0.005  0.002  0.002
 0.768  1.379  0.284  0.065 -0.002  0.005  0.005
 0.770  1.379  0.286  0.068 -0.000  0.007  0.007
 0.772  1.379  0.287  0.069  0.002  0.009  0.009
 0.774  1.379  0.289  0.071  0.005  0.012  0.012
 0.776  1.378  0.290  0.074  0.007  0.014  0.014
 0.778  1.378  0.293  0.076  0.010  0.016  0.016
 0.780  1.378  0.294  0.078  0.013  0.020  0.020
 0.782  1.378  0.296  0.080  0.015  0.022  0.022
 0.784  1.378  0.298  0.083  0.018  0.025  0.025
 0.786  1.378  0.301  0.085  0.021  0.027  0.027
 0.788  1.378  0.302  0.087  0.024  0.030  0.030
 0.790  1.379  0.304  0.091  0.028  0.033  0.033
 0.792  1.379  0.307  0.093  0.030  0.035  0.035
 0.794  1.380  0.309  0.096  0.033  0.038  0.038
 0.796  1.380  0.312  0.098  0.036  0.041  0.041
 0.798  1.381  0.315  0.101  0.039  0.043  0.043
 0.800  1.383  0.317  0.104  0.042  0.046  0.046
 0.802  1.384  0.319  0.106  0.045  0.049  0.049
 0.804  1.385  0.322  0.109  0.048  0.051  0.051
 0.806  1.386  0.324  0.111  0.050  0.054  0.054
 0.808  1.388  0.326  0.114  0.053  0.055  0.055
