# IsPeriodic    : True
# Period        : 0.545437 days
# Normalization : <g_mag>=0
# 
# Phase u_mag  g_mag  r_mag  i_mag  z_mag  y_mag
 0.000  0.661 -0.544 -0.494 -0.450 -0.422 -0.422
 0.002  0.661 -0.544 -0.494 -0.450 -0.421 -0.421
 0.004  0.662 -0.544 -0.494 -0.450 -0.421 -0.421
 0.006  0.663 -0.543 -0.493 -0.450 -0.421 -0.421
 0.008  0.663 -0.543 -0.493 -0.450 -0.420 -0.420
 0.010  0.665 -0.541 -0.493 -0.450 -0.420 -0.420
 0.012  0.666 -0.539 -0.492 -0.449 -0.419 -0.419
 0.014  0.668 -0.538 -0.492 -0.449 -0.418 -0.418
 0.016  0.670 -0.536 -0.491 -0.449 -0.418 -0.418
 0.018  0.672 -0.534 -0.490 -0.448 -0.417 -0.417
 0.020  0.674 -0.532 -0.489 -0.447 -0.416 -0.416
 0.022  0.677 -0.529 -0.488 -0.447 -0.415 -0.415
 0.024  0.680 -0.527 -0.487 -0.446 -0.414 -0.414
 0.026  0.682 -0.524 -0.486 -0.445 -0.413 -0.413
 0.028  0.684 -0.522 -0.484 -0.445 -0.412 -0.412
 0.030  0.687 -0.519 -0.483 -0.444 -0.411 -0.411
 0.032  0.690 -0.516 -0.481 -0.443 -0.410 -0.410
 0.034  0.692 -0.513 -0.479 -0.442 -0.409 -0.409
 0.036  0.695 -0.509 -0.477 -0.441 -0.408 -0.408
 0.038  0.698 -0.506 -0.476 -0.440 -0.406 -0.406
 0.040  0.701 -0.503 -0.474 -0.438 -0.406 -0.406
 0.042  0.704 -0.499 -0.471 -0.437 -0.404 -0.404
 0.044  0.707 -0.495 -0.469 -0.436 -0.403 -0.403
 0.046  0.710 -0.491 -0.467 -0.434 -0.402 -0.402
 0.048  0.713 -0.487 -0.464 -0.433 -0.401 -0.401
 0.050  0.716 -0.483 -0.461 -0.431 -0.399 -0.399
 0.052  0.719 -0.478 -0.459 -0.430 -0.398 -0.398
 0.054  0.723 -0.473 -0.456 -0.428 -0.397 -0.397
 0.056  0.726 -0.468 -0.453 -0.427 -0.395 -0.395
 0.058  0.729 -0.463 -0.450 -0.425 -0.394 -0.394
 0.060  0.732 -0.458 -0.447 -0.423 -0.392 -0.392
 0.062  0.736 -0.453 -0.444 -0.421 -0.391 -0.391
 0.064  0.740 -0.447 -0.441 -0.420 -0.389 -0.389
 0.066  0.744 -0.442 -0.438 -0.418 -0.388 -0.388
 0.068  0.747 -0.436 -0.435 -0.415 -0.386 -0.386
 0.070  0.751 -0.430 -0.432 -0.413 -0.384 -0.384
 0.072  0.755 -0.424 -0.429 -0.411 -0.383 -0.383
 0.074  0.758 -0.418 -0.426 -0.409 -0.381 -0.381
 0.076  0.763 -0.413 -0.423 -0.407 -0.379 -0.379
 0.078  0.767 -0.406 -0.420 -0.405 -0.378 -0.378
 0.080  0.770 -0.400 -0.417 -0.403 -0.376 -0.376
 0.082  0.775 -0.394 -0.414 -0.401 -0.374 -0.374
 0.084  0.779 -0.389 -0.411 -0.399 -0.372 -0.372
 0.086  0.783 -0.383 -0.409 -0.396 -0.371 -0.371
 0.088  0.787 -0.377 -0.406 -0.395 -0.369 -0.369
 0.090  0.791 -0.371 -0.404 -0.393 -0.368 -0.368
 0.092  0.795 -0.365 -0.401 -0.391 -0.366 -0.366
 0.094  0.799 -0.360 -0.399 -0.389 -0.365 -0.365
 0.096  0.803 -0.355 -0.396 -0.388 -0.363 -0.363
 0.098  0.807 -0.350 -0.394 -0.386 -0.362 -0.362
 0.100  0.811 -0.345 -0.392 -0.384 -0.360 -0.360
 0.102  0.816 -0.340 -0.390 -0.382 -0.358 -0.358
 0.104  0.819 -0.335 -0.387 -0.381 -0.357 -0.357
 0.106  0.824 -0.330 -0.385 -0.379 -0.356 -0.356
 0.108  0.828 -0.325 -0.383 -0.378 -0.354 -0.354
 0.110  0.831 -0.321 -0.381 -0.376 -0.353 -0.353
 0.112  0.835 -0.316 -0.379 -0.374 -0.352 -0.352
 0.114  0.839 -0.311 -0.377 -0.373 -0.350 -0.350
 0.116  0.842 -0.307 -0.375 -0.372 -0.349 -0.349
 0.118  0.846 -0.303 -0.373 -0.370 -0.348 -0.348
 0.120  0.850 -0.298 -0.371 -0.369 -0.347 -0.347
 0.122  0.854 -0.293 -0.369 -0.367 -0.345 -0.345
 0.124  0.857 -0.289 -0.368 -0.366 -0.344 -0.344
 0.126  0.860 -0.285 -0.366 -0.365 -0.343 -0.343
 0.128  0.864 -0.281 -0.364 -0.364 -0.342 -0.342
 0.130  0.867 -0.278 -0.362 -0.363 -0.341 -0.341
 0.132  0.871 -0.274 -0.361 -0.362 -0.340 -0.340
 0.134  0.874 -0.270 -0.359 -0.361 -0.339 -0.339
 0.136  0.877 -0.267 -0.357 -0.360 -0.338 -0.338
 0.138  0.881 -0.263 -0.356 -0.358 -0.337 -0.337
 0.140  0.884 -0.260 -0.354 -0.357 -0.336 -0.336
 0.142  0.887 -0.256 -0.353 -0.356 -0.335 -0.335
 0.144  0.891 -0.253 -0.351 -0.355 -0.334 -0.334
 0.146  0.894 -0.250 -0.350 -0.354 -0.333 -0.333
 0.148  0.897 -0.246 -0.348 -0.353 -0.332 -0.332
 0.150  0.900 -0.243 -0.346 -0.353 -0.331 -0.331
 0.152  0.903 -0.240 -0.345 -0.352 -0.330 -0.330
 0.154  0.906 -0.236 -0.343 -0.351 -0.329 -0.329
 0.156  0.909 -0.233 -0.341 -0.349 -0.328 -0.328
 0.158  0.911 -0.230 -0.340 -0.348 -0.328 -0.328
 0.160  0.914 -0.226 -0.338 -0.347 -0.327 -0.327
 0.162  0.917 -0.223 -0.336 -0.346 -0.325 -0.325
 0.164  0.920 -0.220 -0.334 -0.345 -0.324 -0.324
 0.166  0.923 -0.216 -0.332 -0.344 -0.324 -0.324
 0.168  0.926 -0.213 -0.331 -0.343 -0.323 -0.323
 0.170  0.929 -0.210 -0.329 -0.342 -0.322 -0.322
 0.172  0.932 -0.207 -0.327 -0.341 -0.320 -0.320
 0.174  0.935 -0.203 -0.325 -0.340 -0.320 -0.320
 0.176  0.938 -0.200 -0.324 -0.339 -0.319 -0.319
 0.178  0.941 -0.197 -0.322 -0.338 -0.317 -0.317
 0.180  0.944 -0.193 -0.320 -0.336 -0.316 -0.316
 0.182  0.948 -0.190 -0.318 -0.335 -0.315 -0.315
 0.184  0.951 -0.187 -0.316 -0.334 -0.314 -0.314
 0.186  0.954 -0.183 -0.314 -0.333 -0.313 -0.313
 0.188  0.957 -0.180 -0.312 -0.332 -0.312 -0.312
 0.190  0.960 -0.177 -0.311 -0.330 -0.311 -0.311
 0.192  0.964 -0.173 -0.308 -0.330 -0.310 -0.310
 0.194  0.966 -0.170 -0.306 -0.328 -0.308 -0.308
 0.196  0.969 -0.167 -0.305 -0.327 -0.307 -0.307
 0.198  0.973 -0.164 -0.302 -0.326 -0.306 -0.306
 0.200  0.976 -0.160 -0.300 -0.325 -0.305 -0.305
 0.202  0.980 -0.157 -0.299 -0.323 -0.303 -0.303
 0.204  0.983 -0.154 -0.296 -0.322 -0.302 -0.302
 0.206  0.986 -0.150 -0.294 -0.321 -0.301 -0.301
 0.208  0.990 -0.146 -0.292 -0.319 -0.300 -0.300
 0.210  0.992 -0.143 -0.290 -0.318 -0.298 -0.298
 0.212  0.996 -0.140 -0.289 -0.317 -0.297 -0.297
 0.214  1.000 -0.136 -0.286 -0.315 -0.296 -0.296
 0.216  1.003 -0.133 -0.284 -0.314 -0.294 -0.294
 0.218  1.007 -0.130 -0.282 -0.313 -0.294 -0.294
 0.220  1.010 -0.126 -0.280 -0.311 -0.292 -0.292
 0.222  1.013 -0.123 -0.278 -0.310 -0.291 -0.291
 0.224  1.017 -0.120 -0.276 -0.308 -0.290 -0.290
 0.226  1.020 -0.116 -0.274 -0.307 -0.288 -0.288
 0.228  1.024 -0.113 -0.272 -0.306 -0.287 -0.287
 0.230  1.027 -0.110 -0.270 -0.304 -0.285 -0.285
 0.232  1.031 -0.106 -0.268 -0.303 -0.284 -0.284
 0.234  1.034 -0.103 -0.266 -0.301 -0.283 -0.283
 0.236  1.038 -0.101 -0.264 -0.300 -0.282 -0.282
 0.238  1.042 -0.097 -0.262 -0.299 -0.281 -0.281
 0.240  1.044 -0.094 -0.260 -0.297 -0.279 -0.279
 0.242  1.048 -0.092 -0.258 -0.297 -0.278 -0.278
 0.244  1.051 -0.088 -0.256 -0.295 -0.277 -0.277
 0.246  1.055 -0.086 -0.254 -0.294 -0.276 -0.276
 0.248  1.058 -0.082 -0.252 -0.292 -0.275 -0.275
 0.250  1.062 -0.080 -0.251 -0.291 -0.273 -0.273
 0.252  1.065 -0.077 -0.249 -0.290 -0.272 -0.272
 0.254  1.068 -0.074 -0.246 -0.288 -0.271 -0.271
 0.256  1.070 -0.072 -0.245 -0.287 -0.270 -0.270
 0.258  1.073 -0.068 -0.243 -0.286 -0.269 -0.269
 0.260  1.076 -0.066 -0.240 -0.284 -0.268 -0.268
 0.262  1.079 -0.063 -0.239 -0.283 -0.267 -0.267
 0.264  1.082 -0.061 -0.237 -0.282 -0.266 -0.266
 0.266  1.085 -0.058 -0.234 -0.280 -0.264 -0.264
 0.268  1.088 -0.056 -0.233 -0.279 -0.264 -0.264
 0.270  1.091 -0.053 -0.231 -0.277 -0.263 -0.263
 0.272  1.094 -0.051 -0.229 -0.276 -0.262 -0.262
 0.274  1.097 -0.048 -0.227 -0.275 -0.260 -0.260
 0.276  1.100 -0.046 -0.225 -0.273 -0.260 -0.260
 0.278  1.102 -0.044 -0.223 -0.272 -0.259 -0.259
 0.280  1.105 -0.042 -0.221 -0.271 -0.258 -0.258
 0.282  1.108 -0.039 -0.219 -0.269 -0.256 -0.256
 0.284  1.111 -0.037 -0.217 -0.268 -0.255 -0.255
 0.286  1.114 -0.035 -0.215 -0.267 -0.255 -0.255
 0.288  1.116 -0.033 -0.213 -0.265 -0.254 -0.254
 0.290  1.119 -0.030 -0.211 -0.264 -0.253 -0.253
 0.292  1.121 -0.029 -0.209 -0.263 -0.252 -0.252
 0.294  1.123 -0.026 -0.207 -0.262 -0.251 -0.251
 0.296  1.125 -0.024 -0.205 -0.260 -0.250 -0.250
 0.298  1.128 -0.022 -0.202 -0.259 -0.249 -0.249
 0.300  1.131 -0.020 -0.200 -0.258 -0.248 -0.248
 0.302  1.133 -0.018 -0.198 -0.256 -0.247 -0.247
 0.304  1.135 -0.015 -0.196 -0.255 -0.246 -0.246
 0.306  1.137 -0.013 -0.194 -0.253 -0.245 -0.245
 0.308  1.140 -0.011 -0.191 -0.252 -0.244 -0.244
 0.310  1.142 -0.009 -0.189 -0.250 -0.243 -0.243
 0.312  1.145 -0.006 -0.187 -0.249 -0.242 -0.242
 0.314  1.147 -0.005 -0.185 -0.247 -0.241 -0.241
 0.316  1.149 -0.002 -0.182 -0.246 -0.240 -0.240
 0.318  1.151  0.000 -0.180 -0.244 -0.238 -0.238
 0.320  1.154  0.003 -0.177 -0.243 -0.238 -0.238
 0.322  1.156  0.005 -0.175 -0.241 -0.236 -0.236
 0.324  1.158  0.007 -0.173 -0.240 -0.235 -0.235
 0.326  1.160  0.009 -0.170 -0.238 -0.234 -0.234
 0.328  1.163  0.012 -0.167 -0.237 -0.233 -0.233
 0.330  1.166  0.014 -0.165 -0.235 -0.232 -0.232
 0.332  1.168  0.017 -0.163 -0.233 -0.230 -0.230
 0.334  1.170  0.019 -0.160 -0.232 -0.229 -0.229
 0.336  1.172  0.021 -0.157 -0.231 -0.228 -0.228
 0.338  1.174  0.024 -0.155 -0.229 -0.227 -0.227
 0.340  1.177  0.026 -0.152 -0.228 -0.226 -0.226
 0.342  1.179  0.028 -0.150 -0.226 -0.225 -0.225
 0.344  1.181  0.031 -0.147 -0.224 -0.223 -0.223
 0.346  1.184  0.033 -0.144 -0.223 -0.222 -0.222
 0.348  1.186  0.035 -0.141 -0.221 -0.221 -0.221
 0.350  1.189  0.038 -0.139 -0.219 -0.220 -0.220
 0.352  1.191  0.040 -0.137 -0.217 -0.218 -0.218
 0.354  1.193  0.043 -0.134 -0.216 -0.217 -0.217
 0.356  1.195  0.045 -0.131 -0.214 -0.216 -0.216
 0.358  1.198  0.048 -0.129 -0.212 -0.214 -0.214
 0.360  1.200  0.050 -0.126 -0.211 -0.213 -0.213
 0.362  1.202  0.052 -0.124 -0.209 -0.212 -0.212
 0.364  1.205  0.055 -0.122 -0.207 -0.210 -0.210
 0.366  1.207  0.057 -0.119 -0.205 -0.209 -0.209
 0.368  1.209  0.060 -0.117 -0.204 -0.208 -0.208
 0.370  1.212  0.062 -0.115 -0.202 -0.206 -0.206
 0.372  1.214  0.064 -0.112 -0.200 -0.205 -0.205
 0.374  1.216  0.067 -0.110 -0.199 -0.204 -0.204
 0.376  1.218  0.069 -0.108 -0.198 -0.203 -0.203
 0.378  1.221  0.072 -0.106 -0.196 -0.201 -0.201
 0.380  1.223  0.074 -0.104 -0.195 -0.200 -0.200
 0.382  1.225  0.076 -0.101 -0.193 -0.199 -0.199
 0.384  1.228  0.079 -0.100 -0.191 -0.197 -0.197
 0.386  1.230  0.081 -0.097 -0.190 -0.196 -0.196
 0.388  1.232  0.083 -0.096 -0.188 -0.195 -0.195
 0.390  1.235  0.086 -0.094 -0.187 -0.194 -0.194
 0.392  1.237  0.088 -0.092 -0.185 -0.192 -0.192
 0.394  1.238  0.091 -0.090 -0.184 -0.191 -0.191
 0.396  1.241  0.092 -0.088 -0.182 -0.190 -0.190
 0.398  1.243  0.095 -0.087 -0.181 -0.189 -0.189
 0.400  1.245  0.097 -0.085 -0.179 -0.188 -0.188
 0.402  1.247  0.100 -0.083 -0.178 -0.187 -0.187
 0.404  1.250  0.102 -0.081 -0.177 -0.186 -0.186
 0.406  1.252  0.104 -0.079 -0.175 -0.184 -0.184
 0.408  1.254  0.106 -0.078 -0.174 -0.183 -0.183
 0.410  1.256  0.109 -0.077 -0.173 -0.182 -0.182
 0.412  1.258  0.110 -0.075 -0.171 -0.181 -0.181
 0.414  1.260  0.113 -0.074 -0.170 -0.180 -0.180
 0.416  1.262  0.115 -0.072 -0.169 -0.179 -0.179
 0.418  1.264  0.118 -0.071 -0.167 -0.178 -0.178
 0.420  1.266  0.120 -0.069 -0.166 -0.177 -0.177
 0.422  1.268  0.122 -0.068 -0.165 -0.176 -0.176
 0.424  1.270  0.124 -0.066 -0.164 -0.175 -0.175
 0.426  1.273  0.126 -0.065 -0.163 -0.174 -0.174
 0.428  1.274  0.129 -0.064 -0.161 -0.173 -0.173
 0.430  1.276  0.130 -0.062 -0.160 -0.172 -0.172
 0.432  1.279  0.133 -0.061 -0.159 -0.171 -0.171
 0.434  1.280  0.135 -0.060 -0.158 -0.170 -0.170
 0.436  1.282  0.137 -0.059 -0.157 -0.169 -0.169
 0.438  1.284  0.139 -0.057 -0.155 -0.168 -0.168
 0.440  1.286  0.141 -0.056 -0.154 -0.167 -0.167
 0.442  1.288  0.144 -0.055 -0.153 -0.166 -0.166
 0.444  1.290  0.145 -0.053 -0.152 -0.165 -0.165
 0.446  1.292  0.147 -0.052 -0.151 -0.164 -0.164
 0.448  1.293  0.149 -0.050 -0.150 -0.163 -0.163
 0.450  1.295  0.151 -0.049 -0.148 -0.162 -0.162
 0.452  1.297  0.153 -0.047 -0.147 -0.161 -0.161
 0.454  1.299  0.155 -0.046 -0.146 -0.160 -0.160
 0.456  1.300  0.157 -0.045 -0.145 -0.159 -0.159
 0.458  1.302  0.158 -0.043 -0.144 -0.158 -0.158
 0.460  1.304  0.160 -0.042 -0.143 -0.157 -0.157
 0.462  1.305  0.162 -0.041 -0.142 -0.156 -0.156
 0.464  1.307  0.164 -0.040 -0.141 -0.155 -0.155
 0.466  1.308  0.166 -0.038 -0.140 -0.154 -0.154
 0.468  1.310  0.168 -0.037 -0.139 -0.152 -0.152
 0.470  1.311  0.169 -0.036 -0.138 -0.152 -0.152
 0.472  1.313  0.171 -0.034 -0.137 -0.151 -0.151
 0.474  1.314  0.172 -0.033 -0.136 -0.150 -0.150
 0.476  1.316  0.174 -0.031 -0.135 -0.148 -0.148
 0.478  1.317  0.175 -0.030 -0.134 -0.148 -0.148
 0.480  1.319  0.177 -0.028 -0.133 -0.147 -0.147
 0.482  1.319  0.178 -0.027 -0.132 -0.145 -0.145
 0.484  1.321  0.180 -0.026 -0.131 -0.144 -0.144
 0.486  1.322  0.182 -0.025 -0.130 -0.144 -0.144
 0.488  1.323  0.182 -0.023 -0.129 -0.142 -0.142
 0.490  1.325  0.184 -0.022 -0.129 -0.141 -0.141
 0.492  1.325  0.186 -0.021 -0.128 -0.140 -0.140
 0.494  1.326  0.187 -0.020 -0.127 -0.139 -0.139
 0.496  1.328  0.188 -0.018 -0.126 -0.138 -0.138
 0.498  1.328  0.190 -0.017 -0.125 -0.137 -0.137
 0.500  1.329  0.191 -0.016 -0.124 -0.136 -0.136
 0.502  1.331  0.192 -0.015 -0.123 -0.135 -0.135
 0.504  1.331  0.193 -0.014 -0.122 -0.134 -0.134
 0.506  1.332  0.194 -0.012 -0.121 -0.133 -0.133
 0.508  1.333  0.196 -0.011 -0.120 -0.132 -0.132
 0.510  1.333  0.196 -0.010 -0.120 -0.131 -0.131
 0.512  1.334  0.198 -0.009 -0.119 -0.130 -0.130
 0.514  1.335  0.199 -0.008 -0.118 -0.129 -0.129
 0.516  1.336  0.200 -0.007 -0.117 -0.128 -0.128
 0.518  1.336  0.201 -0.006 -0.116 -0.127 -0.127
 0.520  1.337  0.202 -0.005 -0.115 -0.126 -0.126
 0.522  1.338  0.203 -0.004 -0.115 -0.125 -0.125
 0.524  1.339  0.204 -0.003 -0.114 -0.124 -0.124
 0.526  1.339  0.205 -0.003 -0.113 -0.123 -0.123
 0.528  1.339  0.206 -0.002 -0.112 -0.122 -0.122
 0.530  1.340  0.206 -0.001 -0.111 -0.122 -0.122
 0.532  1.341  0.207 -0.000 -0.110 -0.121 -0.121
 0.534  1.342  0.208  0.001 -0.109 -0.120 -0.120
 0.536  1.342  0.209  0.001 -0.109 -0.119 -0.119
 0.538  1.343  0.210  0.002 -0.108 -0.118 -0.118
 0.540  1.344  0.211  0.002 -0.107 -0.117 -0.117
 0.542  1.344  0.211  0.003 -0.106 -0.117 -0.117
 0.544  1.345  0.212  0.004 -0.105 -0.116 -0.116
 0.546  1.345  0.212  0.004 -0.104 -0.115 -0.115
 0.548  1.346  0.213  0.005 -0.104 -0.114 -0.114
 0.550  1.347  0.214  0.005 -0.103 -0.113 -0.113
 0.552  1.347  0.215  0.006 -0.102 -0.113 -0.113
 0.554  1.348  0.215  0.007 -0.101 -0.112 -0.112
 0.556  1.348  0.216  0.007 -0.100 -0.111 -0.111
 0.558  1.349  0.216  0.007 -0.100 -0.111 -0.111
 0.560  1.349  0.216  0.008 -0.099 -0.110 -0.110
 0.562  1.350  0.217  0.008 -0.099 -0.109 -0.109
 0.564  1.351  0.217  0.008 -0.098 -0.109 -0.109
 0.566  1.351  0.218  0.009 -0.097 -0.108 -0.108
 0.568  1.351  0.218  0.009 -0.096 -0.108 -0.108
 0.570  1.352  0.218  0.010 -0.095 -0.107 -0.107
 0.572  1.353  0.219  0.010 -0.095 -0.107 -0.107
 0.574  1.354  0.219  0.010 -0.094 -0.106 -0.106
 0.576  1.354  0.219  0.011 -0.093 -0.105 -0.105
 0.578  1.354  0.220  0.011 -0.092 -0.105 -0.105
 0.580  1.355  0.220  0.011 -0.091 -0.105 -0.105
 0.582  1.355  0.220  0.012 -0.090 -0.104 -0.104
 0.584  1.356  0.220  0.013 -0.090 -0.104 -0.104
 0.586  1.357  0.220  0.013 -0.089 -0.103 -0.103
 0.588  1.357  0.220  0.014 -0.088 -0.102 -0.102
 0.590  1.357  0.220  0.014 -0.087 -0.102 -0.102
 0.592  1.358  0.220  0.014 -0.086 -0.101 -0.101
 0.594  1.358  0.220  0.015 -0.085 -0.101 -0.101
 0.596  1.359  0.220  0.016 -0.084 -0.101 -0.101
 0.598  1.359  0.220  0.016 -0.083 -0.100 -0.100
 0.600  1.359  0.220  0.017 -0.082 -0.099 -0.099
 0.602  1.360  0.220  0.017 -0.081 -0.099 -0.099
 0.604  1.360  0.220  0.018 -0.080 -0.098 -0.098
 0.606  1.361  0.220  0.019 -0.079 -0.097 -0.097
 0.608  1.361  0.220  0.019 -0.078 -0.097 -0.097
 0.610  1.362  0.220  0.020 -0.077 -0.096 -0.096
 0.612  1.362  0.220  0.020 -0.076 -0.096 -0.096
 0.614  1.362  0.220  0.021 -0.075 -0.095 -0.095
 0.616  1.362  0.220  0.021 -0.074 -0.095 -0.095
 0.618  1.363  0.220  0.022 -0.072 -0.094 -0.094
 0.620  1.363  0.220  0.023 -0.071 -0.094 -0.094
 0.622  1.363  0.220  0.024 -0.070 -0.093 -0.093
 0.624  1.364  0.220  0.024 -0.069 -0.092 -0.092
 0.626  1.364  0.220  0.025 -0.068 -0.092 -0.092
 0.628  1.364  0.220  0.026 -0.067 -0.091 -0.091
 0.630  1.365  0.219  0.026 -0.066 -0.091 -0.091
 0.632  1.365  0.219  0.027 -0.065 -0.090 -0.090
 0.634  1.365  0.219  0.028 -0.063 -0.090 -0.090
 0.636  1.365  0.218  0.029 -0.062 -0.089 -0.089
 0.638  1.365  0.218  0.029 -0.061 -0.088 -0.088
 0.640  1.365  0.217  0.030 -0.060 -0.088 -0.088
 0.642  1.365  0.217  0.031 -0.058 -0.087 -0.087
 0.644  1.365  0.216  0.032 -0.057 -0.087 -0.087
 0.646  1.366  0.216  0.033 -0.056 -0.086 -0.086
 0.648  1.366  0.216  0.034 -0.054 -0.085 -0.085
 0.650  1.366  0.216  0.035 -0.053 -0.085 -0.085
 0.652  1.366  0.216  0.036 -0.051 -0.084 -0.084
 0.654  1.366  0.215  0.037 -0.050 -0.083 -0.083
 0.656  1.366  0.215  0.038 -0.048 -0.083 -0.083
 0.658  1.366  0.214  0.039 -0.047 -0.083 -0.083
 0.660  1.366  0.214  0.040 -0.046 -0.082 -0.082
 0.662  1.366  0.213  0.041 -0.044 -0.081 -0.081
 0.664  1.367  0.213  0.042 -0.042 -0.081 -0.081
 0.666  1.367  0.212  0.043 -0.041 -0.080 -0.080
 0.668  1.367  0.212  0.045 -0.039 -0.080 -0.080
 0.670  1.367  0.211  0.046 -0.038 -0.079 -0.079
 0.672  1.367  0.211  0.048 -0.036 -0.079 -0.079
 0.674  1.368  0.211  0.049 -0.035 -0.078 -0.078
 0.676  1.368  0.211  0.050 -0.033 -0.078 -0.078
 0.678  1.368  0.210  0.052 -0.032 -0.077 -0.077
 0.680  1.368  0.210  0.053 -0.030 -0.077 -0.077
 0.682  1.369  0.209  0.054 -0.028 -0.076 -0.076
 0.684  1.369  0.209  0.056 -0.027 -0.076 -0.076
 0.686  1.370  0.208  0.057 -0.025 -0.075 -0.075
 0.688  1.370  0.208  0.059 -0.023 -0.075 -0.075
 0.690  1.371  0.207  0.060 -0.021 -0.075 -0.075
 0.692  1.371  0.207  0.062 -0.019 -0.074 -0.074
 0.694  1.371  0.206  0.064 -0.018 -0.074 -0.074
 0.696  1.372  0.206  0.065 -0.016 -0.073 -0.073
 0.698  1.373  0.206  0.067 -0.014 -0.073 -0.073
 0.700  1.374  0.206  0.068 -0.012 -0.072 -0.072
 0.702  1.374  0.205  0.070 -0.010 -0.072 -0.072
 0.704  1.374  0.205  0.072 -0.008 -0.071 -0.071
 0.706  1.375  0.204  0.074 -0.006 -0.071 -0.071
 0.708  1.376  0.204  0.076 -0.004 -0.071 -0.071
 0.710  1.377  0.203  0.077 -0.002 -0.070 -0.070
 0.712  1.377  0.203  0.078 -0.000 -0.070 -0.070
 0.714  1.379  0.202  0.080  0.001 -0.070 -0.070
 0.716  1.380  0.202  0.081  0.003 -0.069 -0.069
 0.718  1.380  0.201  0.083  0.005 -0.069 -0.069
 0.720  1.381  0.201  0.084  0.007 -0.068 -0.068
 0.722  1.383  0.201  0.086  0.009 -0.068 -0.068
 0.724  1.383  0.201  0.087  0.011 -0.067 -0.067
 0.726  1.384  0.201  0.088  0.013 -0.067 -0.067
 0.728  1.385  0.200  0.089  0.015 -0.066 -0.066
 0.730  1.386  0.200  0.090  0.016 -0.065 -0.065
 0.732  1.387  0.200  0.091  0.018 -0.064 -0.064
 0.734  1.388  0.200  0.092  0.020 -0.063 -0.063
 0.736  1.389  0.200  0.093  0.021 -0.062 -0.062
 0.738  1.390  0.200  0.093  0.023 -0.061 -0.061
 0.740  1.391  0.200  0.095  0.024 -0.060 -0.060
 0.742  1.392  0.200  0.095  0.026 -0.058 -0.058
 0.744  1.393  0.200  0.096  0.027 -0.057 -0.057
 0.746  1.394  0.201  0.096  0.028 -0.055 -0.055
 0.748  1.394  0.201  0.097  0.029 -0.054 -0.054
 0.750  1.395  0.201  0.097  0.030 -0.052 -0.052
 0.752  1.396  0.201  0.098  0.032 -0.050 -0.050
 0.754  1.397  0.201  0.098  0.033 -0.049 -0.049
 0.756  1.397  0.202  0.099  0.033 -0.047 -0.047
 0.758  1.398  0.202  0.099  0.034 -0.045 -0.045
 0.760  1.399  0.203  0.099  0.035 -0.043 -0.043
 0.762  1.400  0.203  0.100  0.036 -0.041 -0.041
 0.764  1.400  0.204  0.100  0.036 -0.039 -0.039
 0.766  1.400  0.205  0.100  0.037 -0.036 -0.036
 0.768  1.401  0.206  0.100  0.038 -0.034 -0.034
 0.770  1.401  0.206  0.100  0.039 -0.031 -0.031
 0.772  1.402  0.206  0.100  0.039 -0.028 -0.028
 0.774  1.402  0.207  0.099  0.040 -0.026 -0.026
 0.776  1.402  0.208  0.099  0.041 -0.023 -0.023
 0.778  1.403  0.209  0.098  0.041 -0.019 -0.019
 0.780  1.403  0.210  0.097  0.042 -0.016 -0.016
 0.782  1.403  0.211  0.096  0.042 -0.013 -0.013
 0.784  1.403  0.212  0.095  0.042 -0.010 -0.010
 0.786  1.403  0.213  0.093  0.042 -0.007 -0.007
 0.788  1.403  0.214  0.092  0.042 -0.004 -0.004
 0.790  1.403  0.216  0.089  0.042 -0.001 -0.001
 0.792  1.404  0.216  0.087  0.041  0.002  0.002
 0.794  1.404  0.218  0.084  0.041  0.005  0.005
 0.796  1.404  0.219  0.081  0.040  0.008  0.008
 0.798  1.404  0.220  0.077  0.038  0.011  0.011
 0.800  1.404  0.221  0.073  0.037  0.013  0.013
 0.802  1.403  0.223  0.068  0.035  0.015  0.015
 0.804  1.403  0.225  0.064  0.033  0.018  0.018
 0.806  1.403  0.225  0.059  0.031  0.020  0.020
 0.808  1.401  0.227  0.054  0.029  0.021  0.021
