# IsPeriodic    : True
# Period        : 0.519437 days
# Normalization : <g_mag>=0
# 
# Phase u_mag  g_mag  r_mag  i_mag  z_mag  y_mag
 0.000  0.322 -0.870 -0.731 -0.615 -0.526 -0.526
 0.002  0.322 -0.870 -0.731 -0.615 -0.526 -0.526
 0.004  0.322 -0.869 -0.730 -0.615 -0.526 -0.526
 0.006  0.323 -0.868 -0.729 -0.614 -0.525 -0.525
 0.008  0.324 -0.865 -0.727 -0.612 -0.524 -0.524
 0.010  0.327 -0.863 -0.724 -0.611 -0.524 -0.524
 0.012  0.328 -0.859 -0.721 -0.609 -0.523 -0.523
 0.014  0.331 -0.855 -0.717 -0.607 -0.522 -0.522
 0.016  0.333 -0.851 -0.714 -0.605 -0.522 -0.522
 0.018  0.337 -0.846 -0.710 -0.602 -0.521 -0.521
 0.020  0.341 -0.841 -0.706 -0.599 -0.520 -0.520
 0.022  0.343 -0.836 -0.702 -0.596 -0.518 -0.518
 0.024  0.347 -0.831 -0.697 -0.594 -0.517 -0.517
 0.026  0.352 -0.826 -0.693 -0.591 -0.516 -0.516
 0.028  0.356 -0.821 -0.688 -0.588 -0.514 -0.514
 0.030  0.360 -0.814 -0.685 -0.585 -0.512 -0.512
 0.032  0.365 -0.809 -0.680 -0.582 -0.511 -0.511
 0.034  0.370 -0.804 -0.676 -0.580 -0.509 -0.509
 0.036  0.375 -0.798 -0.672 -0.577 -0.506 -0.506
 0.038  0.380 -0.793 -0.668 -0.574 -0.504 -0.504
 0.040  0.385 -0.786 -0.664 -0.572 -0.501 -0.501
 0.042  0.391 -0.780 -0.660 -0.569 -0.499 -0.499
 0.044  0.397 -0.773 -0.656 -0.565 -0.496 -0.496
 0.046  0.403 -0.767 -0.651 -0.562 -0.493 -0.493
 0.048  0.410 -0.761 -0.647 -0.559 -0.490 -0.490
 0.050  0.416 -0.754 -0.642 -0.556 -0.487 -0.487
 0.052  0.424 -0.747 -0.637 -0.552 -0.484 -0.484
 0.054  0.431 -0.739 -0.633 -0.549 -0.480 -0.480
 0.056  0.439 -0.731 -0.627 -0.546 -0.477 -0.477
 0.058  0.446 -0.724 -0.622 -0.542 -0.473 -0.473
 0.060  0.454 -0.716 -0.618 -0.538 -0.470 -0.470
 0.062  0.463 -0.707 -0.612 -0.534 -0.466 -0.466
 0.064  0.471 -0.699 -0.608 -0.530 -0.462 -0.462
 0.066  0.479 -0.690 -0.602 -0.526 -0.458 -0.458
 0.068  0.489 -0.681 -0.596 -0.522 -0.455 -0.455
 0.070  0.498 -0.673 -0.591 -0.519 -0.451 -0.451
 0.072  0.507 -0.664 -0.586 -0.515 -0.447 -0.447
 0.074  0.517 -0.655 -0.581 -0.511 -0.443 -0.443
 0.076  0.525 -0.646 -0.575 -0.506 -0.440 -0.440
 0.078  0.535 -0.637 -0.569 -0.503 -0.436 -0.436
 0.080  0.544 -0.628 -0.565 -0.499 -0.432 -0.432
 0.082  0.554 -0.619 -0.559 -0.495 -0.429 -0.429
 0.084  0.563 -0.610 -0.554 -0.490 -0.426 -0.426
 0.086  0.572 -0.601 -0.548 -0.486 -0.422 -0.422
 0.088  0.581 -0.592 -0.543 -0.483 -0.419 -0.419
 0.090  0.589 -0.583 -0.538 -0.479 -0.415 -0.415
 0.092  0.598 -0.574 -0.532 -0.475 -0.413 -0.413
 0.094  0.607 -0.565 -0.528 -0.471 -0.409 -0.409
 0.096  0.615 -0.558 -0.522 -0.468 -0.407 -0.407
 0.098  0.623 -0.549 -0.517 -0.464 -0.403 -0.403
 0.100  0.631 -0.541 -0.512 -0.460 -0.401 -0.401
 0.102  0.638 -0.532 -0.507 -0.457 -0.398 -0.398
 0.104  0.646 -0.524 -0.502 -0.453 -0.395 -0.395
 0.106  0.654 -0.517 -0.497 -0.450 -0.392 -0.392
 0.108  0.661 -0.509 -0.492 -0.447 -0.390 -0.390
 0.110  0.669 -0.501 -0.488 -0.443 -0.388 -0.388
 0.112  0.676 -0.494 -0.483 -0.440 -0.385 -0.385
 0.114  0.682 -0.487 -0.478 -0.437 -0.382 -0.382
 0.116  0.690 -0.480 -0.474 -0.434 -0.380 -0.380
 0.118  0.696 -0.473 -0.469 -0.431 -0.378 -0.378
 0.120  0.704 -0.466 -0.464 -0.428 -0.376 -0.376
 0.122  0.710 -0.459 -0.461 -0.425 -0.373 -0.373
 0.124  0.716 -0.453 -0.456 -0.422 -0.371 -0.371
 0.126  0.723 -0.446 -0.451 -0.420 -0.369 -0.369
 0.128  0.729 -0.440 -0.448 -0.417 -0.367 -0.367
 0.130  0.735 -0.434 -0.443 -0.414 -0.365 -0.365
 0.132  0.740 -0.427 -0.439 -0.411 -0.363 -0.363
 0.134  0.746 -0.421 -0.435 -0.409 -0.361 -0.361
 0.136  0.752 -0.416 -0.431 -0.407 -0.360 -0.360
 0.138  0.758 -0.409 -0.427 -0.404 -0.358 -0.358
 0.140  0.763 -0.404 -0.423 -0.401 -0.356 -0.356
 0.142  0.768 -0.399 -0.420 -0.399 -0.355 -0.355
 0.144  0.773 -0.393 -0.416 -0.397 -0.352 -0.352
 0.146  0.778 -0.388 -0.412 -0.394 -0.351 -0.351
 0.148  0.783 -0.383 -0.409 -0.392 -0.349 -0.349
 0.150  0.788 -0.378 -0.405 -0.390 -0.348 -0.348
 0.152  0.793 -0.372 -0.401 -0.388 -0.346 -0.346
 0.154  0.798 -0.367 -0.397 -0.386 -0.344 -0.344
 0.156  0.803 -0.362 -0.394 -0.384 -0.342 -0.342
 0.158  0.808 -0.357 -0.390 -0.381 -0.340 -0.340
 0.160  0.813 -0.353 -0.387 -0.379 -0.338 -0.338
 0.162  0.817 -0.348 -0.383 -0.377 -0.337 -0.337
 0.164  0.822 -0.343 -0.380 -0.375 -0.335 -0.335
 0.166  0.827 -0.338 -0.376 -0.373 -0.333 -0.333
 0.168  0.832 -0.333 -0.373 -0.371 -0.331 -0.331
 0.170  0.837 -0.328 -0.369 -0.369 -0.329 -0.329
 0.172  0.842 -0.323 -0.366 -0.367 -0.327 -0.327
 0.174  0.847 -0.317 -0.363 -0.364 -0.325 -0.325
 0.176  0.851 -0.312 -0.359 -0.362 -0.324 -0.324
 0.178  0.856 -0.307 -0.356 -0.360 -0.322 -0.322
 0.180  0.861 -0.302 -0.353 -0.358 -0.320 -0.320
 0.182  0.866 -0.297 -0.349 -0.355 -0.318 -0.318
 0.184  0.871 -0.292 -0.346 -0.353 -0.317 -0.317
 0.186  0.876 -0.287 -0.342 -0.351 -0.315 -0.315
 0.188  0.881 -0.280 -0.340 -0.349 -0.313 -0.313
 0.190  0.885 -0.275 -0.336 -0.347 -0.311 -0.311
 0.192  0.890 -0.270 -0.333 -0.344 -0.309 -0.309
 0.194  0.895 -0.265 -0.329 -0.342 -0.307 -0.307
 0.196  0.900 -0.260 -0.327 -0.340 -0.305 -0.305
 0.198  0.905 -0.255 -0.323 -0.338 -0.303 -0.303
 0.200  0.910 -0.250 -0.320 -0.335 -0.301 -0.301
 0.202  0.914 -0.245 -0.316 -0.333 -0.299 -0.299
 0.204  0.919 -0.240 -0.314 -0.331 -0.298 -0.298
 0.206  0.924 -0.233 -0.311 -0.329 -0.296 -0.296
 0.208  0.929 -0.228 -0.307 -0.327 -0.294 -0.294
 0.210  0.932 -0.223 -0.304 -0.325 -0.292 -0.292
 0.212  0.937 -0.218 -0.302 -0.322 -0.290 -0.290
 0.214  0.942 -0.212 -0.298 -0.320 -0.287 -0.287
 0.216  0.948 -0.206 -0.295 -0.318 -0.286 -0.286
 0.218  0.953 -0.201 -0.292 -0.315 -0.284 -0.284
 0.220  0.956 -0.196 -0.289 -0.313 -0.282 -0.282
 0.222  0.961 -0.190 -0.286 -0.311 -0.280 -0.280
 0.224  0.966 -0.185 -0.283 -0.308 -0.278 -0.278
 0.226  0.970 -0.180 -0.280 -0.306 -0.276 -0.276
 0.228  0.975 -0.174 -0.276 -0.304 -0.274 -0.274
 0.230  0.980 -0.169 -0.274 -0.302 -0.273 -0.273
 0.232  0.984 -0.164 -0.271 -0.299 -0.271 -0.271
 0.234  0.989 -0.159 -0.268 -0.297 -0.269 -0.269
 0.236  0.993 -0.154 -0.265 -0.295 -0.267 -0.267
 0.238  0.998 -0.149 -0.262 -0.293 -0.264 -0.264
 0.240  1.002 -0.144 -0.260 -0.291 -0.262 -0.262
 0.242  1.007 -0.139 -0.257 -0.288 -0.261 -0.261
 0.244  1.010 -0.134 -0.254 -0.286 -0.259 -0.259
 0.246  1.014 -0.128 -0.251 -0.284 -0.257 -0.257
 0.248  1.019 -0.125 -0.249 -0.282 -0.255 -0.255
 0.250  1.023 -0.120 -0.246 -0.280 -0.253 -0.253
 0.252  1.027 -0.114 -0.243 -0.278 -0.251 -0.251
 0.254  1.032 -0.111 -0.240 -0.275 -0.250 -0.250
 0.256  1.035 -0.106 -0.237 -0.274 -0.248 -0.248
 0.258  1.039 -0.100 -0.235 -0.272 -0.246 -0.246
 0.260  1.043 -0.097 -0.232 -0.269 -0.243 -0.243
 0.262  1.047 -0.091 -0.230 -0.268 -0.241 -0.241
 0.264  1.052 -0.088 -0.227 -0.265 -0.239 -0.239
 0.266  1.056 -0.084 -0.224 -0.263 -0.238 -0.238
 0.268  1.059 -0.079 -0.222 -0.262 -0.236 -0.236
 0.270  1.063 -0.075 -0.220 -0.259 -0.234 -0.234
 0.272  1.067 -0.071 -0.217 -0.257 -0.232 -0.232
 0.274  1.071 -0.066 -0.214 -0.255 -0.230 -0.230
 0.276  1.074 -0.062 -0.212 -0.253 -0.229 -0.229
 0.278  1.078 -0.058 -0.209 -0.252 -0.227 -0.227
 0.280  1.082 -0.054 -0.207 -0.249 -0.225 -0.225
 0.282  1.086 -0.051 -0.205 -0.248 -0.222 -0.222
 0.284  1.088 -0.047 -0.202 -0.246 -0.220 -0.220
 0.286  1.092 -0.043 -0.200 -0.244 -0.219 -0.219
 0.288  1.096 -0.039 -0.197 -0.242 -0.217 -0.217
 0.290  1.100 -0.035 -0.196 -0.240 -0.215 -0.215
 0.292  1.103 -0.031 -0.193 -0.238 -0.214 -0.214
 0.294  1.107 -0.028 -0.191 -0.236 -0.212 -0.212
 0.296  1.110 -0.024 -0.188 -0.234 -0.210 -0.210
 0.298  1.113 -0.020 -0.186 -0.232 -0.208 -0.208
 0.300  1.117 -0.016 -0.183 -0.231 -0.206 -0.206
 0.302  1.121 -0.012 -0.182 -0.229 -0.204 -0.204
 0.304  1.123 -0.010 -0.179 -0.227 -0.203 -0.203
 0.306  1.127 -0.006 -0.177 -0.225 -0.201 -0.201
 0.308  1.131 -0.002 -0.174 -0.223 -0.199 -0.199
 0.310  1.135  0.002 -0.172 -0.221 -0.197 -0.197
 0.312  1.137  0.006 -0.169 -0.219 -0.196 -0.196
 0.314  1.141  0.008 -0.167 -0.217 -0.194 -0.194
 0.316  1.145  0.012 -0.165 -0.216 -0.193 -0.193
 0.318  1.149  0.016 -0.162 -0.213 -0.191 -0.191
 0.320  1.151  0.020 -0.160 -0.212 -0.189 -0.189
 0.322  1.155  0.023 -0.157 -0.210 -0.188 -0.188
 0.324  1.159  0.027 -0.155 -0.208 -0.186 -0.186
 0.326  1.161  0.030 -0.153 -0.206 -0.185 -0.185
 0.328  1.165  0.034 -0.150 -0.204 -0.183 -0.183
 0.330  1.169  0.038 -0.147 -0.203 -0.181 -0.181
 0.332  1.172  0.041 -0.145 -0.200 -0.180 -0.180
 0.334  1.175  0.044 -0.143 -0.199 -0.178 -0.178
 0.336  1.179  0.048 -0.140 -0.196 -0.176 -0.176
 0.338  1.182  0.052 -0.137 -0.195 -0.175 -0.175
 0.340  1.185  0.055 -0.135 -0.193 -0.174 -0.174
 0.342  1.189  0.059 -0.132 -0.191 -0.172 -0.172
 0.344  1.191  0.062 -0.129 -0.189 -0.171 -0.171
 0.346  1.195  0.066 -0.127 -0.187 -0.170 -0.170
 0.348  1.199  0.069 -0.124 -0.185 -0.168 -0.168
 0.350  1.201  0.072 -0.122 -0.183 -0.166 -0.166
 0.352  1.205  0.076 -0.119 -0.181 -0.165 -0.165
 0.354  1.209  0.080 -0.116 -0.180 -0.164 -0.164
 0.356  1.211  0.083 -0.114 -0.177 -0.162 -0.162
 0.358  1.215  0.086 -0.111 -0.176 -0.161 -0.161
 0.360  1.218  0.090 -0.108 -0.173 -0.159 -0.159
 0.362  1.221  0.094 -0.105 -0.172 -0.158 -0.158
 0.364  1.225  0.096 -0.103 -0.170 -0.156 -0.156
 0.366  1.228  0.100 -0.101 -0.168 -0.155 -0.155
 0.368  1.231  0.104 -0.098 -0.166 -0.153 -0.153
 0.370  1.234  0.108 -0.095 -0.164 -0.151 -0.151
 0.372  1.238  0.110 -0.092 -0.162 -0.150 -0.150
 0.374  1.240  0.114 -0.089 -0.160 -0.148 -0.148
 0.376  1.244  0.118 -0.087 -0.159 -0.147 -0.147
 0.378  1.247  0.121 -0.084 -0.156 -0.145 -0.145
 0.380  1.250  0.124 -0.082 -0.155 -0.143 -0.143
 0.382  1.253  0.128 -0.079 -0.153 -0.141 -0.141
 0.384  1.257  0.132 -0.076 -0.151 -0.140 -0.140
 0.386  1.259  0.135 -0.074 -0.149 -0.138 -0.138
 0.388  1.263  0.138 -0.072 -0.147 -0.137 -0.137
 0.390  1.265  0.142 -0.069 -0.145 -0.134 -0.134
 0.392  1.269  0.146 -0.066 -0.143 -0.133 -0.133
 0.394  1.272  0.149 -0.063 -0.141 -0.131 -0.131
 0.396  1.275  0.152 -0.062 -0.140 -0.129 -0.129
 0.398  1.278  0.156 -0.059 -0.138 -0.128 -0.128
 0.400  1.282  0.159 -0.057 -0.136 -0.126 -0.126
 0.402  1.284  0.163 -0.054 -0.134 -0.124 -0.124
 0.404  1.288  0.167 -0.051 -0.132 -0.122 -0.122
 0.406  1.291  0.170 -0.049 -0.130 -0.120 -0.120
 0.408  1.293  0.173 -0.047 -0.128 -0.118 -0.118
 0.410  1.297  0.177 -0.045 -0.127 -0.116 -0.116
 0.412  1.299  0.181 -0.042 -0.125 -0.114 -0.114
 0.414  1.302  0.184 -0.040 -0.123 -0.112 -0.112
 0.416  1.306  0.187 -0.037 -0.121 -0.110 -0.110
 0.418  1.308  0.191 -0.036 -0.119 -0.108 -0.108
 0.420  1.312  0.195 -0.034 -0.117 -0.107 -0.107
 0.422  1.314  0.198 -0.031 -0.116 -0.105 -0.105
 0.424  1.317  0.202 -0.029 -0.114 -0.103 -0.103
 0.426  1.321  0.205 -0.026 -0.112 -0.101 -0.101
 0.428  1.323  0.209 -0.024 -0.110 -0.099 -0.099
 0.430  1.326  0.212 -0.023 -0.108 -0.097 -0.097
 0.432  1.328  0.216 -0.020 -0.107 -0.095 -0.095
 0.434  1.332  0.219 -0.018 -0.104 -0.093 -0.093
 0.436  1.335  0.223 -0.016 -0.103 -0.091 -0.091
 0.438  1.337  0.227 -0.014 -0.101 -0.089 -0.089
 0.440  1.340  0.230 -0.011 -0.099 -0.088 -0.088
 0.442  1.343  0.233 -0.009 -0.097 -0.086 -0.086
 0.444  1.346  0.237 -0.008 -0.096 -0.084 -0.084
 0.446  1.348  0.239 -0.006 -0.094 -0.082 -0.082
 0.448  1.351  0.243 -0.004 -0.092 -0.081 -0.081
 0.450  1.353  0.246 -0.001 -0.091 -0.079 -0.079
 0.452  1.356  0.250  0.001 -0.089 -0.078 -0.078
 0.454  1.358  0.252  0.003 -0.087 -0.076 -0.076
 0.456  1.361  0.255  0.004 -0.085 -0.074 -0.074
 0.458  1.363  0.258  0.006 -0.084 -0.073 -0.073
 0.460  1.366  0.261  0.008 -0.081 -0.072 -0.072
 0.462  1.368  0.264  0.010 -0.080 -0.069 -0.069
 0.464  1.371  0.266  0.012 -0.078 -0.068 -0.068
 0.466  1.373  0.269  0.014 -0.077 -0.067 -0.067
 0.468  1.376  0.271  0.016 -0.075 -0.065 -0.065
 0.470  1.378  0.274  0.017 -0.073 -0.064 -0.064
 0.472  1.381  0.276  0.019 -0.071 -0.063 -0.063
 0.474  1.384  0.279  0.021 -0.070 -0.061 -0.061
 0.476  1.386  0.281  0.023 -0.068 -0.060 -0.060
 0.478  1.387  0.284  0.025 -0.067 -0.059 -0.059
 0.480  1.390  0.285  0.027 -0.064 -0.057 -0.057
 0.482  1.392  0.288  0.028 -0.063 -0.056 -0.056
 0.484  1.395  0.290  0.030 -0.061 -0.055 -0.055
 0.486  1.396  0.292  0.031 -0.060 -0.054 -0.054
 0.488  1.399  0.294  0.033 -0.058 -0.053 -0.053
 0.490  1.401  0.295  0.035 -0.057 -0.051 -0.051
 0.492  1.402  0.298  0.036 -0.055 -0.050 -0.050
 0.494  1.405  0.299  0.038 -0.054 -0.049 -0.049
 0.496  1.407  0.301  0.040 -0.051 -0.048 -0.048
 0.498  1.409  0.303  0.042 -0.050 -0.047 -0.047
 0.500  1.411  0.304  0.043 -0.048 -0.046 -0.046
 0.502  1.412  0.306  0.044 -0.047 -0.044 -0.044
 0.504  1.415  0.307  0.046 -0.045 -0.044 -0.044
 0.506  1.416  0.308  0.047 -0.044 -0.042 -0.042
 0.508  1.419  0.310  0.049 -0.042 -0.042 -0.042
 0.510  1.420  0.311  0.051 -0.041 -0.040 -0.040
 0.512  1.422  0.312  0.052 -0.039 -0.040 -0.040
 0.514  1.424  0.313  0.054 -0.038 -0.038 -0.038
 0.516  1.425  0.315  0.055 -0.036 -0.038 -0.038
 0.518  1.426  0.316  0.057 -0.035 -0.036 -0.036
 0.520  1.429  0.317  0.057 -0.034 -0.036 -0.036
 0.522  1.430  0.318  0.059 -0.032 -0.034 -0.034
 0.524  1.431  0.320  0.060 -0.031 -0.034 -0.034
 0.526  1.433  0.321  0.061 -0.030 -0.032 -0.032
 0.528  1.434  0.322  0.063 -0.028 -0.032 -0.032
 0.530  1.435  0.322  0.064 -0.028 -0.030 -0.030
 0.532  1.436  0.324  0.065 -0.026 -0.030 -0.030
 0.534  1.438  0.325  0.067 -0.025 -0.029 -0.029
 0.536  1.439  0.326  0.068 -0.024 -0.028 -0.028
 0.538  1.440  0.326  0.069 -0.023 -0.027 -0.027
 0.540  1.441  0.327  0.070 -0.021 -0.026 -0.026
 0.542  1.443  0.329  0.071 -0.021 -0.025 -0.025
 0.544  1.444  0.329  0.072 -0.020 -0.024 -0.024
 0.546  1.445  0.330  0.073 -0.018 -0.023 -0.023
 0.548  1.446  0.330  0.074 -0.018 -0.022 -0.022
 0.550  1.446  0.331  0.075 -0.017 -0.021 -0.021
 0.552  1.448  0.331  0.076 -0.016 -0.021 -0.021
 0.554  1.449  0.333  0.077 -0.015 -0.020 -0.020
 0.556  1.449  0.333  0.078 -0.015 -0.019 -0.019
 0.558  1.450  0.334  0.079 -0.014 -0.018 -0.018
 0.560  1.450  0.334  0.080 -0.013 -0.017 -0.017
 0.562  1.451  0.334  0.081 -0.012 -0.017 -0.017
 0.564  1.451  0.335  0.082 -0.011 -0.015 -0.015
 0.566  1.453  0.335  0.082 -0.011 -0.015 -0.015
 0.568  1.453  0.335  0.083 -0.010 -0.014 -0.014
 0.570  1.454  0.336  0.084 -0.010 -0.013 -0.013
 0.572  1.454  0.336  0.084 -0.009 -0.013 -0.013
 0.574  1.454  0.336  0.084 -0.008 -0.012 -0.012
 0.576  1.455  0.336  0.085 -0.008 -0.011 -0.011
 0.578  1.455  0.336  0.086 -0.008 -0.010 -0.010
 0.580  1.455  0.338  0.086 -0.007 -0.009 -0.009
 0.582  1.455  0.338  0.087 -0.007 -0.009 -0.009
 0.584  1.456  0.338  0.088 -0.006 -0.008 -0.008
 0.586  1.456  0.338  0.088 -0.005 -0.007 -0.007
 0.588  1.456  0.338  0.089 -0.005 -0.007 -0.007
 0.590  1.456  0.338  0.089 -0.005 -0.006 -0.006
 0.592  1.456  0.338  0.090 -0.005 -0.005 -0.005
 0.594  1.458  0.338  0.090 -0.004 -0.004 -0.004
 0.596  1.458  0.338  0.091 -0.004 -0.004 -0.004
 0.598  1.458  0.338  0.091 -0.003 -0.003 -0.003
 0.600  1.458  0.338  0.092 -0.003 -0.002 -0.002
 0.602  1.458  0.338  0.092 -0.002 -0.002 -0.002
 0.604  1.458  0.338  0.093 -0.002 -0.001 -0.001
 0.606  1.458  0.338  0.093 -0.002 -0.000 -0.000
 0.608  1.458  0.338  0.094 -0.002  0.000  0.000
 0.610  1.458  0.338  0.094 -0.001  0.001  0.001
 0.612  1.458  0.338  0.094 -0.001  0.002  0.002
 0.614  1.458  0.338  0.095  0.000  0.002  0.002
 0.616  1.458  0.338  0.095  0.000  0.003  0.003
 0.618  1.458  0.338  0.095  0.001  0.004  0.004
 0.620  1.458  0.338  0.096  0.001  0.004  0.004
 0.622  1.458  0.338  0.096  0.001  0.005  0.005
 0.624  1.458  0.338  0.096  0.002  0.006  0.006
 0.626  1.456  0.338  0.097  0.002  0.006  0.006
 0.628  1.456  0.338  0.097  0.002  0.007  0.007
 0.630  1.456  0.338  0.097  0.002  0.008  0.008
 0.632  1.456  0.338  0.097  0.002  0.008  0.008
 0.634  1.456  0.336  0.097  0.003  0.008  0.008
 0.636  1.455  0.336  0.097  0.003  0.009  0.009
 0.638  1.455  0.336  0.097  0.004  0.010  0.010
 0.640  1.455  0.336  0.097  0.004  0.010  0.010
 0.642  1.455  0.336  0.097  0.004  0.011  0.011
 0.644  1.454  0.336  0.097  0.005  0.012  0.012
 0.646  1.454  0.335  0.097  0.005  0.012  0.012
 0.648  1.454  0.335  0.097  0.005  0.012  0.012
 0.650  1.453  0.335  0.097  0.005  0.013  0.013
 0.652  1.453  0.335  0.097  0.005  0.014  0.014
 0.654  1.453  0.334  0.098  0.005  0.014  0.014
 0.656  1.453  0.334  0.098  0.005  0.014  0.014
 0.658  1.451  0.334  0.098  0.006  0.015  0.015
 0.660  1.451  0.334  0.098  0.006  0.015  0.015
 0.662  1.451  0.333  0.097  0.006  0.016  0.016
 0.664  1.450  0.333  0.097  0.007  0.016  0.016
 0.666  1.450  0.333  0.097  0.007  0.016  0.016
 0.668  1.450  0.331  0.097  0.007  0.017  0.017
 0.670  1.449  0.331  0.097  0.007  0.017  0.017
 0.672  1.449  0.331  0.097  0.008  0.018  0.018
 0.674  1.449  0.330  0.097  0.008  0.019  0.019
 0.676  1.448  0.330  0.097  0.008  0.019  0.019
 0.678  1.448  0.330  0.097  0.008  0.019  0.019
 0.680  1.448  0.329  0.097  0.008  0.019  0.019
 0.682  1.448  0.329  0.097  0.008  0.020  0.020
 0.684  1.446  0.327  0.097  0.008  0.020  0.020
 0.686  1.446  0.327  0.096  0.008  0.021  0.021
 0.688  1.446  0.327  0.096  0.008  0.021  0.021
 0.690  1.445  0.326  0.096  0.008  0.021  0.021
 0.692  1.445  0.326  0.095  0.009  0.021  0.021
 0.694  1.445  0.325  0.095  0.009  0.022  0.022
 0.696  1.444  0.325  0.095  0.009  0.022  0.022
 0.698  1.444  0.324  0.094  0.009  0.022  0.022
 0.700  1.444  0.324  0.094  0.009  0.023  0.023
 0.702  1.443  0.322  0.093  0.010  0.023  0.023
 0.704  1.443  0.322  0.093  0.010  0.023  0.023
 0.706  1.443  0.321  0.093  0.010  0.023  0.023
 0.708  1.443  0.321  0.092  0.010  0.023  0.023
 0.710  1.441  0.320  0.091  0.010  0.024  0.024
 0.712  1.441  0.320  0.091  0.010  0.024  0.024
 0.714  1.441  0.318  0.090  0.010  0.025  0.025
 0.716  1.440  0.318  0.090  0.010  0.025  0.025
 0.718  1.440  0.317  0.089  0.010  0.026  0.026
 0.720  1.440  0.316  0.088  0.011  0.027  0.027
 0.722  1.440  0.316  0.088  0.011  0.027  0.027
 0.724  1.439  0.315  0.087  0.011  0.028  0.028
 0.726  1.439  0.315  0.087  0.011  0.029  0.029
 0.728  1.439  0.313  0.086  0.012  0.029  0.029
 0.730  1.439  0.313  0.086  0.012  0.031  0.031
 0.732  1.438  0.313  0.086  0.012  0.031  0.031
 0.734  1.438  0.313  0.086  0.012  0.033  0.033
 0.736  1.438  0.312  0.086  0.013  0.033  0.033
 0.738  1.438  0.312  0.086  0.013  0.035  0.035
 0.740  1.436  0.312  0.086  0.014  0.036  0.036
 0.742  1.436  0.312  0.086  0.015  0.037  0.037
 0.744  1.436  0.312  0.087  0.015  0.039  0.039
 0.746  1.436  0.312  0.087  0.016  0.040  0.040
 0.748  1.436  0.312  0.088  0.017  0.042  0.042
 0.750  1.436  0.313  0.089  0.018  0.044  0.044
 0.752  1.435  0.313  0.089  0.018  0.045  0.045
 0.754  1.435  0.313  0.090  0.019  0.047  0.047
 0.756  1.435  0.313  0.091  0.020  0.048  0.048
 0.758  1.435  0.315  0.092  0.022  0.050  0.050
 0.760  1.435  0.315  0.093  0.022  0.052  0.052
 0.762  1.435  0.316  0.095  0.024  0.054  0.054
 0.764  1.435  0.316  0.096  0.025  0.056  0.056
 0.766  1.435  0.317  0.097  0.026  0.058  0.058
 0.768  1.435  0.318  0.098  0.027  0.060  0.060
 0.770  1.435  0.318  0.100  0.028  0.063  0.063
 0.772  1.435  0.320  0.102  0.030  0.065  0.065
 0.774  1.435  0.321  0.104  0.031  0.067  0.067
 0.776  1.434  0.322  0.106  0.033  0.070  0.070
 0.778  1.434  0.324  0.108  0.035  0.072  0.072
 0.780  1.434  0.325  0.110  0.036  0.075  0.075
 0.782  1.434  0.326  0.112  0.038  0.077  0.077
 0.784  1.434  0.327  0.115  0.040  0.079  0.079
 0.786  1.434  0.330  0.117  0.041  0.081  0.081
 0.788  1.434  0.331  0.120  0.043  0.084  0.084
 0.790  1.435  0.333  0.122  0.045  0.087  0.087
 0.792  1.435  0.334  0.124  0.047  0.089  0.089
 0.794  1.436  0.336  0.127  0.049  0.092  0.092
 0.796  1.436  0.338  0.130  0.051  0.094  0.094
 0.798  1.438  0.339  0.132  0.053  0.096  0.096
 0.800  1.439  0.341  0.135  0.055  0.098  0.098
 0.802  1.440  0.343  0.137  0.057  0.101  0.101
 0.804  1.441  0.344  0.140  0.059  0.103  0.103
 0.806  1.443  0.347  0.143  0.061  0.105  0.105
 0.808  1.445  0.348  0.145  0.064  0.108  0.108
