# IsPeriodic    : True
# Period        : 0.643237 days
# Normalization : <g_mag>=0
# 
# Phase u_mag  g_mag  r_mag  i_mag  z_mag  y_mag
 0.000  0.749 -0.314 -0.421 -0.433 -0.442 -0.442
 0.002  0.749 -0.314 -0.421 -0.433 -0.442 -0.442
 0.004  0.749 -0.313 -0.420 -0.433 -0.442 -0.442
 0.006  0.750 -0.313 -0.420 -0.432 -0.441 -0.441
 0.008  0.750 -0.312 -0.420 -0.432 -0.441 -0.441
 0.010  0.750 -0.311 -0.419 -0.432 -0.440 -0.440
 0.012  0.751 -0.310 -0.419 -0.431 -0.439 -0.439
 0.014  0.751 -0.308 -0.419 -0.431 -0.438 -0.438
 0.016  0.752 -0.307 -0.418 -0.430 -0.437 -0.437
 0.018  0.753 -0.305 -0.417 -0.430 -0.436 -0.436
 0.020  0.754 -0.303 -0.417 -0.429 -0.434 -0.434
 0.022  0.755 -0.301 -0.416 -0.429 -0.433 -0.433
 0.024  0.755 -0.299 -0.415 -0.428 -0.432 -0.432
 0.026  0.756 -0.297 -0.414 -0.427 -0.431 -0.431
 0.028  0.757 -0.295 -0.414 -0.427 -0.429 -0.429
 0.030  0.758 -0.293 -0.413 -0.426 -0.428 -0.428
 0.032  0.759 -0.291 -0.412 -0.425 -0.427 -0.427
 0.034  0.760 -0.289 -0.411 -0.425 -0.426 -0.426
 0.036  0.761 -0.286 -0.410 -0.424 -0.425 -0.425
 0.038  0.762 -0.284 -0.409 -0.424 -0.424 -0.424
 0.040  0.763 -0.282 -0.408 -0.423 -0.423 -0.423
 0.042  0.764 -0.280 -0.407 -0.422 -0.422 -0.422
 0.044  0.765 -0.278 -0.406 -0.422 -0.421 -0.421
 0.046  0.766 -0.276 -0.405 -0.421 -0.420 -0.420
 0.048  0.767 -0.273 -0.404 -0.420 -0.419 -0.419
 0.050  0.768 -0.271 -0.402 -0.420 -0.418 -0.418
 0.052  0.770 -0.268 -0.401 -0.419 -0.417 -0.417
 0.054  0.771 -0.266 -0.400 -0.418 -0.416 -0.416
 0.056  0.773 -0.264 -0.398 -0.418 -0.415 -0.415
 0.058  0.774 -0.261 -0.397 -0.417 -0.414 -0.414
 0.060  0.775 -0.259 -0.396 -0.416 -0.413 -0.413
 0.062  0.777 -0.256 -0.394 -0.416 -0.412 -0.412
 0.064  0.778 -0.253 -0.393 -0.415 -0.411 -0.411
 0.066  0.780 -0.251 -0.391 -0.414 -0.410 -0.410
 0.068  0.781 -0.248 -0.390 -0.414 -0.409 -0.409
 0.070  0.783 -0.246 -0.388 -0.413 -0.408 -0.408
 0.072  0.785 -0.243 -0.387 -0.413 -0.407 -0.407
 0.074  0.786 -0.241 -0.385 -0.412 -0.406 -0.406
 0.076  0.788 -0.238 -0.383 -0.411 -0.405 -0.405
 0.078  0.790 -0.235 -0.382 -0.411 -0.404 -0.404
 0.080  0.792 -0.232 -0.380 -0.410 -0.403 -0.403
 0.082  0.793 -0.230 -0.378 -0.409 -0.403 -0.403
 0.084  0.795 -0.227 -0.376 -0.408 -0.402 -0.402
 0.086  0.797 -0.224 -0.374 -0.408 -0.401 -0.401
 0.088  0.798 -0.221 -0.373 -0.407 -0.400 -0.400
 0.090  0.800 -0.218 -0.371 -0.406 -0.399 -0.399
 0.092  0.802 -0.215 -0.369 -0.406 -0.398 -0.398
 0.094  0.804 -0.213 -0.367 -0.405 -0.397 -0.397
 0.096  0.805 -0.210 -0.366 -0.404 -0.397 -0.397
 0.098  0.807 -0.207 -0.364 -0.404 -0.396 -0.396
 0.100  0.809 -0.204 -0.362 -0.403 -0.395 -0.395
 0.102  0.810 -0.202 -0.361 -0.402 -0.394 -0.394
 0.104  0.812 -0.199 -0.359 -0.401 -0.393 -0.393
 0.106  0.814 -0.196 -0.357 -0.400 -0.392 -0.392
 0.108  0.816 -0.193 -0.356 -0.400 -0.392 -0.392
 0.110  0.817 -0.191 -0.354 -0.399 -0.391 -0.391
 0.112  0.819 -0.188 -0.353 -0.398 -0.390 -0.390
 0.114  0.820 -0.186 -0.351 -0.397 -0.389 -0.389
 0.116  0.822 -0.183 -0.350 -0.396 -0.388 -0.388
 0.118  0.824 -0.181 -0.349 -0.396 -0.388 -0.388
 0.120  0.825 -0.179 -0.347 -0.395 -0.387 -0.387
 0.122  0.827 -0.176 -0.346 -0.394 -0.386 -0.386
 0.124  0.829 -0.174 -0.344 -0.393 -0.385 -0.385
 0.126  0.831 -0.171 -0.343 -0.392 -0.385 -0.385
 0.128  0.832 -0.169 -0.342 -0.391 -0.384 -0.384
 0.130  0.834 -0.167 -0.341 -0.390 -0.383 -0.383
 0.132  0.836 -0.164 -0.339 -0.389 -0.382 -0.382
 0.134  0.837 -0.162 -0.338 -0.388 -0.382 -0.382
 0.136  0.839 -0.160 -0.336 -0.387 -0.381 -0.381
 0.138  0.841 -0.157 -0.335 -0.386 -0.381 -0.381
 0.140  0.842 -0.155 -0.334 -0.386 -0.380 -0.380
 0.142  0.844 -0.153 -0.333 -0.385 -0.379 -0.379
 0.144  0.845 -0.151 -0.332 -0.383 -0.378 -0.378
 0.146  0.847 -0.149 -0.331 -0.382 -0.378 -0.378
 0.148  0.849 -0.147 -0.330 -0.381 -0.377 -0.377
 0.150  0.850 -0.145 -0.329 -0.380 -0.376 -0.376
 0.152  0.852 -0.143 -0.328 -0.379 -0.376 -0.376
 0.154  0.854 -0.141 -0.326 -0.378 -0.375 -0.375
 0.156  0.855 -0.139 -0.325 -0.377 -0.375 -0.375
 0.158  0.857 -0.137 -0.324 -0.376 -0.374 -0.374
 0.160  0.859 -0.135 -0.323 -0.375 -0.373 -0.373
 0.162  0.860 -0.134 -0.322 -0.374 -0.373 -0.373
 0.164  0.862 -0.132 -0.321 -0.373 -0.372 -0.372
 0.166  0.863 -0.130 -0.320 -0.372 -0.371 -0.371
 0.168  0.865 -0.128 -0.319 -0.371 -0.371 -0.371
 0.170  0.866 -0.126 -0.318 -0.370 -0.370 -0.370
 0.172  0.868 -0.124 -0.317 -0.369 -0.370 -0.370
 0.174  0.869 -0.122 -0.316 -0.368 -0.369 -0.369
 0.176  0.871 -0.120 -0.315 -0.367 -0.368 -0.368
 0.178  0.873 -0.118 -0.314 -0.366 -0.368 -0.368
 0.180  0.874 -0.116 -0.313 -0.365 -0.367 -0.367
 0.182  0.876 -0.114 -0.312 -0.364 -0.366 -0.366
 0.184  0.877 -0.112 -0.311 -0.363 -0.366 -0.366
 0.186  0.879 -0.110 -0.310 -0.362 -0.365 -0.365
 0.188  0.880 -0.108 -0.309 -0.361 -0.365 -0.365
 0.190  0.882 -0.106 -0.308 -0.360 -0.364 -0.364
 0.192  0.883 -0.104 -0.306 -0.360 -0.363 -0.363
 0.194  0.885 -0.102 -0.305 -0.359 -0.363 -0.363
 0.196  0.886 -0.100 -0.304 -0.358 -0.362 -0.362
 0.198  0.888 -0.098 -0.303 -0.357 -0.361 -0.361
 0.200  0.889 -0.096 -0.302 -0.356 -0.361 -0.361
 0.202  0.891 -0.093 -0.301 -0.355 -0.360 -0.360
 0.204  0.892 -0.091 -0.300 -0.355 -0.360 -0.360
 0.206  0.894 -0.089 -0.299 -0.354 -0.359 -0.359
 0.208  0.895 -0.087 -0.298 -0.353 -0.358 -0.358
 0.210  0.897 -0.085 -0.297 -0.352 -0.358 -0.358
 0.212  0.898 -0.082 -0.295 -0.352 -0.357 -0.357
 0.214  0.900 -0.081 -0.294 -0.351 -0.356 -0.356
 0.216  0.901 -0.078 -0.293 -0.350 -0.356 -0.356
 0.218  0.903 -0.076 -0.292 -0.350 -0.355 -0.355
 0.220  0.904 -0.074 -0.291 -0.349 -0.354 -0.354
 0.222  0.905 -0.071 -0.289 -0.348 -0.354 -0.354
 0.224  0.907 -0.069 -0.288 -0.347 -0.353 -0.353
 0.226  0.908 -0.067 -0.287 -0.347 -0.352 -0.352
 0.228  0.910 -0.064 -0.286 -0.346 -0.352 -0.352
 0.230  0.911 -0.062 -0.285 -0.345 -0.351 -0.351
 0.232  0.912 -0.060 -0.284 -0.345 -0.350 -0.350
 0.234  0.914 -0.057 -0.283 -0.344 -0.350 -0.350
 0.236  0.915 -0.055 -0.281 -0.344 -0.349 -0.349
 0.238  0.916 -0.053 -0.280 -0.343 -0.349 -0.349
 0.240  0.918 -0.050 -0.279 -0.342 -0.348 -0.348
 0.242  0.919 -0.048 -0.278 -0.342 -0.347 -0.347
 0.244  0.920 -0.046 -0.277 -0.341 -0.347 -0.347
 0.246  0.922 -0.044 -0.276 -0.340 -0.346 -0.346
 0.248  0.923 -0.042 -0.274 -0.340 -0.345 -0.345
 0.250  0.924 -0.039 -0.273 -0.339 -0.345 -0.345
 0.252  0.926 -0.037 -0.272 -0.338 -0.344 -0.344
 0.254  0.927 -0.035 -0.271 -0.337 -0.344 -0.344
 0.256  0.928 -0.033 -0.270 -0.337 -0.343 -0.343
 0.258  0.930 -0.031 -0.268 -0.336 -0.343 -0.343
 0.260  0.931 -0.029 -0.267 -0.335 -0.342 -0.342
 0.262  0.932 -0.027 -0.266 -0.334 -0.341 -0.341
 0.264  0.933 -0.025 -0.265 -0.334 -0.341 -0.341
 0.266  0.935 -0.023 -0.264 -0.333 -0.340 -0.340
 0.268  0.936 -0.021 -0.263 -0.332 -0.340 -0.340
 0.270  0.937 -0.019 -0.262 -0.331 -0.339 -0.339
 0.272  0.938 -0.017 -0.260 -0.330 -0.339 -0.339
 0.274  0.939 -0.015 -0.259 -0.329 -0.338 -0.338
 0.276  0.941 -0.013 -0.258 -0.329 -0.338 -0.338
 0.278  0.942 -0.012 -0.257 -0.328 -0.337 -0.337
 0.280  0.943 -0.010 -0.256 -0.327 -0.336 -0.336
 0.282  0.944 -0.008 -0.255 -0.326 -0.336 -0.336
 0.284  0.945 -0.006 -0.253 -0.325 -0.335 -0.335
 0.286  0.947 -0.004 -0.252 -0.324 -0.335 -0.335
 0.288  0.948 -0.002 -0.251 -0.323 -0.334 -0.334
 0.290  0.949 -0.001 -0.250 -0.322 -0.334 -0.334
 0.292  0.950  0.001 -0.249 -0.321 -0.333 -0.333
 0.294  0.951  0.003 -0.248 -0.320 -0.333 -0.333
 0.296  0.952  0.004 -0.247 -0.319 -0.332 -0.332
 0.298  0.954  0.006 -0.245 -0.318 -0.332 -0.332
 0.300  0.955  0.008 -0.244 -0.318 -0.331 -0.331
 0.302  0.956  0.009 -0.243 -0.317 -0.331 -0.331
 0.304  0.957  0.011 -0.242 -0.316 -0.330 -0.330
 0.306  0.958  0.012 -0.241 -0.315 -0.330 -0.330
 0.308  0.959  0.014 -0.240 -0.313 -0.329 -0.329
 0.310  0.960  0.016 -0.239 -0.312 -0.329 -0.329
 0.312  0.961  0.017 -0.238 -0.311 -0.328 -0.328
 0.314  0.962  0.018 -0.237 -0.310 -0.328 -0.328
 0.316  0.964  0.020 -0.236 -0.310 -0.327 -0.327
 0.318  0.965  0.021 -0.235 -0.309 -0.327 -0.327
 0.320  0.966  0.023 -0.234 -0.308 -0.326 -0.326
 0.322  0.967  0.025 -0.232 -0.307 -0.326 -0.326
 0.324  0.968  0.026 -0.231 -0.305 -0.325 -0.325
 0.326  0.969  0.028 -0.230 -0.305 -0.325 -0.325
 0.328  0.970  0.029 -0.229 -0.304 -0.324 -0.324
 0.330  0.972  0.031 -0.228 -0.303 -0.324 -0.324
 0.332  0.973  0.033 -0.227 -0.302 -0.323 -0.323
 0.334  0.974  0.034 -0.226 -0.301 -0.323 -0.323
 0.336  0.975  0.036 -0.225 -0.300 -0.322 -0.322
 0.338  0.976  0.037 -0.224 -0.299 -0.322 -0.322
 0.340  0.977  0.039 -0.223 -0.298 -0.321 -0.321
 0.342  0.978  0.041 -0.222 -0.297 -0.321 -0.321
 0.344  0.979  0.042 -0.221 -0.296 -0.320 -0.320
 0.346  0.980  0.044 -0.220 -0.295 -0.319 -0.319
 0.348  0.981  0.046 -0.219 -0.294 -0.319 -0.319
 0.350  0.983  0.047 -0.218 -0.293 -0.318 -0.318
 0.352  0.984  0.048 -0.217 -0.292 -0.318 -0.318
 0.354  0.985  0.050 -0.216 -0.292 -0.317 -0.317
 0.356  0.986  0.052 -0.215 -0.291 -0.317 -0.317
 0.358  0.987  0.053 -0.214 -0.290 -0.316 -0.316
 0.360  0.988  0.055 -0.213 -0.289 -0.316 -0.316
 0.362  0.989  0.057 -0.212 -0.288 -0.315 -0.315
 0.364  0.991  0.058 -0.211 -0.287 -0.315 -0.315
 0.366  0.992  0.060 -0.210 -0.286 -0.314 -0.314
 0.368  0.993  0.061 -0.209 -0.285 -0.313 -0.313
 0.370  0.994  0.063 -0.208 -0.284 -0.313 -0.313
 0.372  0.995  0.065 -0.207 -0.284 -0.312 -0.312
 0.374  0.996  0.066 -0.206 -0.283 -0.312 -0.312
 0.376  0.996  0.068 -0.206 -0.282 -0.311 -0.311
 0.378  0.998  0.070 -0.205 -0.281 -0.311 -0.311
 0.380  0.999  0.071 -0.204 -0.280 -0.310 -0.310
 0.382  1.000  0.073 -0.203 -0.279 -0.309 -0.309
 0.384  1.001  0.075 -0.202 -0.278 -0.309 -0.309
 0.386  1.001  0.076 -0.201 -0.278 -0.308 -0.308
 0.388  1.002  0.078 -0.200 -0.277 -0.308 -0.308
 0.390  1.004  0.079 -0.199 -0.276 -0.307 -0.307
 0.392  1.004  0.081 -0.199 -0.275 -0.307 -0.307
 0.394  1.005  0.082 -0.198 -0.274 -0.306 -0.306
 0.396  1.006  0.083 -0.197 -0.273 -0.305 -0.305
 0.398  1.007  0.085 -0.196 -0.273 -0.305 -0.305
 0.400  1.008  0.086 -0.195 -0.272 -0.304 -0.304
 0.402  1.009  0.087 -0.194 -0.271 -0.304 -0.304
 0.404  1.010  0.089 -0.194 -0.270 -0.303 -0.303
 0.406  1.011  0.090 -0.193 -0.269 -0.302 -0.302
 0.408  1.011  0.091 -0.192 -0.269 -0.302 -0.302
 0.410  1.012  0.093 -0.191 -0.268 -0.301 -0.301
 0.412  1.013  0.094 -0.190 -0.267 -0.301 -0.301
 0.414  1.014  0.095 -0.189 -0.266 -0.300 -0.300
 0.416  1.014  0.097 -0.188 -0.265 -0.300 -0.300
 0.418  1.015  0.098 -0.188 -0.265 -0.299 -0.299
 0.420  1.016  0.099 -0.187 -0.264 -0.298 -0.298
 0.422  1.017  0.100 -0.186 -0.263 -0.298 -0.298
 0.424  1.017  0.101 -0.185 -0.263 -0.297 -0.297
 0.426  1.018  0.102 -0.185 -0.262 -0.297 -0.297
 0.428  1.019  0.104 -0.184 -0.261 -0.296 -0.296
 0.430  1.019  0.105 -0.183 -0.260 -0.295 -0.295
 0.432  1.020  0.106 -0.182 -0.259 -0.295 -0.295
 0.434  1.021  0.107 -0.182 -0.259 -0.294 -0.294
 0.436  1.021  0.108 -0.181 -0.258 -0.293 -0.293
 0.438  1.022  0.109 -0.180 -0.257 -0.293 -0.293
 0.440  1.023  0.110 -0.179 -0.256 -0.292 -0.292
 0.442  1.024  0.111 -0.179 -0.256 -0.292 -0.292
 0.444  1.024  0.112 -0.178 -0.255 -0.291 -0.291
 0.446  1.025  0.113 -0.177 -0.254 -0.290 -0.290
 0.448  1.026  0.113 -0.177 -0.254 -0.290 -0.290
 0.450  1.026  0.114 -0.176 -0.253 -0.289 -0.289
 0.452  1.027  0.115 -0.175 -0.252 -0.288 -0.288
 0.454  1.028  0.116 -0.174 -0.251 -0.288 -0.288
 0.456  1.029  0.117 -0.174 -0.251 -0.287 -0.287
 0.458  1.029  0.117 -0.173 -0.250 -0.287 -0.287
 0.460  1.030  0.118 -0.172 -0.249 -0.286 -0.286
 0.462  1.031  0.119 -0.172 -0.249 -0.286 -0.286
 0.464  1.031  0.120 -0.171 -0.248 -0.285 -0.285
 0.466  1.032  0.121 -0.170 -0.247 -0.285 -0.285
 0.468  1.033  0.122 -0.169 -0.247 -0.284 -0.284
 0.470  1.034  0.123 -0.169 -0.246 -0.284 -0.284
 0.472  1.035  0.124 -0.168 -0.245 -0.283 -0.283
 0.474  1.035  0.124 -0.168 -0.245 -0.282 -0.282
 0.476  1.036  0.125 -0.167 -0.244 -0.282 -0.282
 0.478  1.037  0.126 -0.166 -0.243 -0.281 -0.281
 0.480  1.038  0.127 -0.166 -0.242 -0.281 -0.281
 0.482  1.038  0.128 -0.165 -0.242 -0.281 -0.281
 0.484  1.039  0.129 -0.164 -0.241 -0.280 -0.280
 0.486  1.040  0.130 -0.164 -0.240 -0.280 -0.280
 0.488  1.041  0.130 -0.163 -0.240 -0.279 -0.279
 0.490  1.042  0.131 -0.163 -0.239 -0.279 -0.279
 0.492  1.042  0.132 -0.162 -0.238 -0.278 -0.278
 0.494  1.043  0.133 -0.161 -0.237 -0.278 -0.278
 0.496  1.044  0.134 -0.161 -0.237 -0.277 -0.277
 0.498  1.045  0.135 -0.160 -0.236 -0.277 -0.277
 0.500  1.046  0.135 -0.160 -0.235 -0.276 -0.276
 0.502  1.047  0.136 -0.159 -0.235 -0.276 -0.276
 0.504  1.048  0.137 -0.158 -0.234 -0.276 -0.276
 0.506  1.048  0.138 -0.158 -0.233 -0.275 -0.275
 0.508  1.049  0.139 -0.157 -0.233 -0.275 -0.275
 0.510  1.050  0.140 -0.157 -0.232 -0.275 -0.275
 0.512  1.051  0.140 -0.156 -0.231 -0.274 -0.274
 0.514  1.051  0.141 -0.156 -0.231 -0.274 -0.274
 0.516  1.052  0.142 -0.155 -0.230 -0.273 -0.273
 0.518  1.053  0.143 -0.154 -0.229 -0.273 -0.273
 0.520  1.054  0.144 -0.154 -0.229 -0.273 -0.273
 0.522  1.054  0.144 -0.153 -0.228 -0.272 -0.272
 0.524  1.055  0.145 -0.153 -0.227 -0.272 -0.272
 0.526  1.055  0.146 -0.152 -0.226 -0.272 -0.272
 0.528  1.056  0.146 -0.152 -0.226 -0.271 -0.271
 0.530  1.056  0.147 -0.152 -0.225 -0.271 -0.271
 0.532  1.057  0.147 -0.151 -0.225 -0.271 -0.271
 0.534  1.057  0.148 -0.151 -0.224 -0.270 -0.270
 0.536  1.058  0.148 -0.150 -0.223 -0.270 -0.270
 0.538  1.058  0.149 -0.150 -0.223 -0.270 -0.270
 0.540  1.058  0.149 -0.149 -0.222 -0.269 -0.269
 0.542  1.059  0.150 -0.149 -0.222 -0.269 -0.269
 0.544  1.059  0.150 -0.148 -0.221 -0.269 -0.269
 0.546  1.060  0.150 -0.148 -0.220 -0.268 -0.268
 0.548  1.060  0.151 -0.148 -0.220 -0.268 -0.268
 0.550  1.060  0.151 -0.147 -0.219 -0.268 -0.268
 0.552  1.060  0.151 -0.147 -0.219 -0.267 -0.267
 0.554  1.060  0.151 -0.147 -0.218 -0.267 -0.267
 0.556  1.060  0.152 -0.146 -0.217 -0.267 -0.267
 0.558  1.061  0.152 -0.146 -0.217 -0.266 -0.266
 0.560  1.061  0.152 -0.146 -0.216 -0.266 -0.266
 0.562  1.061  0.152 -0.145 -0.216 -0.266 -0.266
 0.564  1.061  0.152 -0.145 -0.215 -0.265 -0.265
 0.566  1.061  0.152 -0.145 -0.215 -0.265 -0.265
 0.568  1.061  0.152 -0.145 -0.214 -0.265 -0.265
 0.570  1.061  0.152 -0.144 -0.214 -0.264 -0.264
 0.572  1.060  0.152 -0.144 -0.213 -0.264 -0.264
 0.574  1.060  0.152 -0.144 -0.213 -0.264 -0.264
 0.576  1.060  0.152 -0.144 -0.212 -0.264 -0.264
 0.578  1.060  0.151 -0.144 -0.212 -0.263 -0.263
 0.580  1.060  0.151 -0.143 -0.211 -0.263 -0.263
 0.582  1.060  0.151 -0.143 -0.211 -0.263 -0.263
 0.584  1.060  0.150 -0.143 -0.210 -0.262 -0.262
 0.586  1.060  0.150 -0.143 -0.210 -0.262 -0.262
 0.588  1.060  0.150 -0.143 -0.209 -0.262 -0.262
 0.590  1.059  0.150 -0.143 -0.209 -0.261 -0.261
 0.592  1.059  0.149 -0.142 -0.208 -0.261 -0.261
 0.594  1.059  0.149 -0.142 -0.208 -0.261 -0.261
 0.596  1.059  0.149 -0.142 -0.207 -0.261 -0.261
 0.598  1.059  0.148 -0.142 -0.207 -0.260 -0.260
 0.600  1.059  0.148 -0.142 -0.207 -0.260 -0.260
 0.602  1.059  0.148 -0.142 -0.206 -0.260 -0.260
 0.604  1.059  0.148 -0.141 -0.206 -0.260 -0.260
 0.606  1.059  0.147 -0.141 -0.205 -0.259 -0.259
 0.608  1.058  0.147 -0.141 -0.205 -0.259 -0.259
 0.610  1.058  0.147 -0.141 -0.205 -0.259 -0.259
 0.612  1.058  0.147 -0.141 -0.204 -0.259 -0.259
 0.614  1.058  0.147 -0.141 -0.204 -0.258 -0.258
 0.616  1.058  0.147 -0.140 -0.203 -0.258 -0.258
 0.618  1.058  0.147 -0.140 -0.203 -0.258 -0.258
 0.620  1.058  0.147 -0.140 -0.203 -0.258 -0.258
 0.622  1.058  0.147 -0.140 -0.202 -0.257 -0.257
 0.624  1.058  0.147 -0.140 -0.202 -0.257 -0.257
 0.626  1.058  0.148 -0.139 -0.202 -0.257 -0.257
 0.628  1.058  0.148 -0.139 -0.201 -0.257 -0.257
 0.630  1.058  0.148 -0.139 -0.201 -0.256 -0.256
 0.632  1.058  0.148 -0.139 -0.200 -0.256 -0.256
 0.634  1.058  0.149 -0.138 -0.200 -0.256 -0.256
 0.636  1.059  0.149 -0.138 -0.200 -0.256 -0.256
 0.638  1.059  0.149 -0.138 -0.199 -0.255 -0.255
 0.640  1.059  0.150 -0.138 -0.199 -0.255 -0.255
 0.642  1.059  0.150 -0.138 -0.199 -0.255 -0.255
 0.644  1.059  0.151 -0.137 -0.198 -0.255 -0.255
 0.646  1.059  0.151 -0.137 -0.198 -0.255 -0.255
 0.648  1.059  0.152 -0.137 -0.198 -0.255 -0.255
 0.650  1.059  0.152 -0.137 -0.197 -0.254 -0.254
 0.652  1.060  0.153 -0.136 -0.197 -0.254 -0.254
 0.654  1.060  0.154 -0.136 -0.197 -0.254 -0.254
 0.656  1.060  0.154 -0.136 -0.196 -0.254 -0.254
 0.658  1.060  0.155 -0.136 -0.196 -0.254 -0.254
 0.660  1.060  0.156 -0.135 -0.196 -0.253 -0.253
 0.662  1.060  0.156 -0.135 -0.196 -0.253 -0.253
 0.664  1.060  0.157 -0.135 -0.195 -0.253 -0.253
 0.666  1.060  0.158 -0.134 -0.195 -0.253 -0.253
 0.668  1.060  0.159 -0.134 -0.195 -0.253 -0.253
 0.670  1.061  0.159 -0.133 -0.194 -0.253 -0.253
 0.672  1.061  0.160 -0.132 -0.194 -0.252 -0.252
 0.674  1.061  0.161 -0.132 -0.193 -0.252 -0.252
 0.676  1.061  0.161 -0.131 -0.193 -0.252 -0.252
 0.678  1.061  0.162 -0.130 -0.193 -0.252 -0.252
 0.680  1.061  0.163 -0.130 -0.192 -0.252 -0.252
 0.682  1.061  0.164 -0.129 -0.192 -0.252 -0.252
 0.684  1.062  0.164 -0.128 -0.191 -0.252 -0.252
 0.686  1.062  0.165 -0.127 -0.191 -0.252 -0.252
 0.688  1.062  0.165 -0.126 -0.190 -0.252 -0.252
 0.690  1.062  0.166 -0.125 -0.190 -0.251 -0.251
 0.692  1.062  0.167 -0.124 -0.189 -0.251 -0.251
 0.694  1.062  0.167 -0.123 -0.189 -0.251 -0.251
 0.696  1.063  0.168 -0.122 -0.189 -0.251 -0.251
 0.698  1.063  0.168 -0.121 -0.188 -0.251 -0.251
 0.700  1.063  0.169 -0.119 -0.188 -0.251 -0.251
 0.702  1.063  0.170 -0.118 -0.187 -0.251 -0.251
 0.704  1.063  0.170 -0.117 -0.187 -0.251 -0.251
 0.706  1.064  0.171 -0.116 -0.186 -0.251 -0.251
 0.708  1.064  0.171 -0.114 -0.186 -0.251 -0.251
 0.710  1.064  0.172 -0.113 -0.185 -0.251 -0.251
 0.712  1.064  0.172 -0.111 -0.184 -0.251 -0.251
 0.714  1.064  0.173 -0.110 -0.184 -0.251 -0.251
 0.716  1.065  0.173 -0.108 -0.183 -0.251 -0.251
 0.718  1.065  0.174 -0.106 -0.182 -0.251 -0.251
 0.720  1.065  0.175 -0.104 -0.182 -0.251 -0.251
 0.722  1.065  0.175 -0.103 -0.181 -0.251 -0.251
 0.724  1.066  0.175 -0.101 -0.180 -0.251 -0.251
 0.726  1.066  0.176 -0.099 -0.180 -0.251 -0.251
 0.728  1.067  0.176 -0.098 -0.179 -0.251 -0.251
 0.730  1.067  0.177 -0.096 -0.178 -0.251 -0.251
 0.732  1.068  0.177 -0.095 -0.178 -0.251 -0.251
 0.734  1.068  0.178 -0.093 -0.177 -0.251 -0.251
 0.736  1.069  0.178 -0.092 -0.177 -0.251 -0.251
 0.738  1.069  0.178 -0.091 -0.176 -0.250 -0.250
 0.740  1.070  0.178 -0.089 -0.176 -0.250 -0.250
 0.742  1.070  0.179 -0.088 -0.176 -0.250 -0.250
 0.744  1.071  0.179 -0.087 -0.176 -0.249 -0.249
 0.746  1.072  0.179 -0.086 -0.175 -0.249 -0.249
 0.748  1.073  0.179 -0.085 -0.175 -0.248 -0.248
 0.750  1.073  0.179 -0.084 -0.175 -0.248 -0.248
 0.752  1.074  0.179 -0.084 -0.176 -0.247 -0.247
 0.754  1.075  0.178 -0.083 -0.176 -0.247 -0.247
 0.756  1.075  0.178 -0.083 -0.176 -0.246 -0.246
 0.758  1.076  0.178 -0.082 -0.177 -0.245 -0.245
 0.760  1.077  0.177 -0.082 -0.177 -0.244 -0.244
 0.762  1.078  0.177 -0.082 -0.178 -0.243 -0.243
 0.764  1.079  0.177 -0.082 -0.178 -0.242 -0.242
 0.766  1.080  0.176 -0.082 -0.179 -0.241 -0.241
 0.768  1.081  0.175 -0.082 -0.180 -0.240 -0.240
 0.770  1.082  0.175 -0.082 -0.181 -0.239 -0.239
 0.772  1.083  0.174 -0.083 -0.182 -0.238 -0.238
 0.774  1.085  0.173 -0.083 -0.183 -0.237 -0.237
 0.776  1.086  0.172 -0.084 -0.184 -0.235 -0.235
 0.778  1.087  0.171 -0.084 -0.186 -0.234 -0.234
 0.780  1.088  0.170 -0.085 -0.187 -0.233 -0.233
 0.782  1.090  0.169 -0.086 -0.188 -0.231 -0.231
 0.784  1.091  0.168 -0.087 -0.190 -0.230 -0.230
 0.786  1.092  0.167 -0.088 -0.191 -0.228 -0.228
 0.788  1.093  0.166 -0.089 -0.193 -0.227 -0.227
 0.790  1.095  0.164 -0.090 -0.195 -0.225 -0.225
 0.792  1.096  0.163 -0.092 -0.197 -0.223 -0.223
 0.794  1.097  0.162 -0.093 -0.199 -0.222 -0.222
 0.796  1.098  0.160 -0.094 -0.201 -0.220 -0.220
 0.798  1.099  0.159 -0.096 -0.203 -0.218 -0.218
 0.800  1.099  0.157 -0.098 -0.205 -0.217 -0.217
 0.802  1.100  0.156 -0.099 -0.207 -0.215 -0.215
 0.804  1.100  0.154 -0.101 -0.210 -0.213 -0.213
 0.806  1.101  0.152 -0.103 -0.212 -0.212 -0.212
 0.808  1.101  0.150 -0.105 -0.214 -0.210 -0.210
