# IsPeriodic    : True
# Period        : 0.536478 days
# Normalization : <g_mag>=0
# 
# Phase u_mag  g_mag  r_mag  i_mag  z_mag  y_mag
 0.000  0.357 -0.814 -0.686 -0.585 -0.492 -0.492
 0.002  0.357 -0.814 -0.686 -0.585 -0.492 -0.492
 0.004  0.359 -0.813 -0.685 -0.585 -0.492 -0.492
 0.006  0.362 -0.811 -0.685 -0.584 -0.491 -0.491
 0.008  0.365 -0.809 -0.684 -0.582 -0.491 -0.491
 0.010  0.370 -0.807 -0.683 -0.581 -0.491 -0.491
 0.012  0.374 -0.803 -0.681 -0.580 -0.490 -0.490
 0.014  0.381 -0.799 -0.680 -0.577 -0.489 -0.489
 0.016  0.387 -0.796 -0.679 -0.575 -0.489 -0.489
 0.018  0.395 -0.791 -0.678 -0.572 -0.487 -0.487
 0.020  0.402 -0.786 -0.676 -0.570 -0.486 -0.486
 0.022  0.410 -0.782 -0.673 -0.567 -0.486 -0.486
 0.024  0.417 -0.777 -0.672 -0.565 -0.484 -0.484
 0.026  0.425 -0.772 -0.669 -0.562 -0.482 -0.482
 0.028  0.433 -0.767 -0.667 -0.560 -0.481 -0.481
 0.030  0.440 -0.761 -0.665 -0.557 -0.480 -0.480
 0.032  0.448 -0.756 -0.662 -0.555 -0.478 -0.478
 0.034  0.455 -0.752 -0.658 -0.552 -0.476 -0.476
 0.036  0.462 -0.746 -0.656 -0.550 -0.474 -0.474
 0.038  0.469 -0.741 -0.652 -0.547 -0.473 -0.473
 0.040  0.475 -0.735 -0.650 -0.544 -0.471 -0.471
 0.042  0.484 -0.729 -0.645 -0.542 -0.468 -0.468
 0.044  0.490 -0.723 -0.642 -0.539 -0.466 -0.466
 0.046  0.497 -0.717 -0.638 -0.536 -0.464 -0.464
 0.048  0.504 -0.711 -0.634 -0.533 -0.461 -0.461
 0.050  0.511 -0.705 -0.629 -0.530 -0.458 -0.458
 0.052  0.518 -0.698 -0.625 -0.527 -0.456 -0.456
 0.054  0.525 -0.691 -0.621 -0.524 -0.453 -0.453
 0.056  0.533 -0.684 -0.616 -0.520 -0.450 -0.450
 0.058  0.540 -0.677 -0.611 -0.517 -0.447 -0.447
 0.060  0.547 -0.669 -0.606 -0.513 -0.444 -0.444
 0.062  0.554 -0.661 -0.600 -0.509 -0.440 -0.440
 0.064  0.561 -0.654 -0.595 -0.506 -0.437 -0.437
 0.066  0.567 -0.645 -0.590 -0.502 -0.434 -0.434
 0.068  0.574 -0.637 -0.585 -0.499 -0.431 -0.431
 0.070  0.581 -0.629 -0.578 -0.495 -0.427 -0.427
 0.072  0.588 -0.620 -0.573 -0.491 -0.423 -0.423
 0.074  0.595 -0.612 -0.567 -0.488 -0.419 -0.419
 0.076  0.602 -0.604 -0.562 -0.484 -0.416 -0.416
 0.078  0.609 -0.595 -0.556 -0.480 -0.413 -0.413
 0.080  0.616 -0.587 -0.550 -0.476 -0.409 -0.409
 0.082  0.622 -0.579 -0.544 -0.473 -0.405 -0.405
 0.084  0.628 -0.570 -0.539 -0.469 -0.402 -0.402
 0.086  0.635 -0.562 -0.534 -0.465 -0.398 -0.398
 0.088  0.642 -0.554 -0.527 -0.461 -0.395 -0.395
 0.090  0.648 -0.545 -0.522 -0.458 -0.392 -0.392
 0.092  0.655 -0.537 -0.518 -0.454 -0.389 -0.389
 0.094  0.662 -0.528 -0.512 -0.451 -0.386 -0.386
 0.096  0.668 -0.521 -0.507 -0.448 -0.383 -0.383
 0.098  0.674 -0.513 -0.503 -0.444 -0.380 -0.380
 0.100  0.680 -0.506 -0.498 -0.441 -0.377 -0.377
 0.102  0.687 -0.497 -0.493 -0.438 -0.374 -0.374
 0.104  0.693 -0.490 -0.489 -0.434 -0.371 -0.371
 0.106  0.699 -0.483 -0.483 -0.431 -0.369 -0.369
 0.108  0.706 -0.476 -0.479 -0.428 -0.366 -0.366
 0.110  0.711 -0.469 -0.475 -0.425 -0.364 -0.364
 0.112  0.717 -0.462 -0.470 -0.422 -0.361 -0.361
 0.114  0.723 -0.456 -0.466 -0.419 -0.359 -0.359
 0.116  0.729 -0.448 -0.462 -0.416 -0.356 -0.356
 0.118  0.734 -0.442 -0.458 -0.413 -0.354 -0.354
 0.120  0.740 -0.435 -0.454 -0.410 -0.352 -0.352
 0.122  0.746 -0.429 -0.450 -0.408 -0.350 -0.350
 0.124  0.750 -0.423 -0.446 -0.405 -0.348 -0.348
 0.126  0.756 -0.417 -0.442 -0.403 -0.345 -0.345
 0.128  0.762 -0.411 -0.439 -0.400 -0.344 -0.344
 0.130  0.766 -0.405 -0.435 -0.398 -0.342 -0.342
 0.132  0.772 -0.400 -0.432 -0.395 -0.340 -0.340
 0.134  0.777 -0.394 -0.428 -0.393 -0.338 -0.338
 0.136  0.783 -0.389 -0.425 -0.390 -0.337 -0.337
 0.138  0.787 -0.383 -0.421 -0.388 -0.335 -0.335
 0.140  0.793 -0.378 -0.418 -0.385 -0.334 -0.334
 0.142  0.798 -0.373 -0.415 -0.383 -0.332 -0.332
 0.144  0.802 -0.367 -0.411 -0.381 -0.331 -0.331
 0.146  0.807 -0.362 -0.409 -0.379 -0.329 -0.329
 0.148  0.811 -0.358 -0.405 -0.377 -0.327 -0.327
 0.150  0.816 -0.353 -0.403 -0.375 -0.326 -0.326
 0.152  0.821 -0.348 -0.399 -0.373 -0.324 -0.324
 0.154  0.825 -0.343 -0.396 -0.371 -0.323 -0.323
 0.156  0.830 -0.339 -0.394 -0.369 -0.321 -0.321
 0.158  0.834 -0.334 -0.390 -0.367 -0.320 -0.320
 0.160  0.839 -0.330 -0.388 -0.365 -0.318 -0.318
 0.162  0.842 -0.325 -0.384 -0.363 -0.317 -0.317
 0.164  0.847 -0.321 -0.382 -0.361 -0.316 -0.316
 0.166  0.852 -0.316 -0.379 -0.359 -0.314 -0.314
 0.168  0.856 -0.311 -0.375 -0.357 -0.313 -0.313
 0.170  0.860 -0.306 -0.373 -0.355 -0.311 -0.311
 0.172  0.864 -0.302 -0.369 -0.353 -0.310 -0.310
 0.174  0.869 -0.297 -0.367 -0.351 -0.308 -0.308
 0.176  0.873 -0.292 -0.363 -0.349 -0.306 -0.306
 0.178  0.877 -0.287 -0.360 -0.347 -0.305 -0.305
 0.180  0.881 -0.283 -0.358 -0.345 -0.303 -0.303
 0.182  0.886 -0.278 -0.354 -0.342 -0.302 -0.302
 0.184  0.890 -0.273 -0.352 -0.340 -0.300 -0.300
 0.186  0.894 -0.268 -0.348 -0.339 -0.298 -0.298
 0.188  0.899 -0.262 -0.346 -0.337 -0.297 -0.297
 0.190  0.902 -0.257 -0.343 -0.334 -0.295 -0.295
 0.192  0.907 -0.253 -0.339 -0.332 -0.293 -0.293
 0.194  0.910 -0.248 -0.337 -0.330 -0.292 -0.292
 0.196  0.915 -0.243 -0.334 -0.328 -0.290 -0.290
 0.198  0.919 -0.238 -0.331 -0.326 -0.289 -0.289
 0.200  0.923 -0.234 -0.328 -0.324 -0.287 -0.287
 0.202  0.927 -0.229 -0.324 -0.322 -0.285 -0.285
 0.204  0.931 -0.224 -0.322 -0.319 -0.284 -0.284
 0.206  0.936 -0.218 -0.319 -0.318 -0.282 -0.282
 0.208  0.940 -0.213 -0.316 -0.316 -0.281 -0.281
 0.210  0.944 -0.208 -0.313 -0.314 -0.279 -0.279
 0.212  0.948 -0.204 -0.310 -0.312 -0.277 -0.277
 0.214  0.952 -0.198 -0.307 -0.309 -0.276 -0.276
 0.216  0.956 -0.193 -0.304 -0.307 -0.274 -0.274
 0.218  0.960 -0.188 -0.302 -0.305 -0.272 -0.272
 0.220  0.964 -0.183 -0.299 -0.303 -0.271 -0.271
 0.222  0.968 -0.177 -0.295 -0.301 -0.269 -0.269
 0.224  0.972 -0.173 -0.293 -0.299 -0.267 -0.267
 0.226  0.976 -0.168 -0.290 -0.296 -0.265 -0.265
 0.228  0.980 -0.163 -0.288 -0.294 -0.264 -0.264
 0.230  0.984 -0.158 -0.284 -0.292 -0.262 -0.262
 0.232  0.988 -0.154 -0.281 -0.290 -0.260 -0.260
 0.234  0.992 -0.149 -0.279 -0.288 -0.259 -0.259
 0.236  0.995 -0.144 -0.276 -0.286 -0.257 -0.257
 0.238  1.000 -0.139 -0.273 -0.284 -0.255 -0.255
 0.240  1.003 -0.134 -0.271 -0.282 -0.254 -0.254
 0.242  1.007 -0.130 -0.268 -0.280 -0.252 -0.252
 0.244  1.011 -0.125 -0.266 -0.278 -0.251 -0.251
 0.246  1.015 -0.120 -0.263 -0.276 -0.249 -0.249
 0.248  1.018 -0.117 -0.260 -0.274 -0.247 -0.247
 0.250  1.022 -0.112 -0.258 -0.272 -0.246 -0.246
 0.252  1.025 -0.107 -0.255 -0.270 -0.244 -0.244
 0.254  1.029 -0.103 -0.252 -0.268 -0.243 -0.243
 0.256  1.032 -0.099 -0.250 -0.266 -0.241 -0.241
 0.258  1.036 -0.094 -0.248 -0.264 -0.240 -0.240
 0.260  1.039 -0.090 -0.245 -0.262 -0.238 -0.238
 0.262  1.043 -0.086 -0.243 -0.261 -0.236 -0.236
 0.264  1.046 -0.082 -0.240 -0.258 -0.235 -0.235
 0.266  1.049 -0.078 -0.237 -0.256 -0.233 -0.233
 0.268  1.053 -0.074 -0.236 -0.255 -0.232 -0.232
 0.270  1.055 -0.070 -0.233 -0.253 -0.230 -0.230
 0.272  1.059 -0.066 -0.230 -0.251 -0.229 -0.229
 0.274  1.062 -0.062 -0.229 -0.249 -0.227 -0.227
 0.276  1.066 -0.058 -0.226 -0.247 -0.226 -0.226
 0.278  1.068 -0.054 -0.223 -0.246 -0.224 -0.224
 0.280  1.071 -0.051 -0.222 -0.243 -0.222 -0.222
 0.282  1.074 -0.047 -0.219 -0.242 -0.221 -0.221
 0.284  1.077 -0.044 -0.217 -0.240 -0.219 -0.219
 0.286  1.080 -0.040 -0.215 -0.238 -0.218 -0.218
 0.288  1.083 -0.037 -0.212 -0.236 -0.216 -0.216
 0.290  1.085 -0.033 -0.210 -0.235 -0.215 -0.215
 0.292  1.089 -0.029 -0.208 -0.233 -0.213 -0.213
 0.294  1.091 -0.026 -0.206 -0.231 -0.212 -0.212
 0.296  1.093 -0.022 -0.203 -0.229 -0.210 -0.210
 0.298  1.097 -0.019 -0.201 -0.228 -0.209 -0.209
 0.300  1.099 -0.015 -0.199 -0.226 -0.208 -0.208
 0.302  1.101 -0.011 -0.196 -0.224 -0.206 -0.206
 0.304  1.105 -0.009 -0.194 -0.223 -0.205 -0.205
 0.306  1.107 -0.006 -0.192 -0.221 -0.203 -0.203
 0.308  1.109 -0.002 -0.190 -0.219 -0.201 -0.201
 0.310  1.112  0.002 -0.187 -0.217 -0.200 -0.200
 0.312  1.115  0.005 -0.185 -0.215 -0.198 -0.198
 0.314  1.117  0.008 -0.183 -0.213 -0.197 -0.197
 0.316  1.120  0.011 -0.180 -0.212 -0.196 -0.196
 0.318  1.123  0.015 -0.178 -0.210 -0.194 -0.194
 0.320  1.125  0.018 -0.175 -0.208 -0.193 -0.193
 0.322  1.128  0.022 -0.173 -0.207 -0.192 -0.192
 0.324  1.131  0.026 -0.171 -0.205 -0.190 -0.190
 0.326  1.133  0.028 -0.168 -0.203 -0.188 -0.188
 0.328  1.137  0.032 -0.165 -0.201 -0.187 -0.187
 0.330  1.139  0.035 -0.164 -0.200 -0.185 -0.185
 0.332  1.143  0.039 -0.161 -0.198 -0.184 -0.184
 0.334  1.145  0.041 -0.158 -0.196 -0.183 -0.183
 0.336  1.147  0.045 -0.156 -0.194 -0.181 -0.181
 0.338  1.151  0.048 -0.153 -0.193 -0.180 -0.180
 0.340  1.154  0.052 -0.151 -0.190 -0.179 -0.179
 0.342  1.156  0.055 -0.149 -0.189 -0.177 -0.177
 0.344  1.160  0.058 -0.146 -0.187 -0.176 -0.176
 0.346  1.162  0.061 -0.143 -0.185 -0.174 -0.174
 0.348  1.166  0.065 -0.141 -0.183 -0.173 -0.173
 0.350  1.168  0.067 -0.138 -0.182 -0.172 -0.172
 0.352  1.171  0.071 -0.135 -0.180 -0.170 -0.170
 0.354  1.175  0.074 -0.133 -0.178 -0.169 -0.169
 0.356  1.177  0.078 -0.130 -0.176 -0.167 -0.167
 0.358  1.181  0.080 -0.128 -0.175 -0.166 -0.166
 0.360  1.184  0.084 -0.126 -0.172 -0.164 -0.164
 0.362  1.187  0.088 -0.123 -0.171 -0.163 -0.163
 0.364  1.190  0.090 -0.121 -0.169 -0.162 -0.162
 0.366  1.193  0.094 -0.118 -0.167 -0.161 -0.161
 0.368  1.197  0.097 -0.115 -0.165 -0.159 -0.159
 0.370  1.200  0.101 -0.113 -0.164 -0.158 -0.158
 0.372  1.202  0.103 -0.110 -0.162 -0.156 -0.156
 0.374  1.206  0.107 -0.108 -0.160 -0.155 -0.155
 0.376  1.209  0.110 -0.106 -0.159 -0.153 -0.153
 0.378  1.213  0.113 -0.103 -0.157 -0.152 -0.152
 0.380  1.216  0.116 -0.100 -0.155 -0.151 -0.151
 0.382  1.218  0.120 -0.099 -0.153 -0.149 -0.149
 0.384  1.222  0.123 -0.096 -0.152 -0.148 -0.148
 0.386  1.225  0.126 -0.093 -0.150 -0.146 -0.146
 0.388  1.228  0.129 -0.091 -0.148 -0.145 -0.145
 0.390  1.231  0.133 -0.089 -0.146 -0.143 -0.143
 0.392  1.235  0.137 -0.086 -0.145 -0.142 -0.142
 0.394  1.237  0.139 -0.085 -0.142 -0.140 -0.140
 0.396  1.240  0.143 -0.082 -0.141 -0.139 -0.139
 0.398  1.243  0.146 -0.079 -0.140 -0.138 -0.138
 0.400  1.246  0.149 -0.077 -0.137 -0.136 -0.136
 0.402  1.248  0.152 -0.075 -0.136 -0.135 -0.135
 0.404  1.252  0.156 -0.073 -0.134 -0.133 -0.133
 0.406  1.254  0.159 -0.070 -0.132 -0.132 -0.132
 0.408  1.258  0.162 -0.069 -0.130 -0.130 -0.130
 0.410  1.260  0.165 -0.066 -0.129 -0.129 -0.129
 0.412  1.263  0.169 -0.064 -0.127 -0.127 -0.127
 0.414  1.266  0.172 -0.063 -0.125 -0.125 -0.125
 0.416  1.268  0.175 -0.060 -0.124 -0.124 -0.124
 0.418  1.271  0.178 -0.058 -0.122 -0.123 -0.123
 0.420  1.274  0.182 -0.056 -0.120 -0.121 -0.121
 0.422  1.276  0.186 -0.054 -0.119 -0.120 -0.120
 0.424  1.278  0.189 -0.052 -0.117 -0.118 -0.118
 0.426  1.282  0.191 -0.049 -0.115 -0.117 -0.117
 0.428  1.284  0.195 -0.048 -0.114 -0.115 -0.115
 0.430  1.286  0.199 -0.046 -0.112 -0.114 -0.114
 0.432  1.289  0.202 -0.044 -0.110 -0.112 -0.112
 0.434  1.291  0.205 -0.041 -0.108 -0.111 -0.111
 0.436  1.293  0.208 -0.040 -0.107 -0.109 -0.109
 0.438  1.296  0.212 -0.038 -0.105 -0.108 -0.108
 0.440  1.298  0.215 -0.036 -0.103 -0.106 -0.106
 0.442  1.300  0.218 -0.034 -0.102 -0.104 -0.104
 0.444  1.302  0.221 -0.032 -0.100 -0.103 -0.103
 0.446  1.305  0.224 -0.030 -0.098 -0.102 -0.102
 0.448  1.307  0.227 -0.028 -0.097 -0.100 -0.100
 0.450  1.309  0.230 -0.027 -0.095 -0.099 -0.099
 0.452  1.312  0.233 -0.024 -0.094 -0.098 -0.098
 0.454  1.314  0.236 -0.022 -0.091 -0.096 -0.096
 0.456  1.316  0.238 -0.020 -0.090 -0.095 -0.095
 0.458  1.319  0.242 -0.019 -0.089 -0.093 -0.093
 0.460  1.321  0.244 -0.016 -0.086 -0.091 -0.091
 0.462  1.323  0.246 -0.014 -0.085 -0.090 -0.090
 0.464  1.324  0.249 -0.012 -0.084 -0.089 -0.089
 0.466  1.327  0.251 -0.011 -0.082 -0.088 -0.088
 0.468  1.329  0.254 -0.009 -0.081 -0.086 -0.086
 0.470  1.331  0.256 -0.007 -0.079 -0.085 -0.085
 0.472  1.332  0.258 -0.005 -0.077 -0.083 -0.083
 0.474  1.335  0.261 -0.003 -0.076 -0.082 -0.082
 0.476  1.337  0.263 -0.001 -0.074 -0.080 -0.080
 0.478  1.339  0.266  0.001 -0.073 -0.079 -0.079
 0.480  1.340  0.267  0.002 -0.071 -0.078 -0.078
 0.482  1.343  0.269  0.004 -0.069 -0.077 -0.077
 0.484  1.345  0.271  0.007 -0.068 -0.075 -0.075
 0.486  1.346  0.273  0.009 -0.066 -0.074 -0.074
 0.488  1.348  0.275  0.010 -0.065 -0.072 -0.072
 0.490  1.350  0.276  0.012 -0.064 -0.071 -0.071
 0.492  1.352  0.279  0.014 -0.062 -0.070 -0.070
 0.494  1.353  0.280  0.016 -0.061 -0.069 -0.069
 0.496  1.355  0.281  0.017 -0.059 -0.067 -0.067
 0.498  1.358  0.283  0.019 -0.057 -0.066 -0.066
 0.500  1.359  0.285  0.022 -0.056 -0.065 -0.065
 0.502  1.361  0.286  0.024 -0.054 -0.064 -0.064
 0.504  1.362  0.287  0.025 -0.053 -0.062 -0.062
 0.506  1.363  0.288  0.027 -0.051 -0.061 -0.061
 0.508  1.366  0.289  0.028 -0.050 -0.060 -0.060
 0.510  1.367  0.291  0.030 -0.048 -0.059 -0.059
 0.512  1.369  0.292  0.031 -0.047 -0.058 -0.058
 0.514  1.370  0.293  0.033 -0.046 -0.056 -0.056
 0.516  1.371  0.294  0.035 -0.044 -0.055 -0.055
 0.518  1.374  0.295  0.036 -0.043 -0.054 -0.054
 0.520  1.375  0.297  0.038 -0.042 -0.053 -0.053
 0.522  1.376  0.298  0.039 -0.041 -0.052 -0.052
 0.524  1.377  0.299  0.040 -0.039 -0.051 -0.051
 0.526  1.380  0.300  0.041 -0.038 -0.049 -0.049
 0.528  1.381  0.301  0.043 -0.037 -0.048 -0.048
 0.530  1.382  0.301  0.044 -0.036 -0.048 -0.048
 0.532  1.383  0.303  0.046 -0.035 -0.046 -0.046
 0.534  1.384  0.304  0.046 -0.034 -0.045 -0.045
 0.536  1.384  0.305  0.047 -0.033 -0.045 -0.045
 0.538  1.385  0.305  0.048 -0.032 -0.043 -0.043
 0.540  1.386  0.306  0.049 -0.031 -0.043 -0.043
 0.542  1.388  0.307  0.050 -0.030 -0.041 -0.041
 0.544  1.388  0.307  0.051 -0.029 -0.041 -0.041
 0.546  1.389  0.308  0.052 -0.028 -0.040 -0.040
 0.548  1.390  0.308  0.053 -0.027 -0.039 -0.039
 0.550  1.390  0.310  0.053 -0.026 -0.038 -0.038
 0.552  1.391  0.310  0.054 -0.026 -0.037 -0.037
 0.554  1.391  0.311  0.055 -0.025 -0.036 -0.036
 0.556  1.391  0.311  0.055 -0.024 -0.035 -0.035
 0.558  1.392  0.312  0.056 -0.023 -0.035 -0.035
 0.560  1.392  0.312  0.056 -0.023 -0.033 -0.033
 0.562  1.392  0.312  0.057 -0.022 -0.033 -0.033
 0.564  1.393  0.313  0.057 -0.021 -0.032 -0.032
 0.566  1.393  0.313  0.058 -0.021 -0.032 -0.032
 0.568  1.393  0.313  0.058 -0.020 -0.030 -0.030
 0.570  1.393  0.314  0.059 -0.020 -0.030 -0.030
 0.572  1.393  0.314  0.059 -0.019 -0.029 -0.029
 0.574  1.393  0.314  0.059 -0.018 -0.028 -0.028
 0.576  1.393  0.314  0.060 -0.018 -0.028 -0.028
 0.578  1.392  0.314  0.060 -0.018 -0.027 -0.027
 0.580  1.392  0.316  0.060 -0.017 -0.026 -0.026
 0.582  1.392  0.316  0.060 -0.017 -0.025 -0.025
 0.584  1.392  0.316  0.060 -0.016 -0.025 -0.025
 0.586  1.391  0.316  0.060 -0.016 -0.024 -0.024
 0.588  1.391  0.316  0.060 -0.016 -0.024 -0.024
 0.590  1.391  0.316  0.060 -0.015 -0.023 -0.023
 0.592  1.390  0.316  0.060 -0.015 -0.022 -0.022
 0.594  1.390  0.316  0.060 -0.014 -0.022 -0.022
 0.596  1.390  0.316  0.060 -0.014 -0.021 -0.021
 0.598  1.389  0.316  0.060 -0.013 -0.020 -0.020
 0.600  1.389  0.316  0.061 -0.013 -0.020 -0.020
 0.602  1.389  0.316  0.061 -0.013 -0.020 -0.020
 0.604  1.388  0.316  0.061 -0.013 -0.019 -0.019
 0.606  1.388  0.316  0.061 -0.012 -0.019 -0.019
 0.608  1.388  0.316  0.061 -0.012 -0.018 -0.018
 0.610  1.386  0.316  0.061 -0.011 -0.017 -0.017
 0.612  1.386  0.316  0.061 -0.011 -0.017 -0.017
 0.614  1.386  0.316  0.061 -0.010 -0.017 -0.017
 0.616  1.386  0.316  0.061 -0.010 -0.016 -0.016
 0.618  1.385  0.316  0.061 -0.010 -0.016 -0.016
 0.620  1.385  0.316  0.061 -0.010 -0.015 -0.015
 0.622  1.385  0.316  0.061 -0.010 -0.015 -0.015
 0.624  1.385  0.316  0.061 -0.009 -0.014 -0.014
 0.626  1.385  0.316  0.061 -0.009 -0.014 -0.014
 0.628  1.384  0.316  0.061 -0.008 -0.014 -0.014
 0.630  1.384  0.316  0.060 -0.008 -0.013 -0.013
 0.632  1.384  0.316  0.060 -0.008 -0.012 -0.012
 0.634  1.384  0.314  0.060 -0.008 -0.012 -0.012
 0.636  1.384  0.314  0.060 -0.008 -0.012 -0.012
 0.638  1.384  0.314  0.060 -0.007 -0.012 -0.012
 0.640  1.384  0.314  0.060 -0.007 -0.011 -0.011
 0.642  1.384  0.314  0.060 -0.007 -0.011 -0.011
 0.644  1.384  0.314  0.060 -0.006 -0.011 -0.011
 0.646  1.383  0.313  0.060 -0.006 -0.011 -0.011
 0.648  1.383  0.313  0.060 -0.006 -0.010 -0.010
 0.650  1.383  0.313  0.060 -0.005 -0.010 -0.010
 0.652  1.383  0.313  0.060 -0.005 -0.009 -0.009
 0.654  1.383  0.312  0.059 -0.005 -0.009 -0.009
 0.656  1.383  0.312  0.059 -0.005 -0.009 -0.009
 0.658  1.383  0.312  0.059 -0.005 -0.008 -0.008
 0.660  1.383  0.312  0.059 -0.005 -0.008 -0.008
 0.662  1.383  0.311  0.059 -0.005 -0.007 -0.007
 0.664  1.384  0.311  0.059 -0.004 -0.007 -0.007
 0.666  1.384  0.311  0.058 -0.004 -0.007 -0.007
 0.668  1.384  0.310  0.058 -0.004 -0.006 -0.006
 0.670  1.383  0.310  0.058 -0.004 -0.006 -0.006
 0.672  1.383  0.310  0.058 -0.003 -0.006 -0.006
 0.674  1.383  0.308  0.058 -0.003 -0.005 -0.005
 0.676  1.383  0.308  0.058 -0.003 -0.005 -0.005
 0.678  1.383  0.308  0.058 -0.003 -0.004 -0.004
 0.680  1.383  0.307  0.058 -0.003 -0.004 -0.004
 0.682  1.383  0.307  0.058 -0.003 -0.004 -0.004
 0.684  1.383  0.306  0.058 -0.003 -0.003 -0.003
 0.686  1.383  0.306  0.057 -0.003 -0.003 -0.003
 0.688  1.382  0.306  0.057 -0.003 -0.003 -0.003
 0.690  1.382  0.305  0.057 -0.003 -0.002 -0.002
 0.692  1.382  0.305  0.057 -0.002 -0.001 -0.001
 0.694  1.382  0.304  0.057 -0.002 -0.001 -0.001
 0.696  1.382  0.304  0.057 -0.002 -0.001 -0.001
 0.698  1.382  0.303  0.057 -0.002 -0.000 -0.000
 0.700  1.381  0.303  0.057 -0.002  0.001  0.001
 0.702  1.381  0.301  0.057 -0.001  0.001  0.001
 0.704  1.381  0.301  0.057 -0.001  0.001  0.001
 0.706  1.381  0.300  0.057 -0.001  0.002  0.002
 0.708  1.380  0.300  0.057 -0.001  0.002  0.002
 0.710  1.380  0.299  0.057 -0.001  0.003  0.003
 0.712  1.380  0.299  0.057 -0.001  0.004  0.004
 0.714  1.378  0.298  0.057 -0.001  0.004  0.004
 0.716  1.378  0.298  0.057 -0.001  0.004  0.004
 0.718  1.377  0.297  0.057 -0.001  0.005  0.005
 0.720  1.377  0.295  0.057 -0.000  0.005  0.005
 0.722  1.377  0.295  0.058 -0.000  0.006  0.006
 0.724  1.376  0.294  0.058 -0.000  0.007  0.007
 0.726  1.376  0.294  0.058 -0.000  0.007  0.007
 0.728  1.376  0.293  0.059  0.000  0.008  0.008
 0.730  1.375  0.293  0.059  0.000  0.009  0.009
 0.732  1.375  0.293  0.060  0.000  0.009  0.009
 0.734  1.375  0.293  0.060  0.001  0.010  0.010
 0.736  1.375  0.292  0.061  0.002  0.010  0.010
 0.738  1.375  0.292  0.062  0.002  0.011  0.011
 0.740  1.375  0.292  0.063  0.002  0.012  0.012
 0.742  1.375  0.292  0.064  0.003  0.013  0.013
 0.744  1.376  0.292  0.065  0.004  0.014  0.014
 0.746  1.377  0.292  0.067  0.005  0.014  0.014
 0.748  1.377  0.292  0.068  0.005  0.015  0.015
 0.750  1.378  0.293  0.068  0.006  0.016  0.016
 0.752  1.380  0.293  0.070  0.007  0.017  0.017
 0.754  1.382  0.293  0.072  0.007  0.018  0.018
 0.756  1.383  0.293  0.073  0.008  0.018  0.018
 0.758  1.385  0.294  0.075  0.010  0.020  0.020
 0.760  1.388  0.294  0.076  0.010  0.020  0.020
 0.762  1.390  0.295  0.078  0.012  0.022  0.022
 0.764  1.392  0.295  0.080  0.012  0.022  0.022
 0.766  1.394  0.297  0.082  0.014  0.023  0.023
 0.768  1.398  0.298  0.083  0.015  0.025  0.025
 0.770  1.401  0.298  0.086  0.016  0.025  0.025
 0.772  1.404  0.299  0.088  0.017  0.026  0.026
 0.774  1.407  0.300  0.090  0.019  0.027  0.027
 0.776  1.411  0.301  0.092  0.020  0.028  0.028
 0.778  1.414  0.303  0.095  0.022  0.030  0.030
 0.780  1.417  0.304  0.097  0.023  0.031  0.031
 0.782  1.422  0.305  0.100  0.025  0.031  0.031
 0.784  1.427  0.306  0.102  0.027  0.033  0.033
 0.786  1.430  0.308  0.104  0.028  0.034  0.034
 0.788  1.435  0.310  0.107  0.030  0.035  0.035
 0.790  1.440  0.311  0.110  0.032  0.036  0.036
 0.792  1.445  0.312  0.112  0.033  0.038  0.038
 0.794  1.451  0.314  0.115  0.035  0.039  0.039
 0.796  1.457  0.316  0.118  0.037  0.041  0.041
 0.798  1.462  0.317  0.120  0.039  0.042  0.042
 0.800  1.467  0.319  0.123  0.040  0.044  0.044
 0.802  1.473  0.320  0.126  0.043  0.046  0.046
 0.804  1.478  0.322  0.128  0.045  0.047  0.047
 0.806  1.483  0.324  0.131  0.047  0.049  0.049
 0.808  1.488  0.325  0.133  0.049  0.051  0.051
