# IsPeriodic    : True
# Period        : 0.657947 days
# Normalization : <g_mag>=0
# 
# Phase u_mag  g_mag  r_mag  i_mag  z_mag  y_mag
 0.000  0.426 -0.788 -0.660 -0.559 -0.508 -0.508
 0.002  0.426 -0.788 -0.660 -0.559 -0.508 -0.508
 0.004  0.427 -0.787 -0.660 -0.558 -0.508 -0.508
 0.006  0.430 -0.784 -0.660 -0.557 -0.508 -0.508
 0.008  0.432 -0.781 -0.659 -0.557 -0.507 -0.507
 0.010  0.435 -0.777 -0.658 -0.557 -0.506 -0.506
 0.012  0.439 -0.772 -0.657 -0.556 -0.505 -0.505
 0.014  0.444 -0.767 -0.656 -0.555 -0.504 -0.504
 0.016  0.448 -0.762 -0.655 -0.554 -0.502 -0.502
 0.018  0.454 -0.756 -0.654 -0.553 -0.501 -0.501
 0.020  0.459 -0.750 -0.653 -0.552 -0.499 -0.499
 0.022  0.465 -0.744 -0.651 -0.551 -0.497 -0.497
 0.024  0.470 -0.738 -0.649 -0.549 -0.495 -0.495
 0.026  0.476 -0.732 -0.647 -0.548 -0.492 -0.492
 0.028  0.481 -0.727 -0.645 -0.546 -0.489 -0.489
 0.030  0.487 -0.721 -0.642 -0.544 -0.487 -0.487
 0.032  0.492 -0.715 -0.641 -0.542 -0.484 -0.484
 0.034  0.497 -0.709 -0.638 -0.540 -0.480 -0.480
 0.036  0.502 -0.704 -0.636 -0.538 -0.477 -0.477
 0.038  0.507 -0.698 -0.632 -0.536 -0.474 -0.474
 0.040  0.512 -0.692 -0.630 -0.534 -0.470 -0.470
 0.042  0.518 -0.685 -0.626 -0.531 -0.467 -0.467
 0.044  0.522 -0.681 -0.623 -0.528 -0.464 -0.464
 0.046  0.528 -0.674 -0.619 -0.525 -0.461 -0.461
 0.048  0.533 -0.668 -0.616 -0.523 -0.457 -0.457
 0.050  0.539 -0.661 -0.612 -0.519 -0.455 -0.455
 0.052  0.544 -0.655 -0.608 -0.516 -0.452 -0.452
 0.054  0.550 -0.649 -0.604 -0.512 -0.449 -0.449
 0.056  0.555 -0.643 -0.600 -0.510 -0.446 -0.446
 0.058  0.561 -0.635 -0.594 -0.506 -0.444 -0.444
 0.060  0.566 -0.629 -0.590 -0.503 -0.440 -0.440
 0.062  0.572 -0.622 -0.585 -0.500 -0.438 -0.438
 0.064  0.579 -0.615 -0.580 -0.496 -0.436 -0.436
 0.066  0.584 -0.609 -0.576 -0.493 -0.434 -0.434
 0.068  0.590 -0.601 -0.570 -0.489 -0.431 -0.431
 0.070  0.595 -0.594 -0.564 -0.486 -0.429 -0.429
 0.072  0.601 -0.587 -0.559 -0.483 -0.427 -0.427
 0.074  0.607 -0.580 -0.554 -0.479 -0.424 -0.424
 0.076  0.613 -0.573 -0.548 -0.476 -0.423 -0.423
 0.078  0.618 -0.566 -0.543 -0.473 -0.421 -0.421
 0.080  0.624 -0.559 -0.538 -0.470 -0.419 -0.419
 0.082  0.630 -0.552 -0.532 -0.467 -0.417 -0.417
 0.084  0.636 -0.545 -0.527 -0.464 -0.415 -0.415
 0.086  0.642 -0.538 -0.522 -0.461 -0.413 -0.413
 0.088  0.647 -0.530 -0.517 -0.458 -0.412 -0.412
 0.090  0.654 -0.524 -0.512 -0.455 -0.410 -0.410
 0.092  0.659 -0.517 -0.507 -0.453 -0.409 -0.409
 0.094  0.665 -0.510 -0.503 -0.450 -0.408 -0.408
 0.096  0.670 -0.504 -0.498 -0.447 -0.407 -0.407
 0.098  0.676 -0.496 -0.493 -0.445 -0.405 -0.405
 0.100  0.681 -0.489 -0.489 -0.442 -0.405 -0.405
 0.102  0.688 -0.483 -0.485 -0.440 -0.403 -0.403
 0.104  0.693 -0.477 -0.481 -0.437 -0.402 -0.402
 0.106  0.699 -0.469 -0.477 -0.434 -0.402 -0.402
 0.108  0.704 -0.463 -0.473 -0.432 -0.400 -0.400
 0.110  0.710 -0.457 -0.469 -0.430 -0.400 -0.400
 0.112  0.714 -0.450 -0.465 -0.428 -0.399 -0.399
 0.114  0.720 -0.444 -0.461 -0.425 -0.398 -0.398
 0.116  0.725 -0.438 -0.457 -0.423 -0.397 -0.397
 0.118  0.731 -0.432 -0.454 -0.421 -0.396 -0.396
 0.120  0.736 -0.427 -0.451 -0.419 -0.395 -0.395
 0.122  0.741 -0.421 -0.447 -0.417 -0.394 -0.394
 0.124  0.746 -0.414 -0.444 -0.415 -0.393 -0.393
 0.126  0.751 -0.408 -0.440 -0.413 -0.392 -0.392
 0.128  0.756 -0.402 -0.437 -0.411 -0.391 -0.391
 0.130  0.762 -0.397 -0.434 -0.408 -0.389 -0.389
 0.132  0.766 -0.391 -0.431 -0.406 -0.388 -0.388
 0.134  0.772 -0.386 -0.428 -0.404 -0.387 -0.387
 0.136  0.776 -0.380 -0.426 -0.402 -0.386 -0.386
 0.138  0.782 -0.375 -0.423 -0.401 -0.384 -0.384
 0.140  0.786 -0.369 -0.421 -0.399 -0.382 -0.382
 0.142  0.791 -0.364 -0.418 -0.397 -0.381 -0.381
 0.144  0.796 -0.360 -0.415 -0.395 -0.380 -0.380
 0.146  0.800 -0.353 -0.413 -0.393 -0.378 -0.378
 0.148  0.805 -0.349 -0.410 -0.391 -0.377 -0.377
 0.150  0.810 -0.344 -0.408 -0.389 -0.375 -0.375
 0.152  0.815 -0.339 -0.405 -0.387 -0.374 -0.374
 0.154  0.819 -0.334 -0.403 -0.385 -0.372 -0.372
 0.156  0.824 -0.329 -0.400 -0.383 -0.370 -0.370
 0.158  0.828 -0.324 -0.397 -0.382 -0.369 -0.369
 0.160  0.832 -0.319 -0.395 -0.380 -0.367 -0.367
 0.162  0.837 -0.314 -0.392 -0.378 -0.365 -0.365
 0.164  0.841 -0.310 -0.390 -0.376 -0.363 -0.363
 0.166  0.846 -0.305 -0.387 -0.374 -0.362 -0.362
 0.168  0.850 -0.300 -0.385 -0.372 -0.360 -0.360
 0.170  0.855 -0.295 -0.381 -0.370 -0.358 -0.358
 0.172  0.859 -0.290 -0.379 -0.368 -0.356 -0.356
 0.174  0.863 -0.285 -0.376 -0.366 -0.353 -0.353
 0.176  0.868 -0.280 -0.373 -0.364 -0.352 -0.352
 0.178  0.872 -0.275 -0.370 -0.363 -0.350 -0.350
 0.180  0.877 -0.272 -0.367 -0.361 -0.347 -0.347
 0.182  0.881 -0.267 -0.365 -0.359 -0.345 -0.345
 0.184  0.885 -0.262 -0.361 -0.357 -0.344 -0.344
 0.186  0.890 -0.257 -0.359 -0.355 -0.341 -0.341
 0.188  0.894 -0.252 -0.355 -0.353 -0.339 -0.339
 0.190  0.899 -0.247 -0.353 -0.351 -0.337 -0.337
 0.192  0.903 -0.242 -0.349 -0.349 -0.336 -0.336
 0.194  0.908 -0.239 -0.347 -0.347 -0.334 -0.334
 0.196  0.911 -0.234 -0.343 -0.346 -0.332 -0.332
 0.198  0.915 -0.229 -0.340 -0.344 -0.329 -0.329
 0.200  0.920 -0.224 -0.337 -0.342 -0.328 -0.328
 0.202  0.924 -0.219 -0.334 -0.340 -0.326 -0.326
 0.204  0.929 -0.216 -0.331 -0.338 -0.324 -0.324
 0.206  0.932 -0.211 -0.328 -0.336 -0.323 -0.323
 0.208  0.936 -0.206 -0.325 -0.334 -0.321 -0.321
 0.210  0.941 -0.201 -0.321 -0.332 -0.319 -0.319
 0.212  0.945 -0.197 -0.318 -0.331 -0.317 -0.317
 0.214  0.948 -0.192 -0.314 -0.329 -0.315 -0.315
 0.216  0.953 -0.188 -0.312 -0.327 -0.314 -0.314
 0.218  0.957 -0.183 -0.308 -0.326 -0.312 -0.312
 0.220  0.961 -0.179 -0.305 -0.324 -0.310 -0.310
 0.222  0.965 -0.174 -0.301 -0.321 -0.309 -0.309
 0.224  0.969 -0.169 -0.298 -0.320 -0.307 -0.307
 0.226  0.973 -0.166 -0.295 -0.318 -0.306 -0.306
 0.228  0.977 -0.161 -0.292 -0.316 -0.304 -0.304
 0.230  0.980 -0.157 -0.289 -0.315 -0.303 -0.303
 0.232  0.985 -0.152 -0.286 -0.313 -0.301 -0.301
 0.234  0.988 -0.147 -0.283 -0.311 -0.300 -0.300
 0.236  0.993 -0.144 -0.280 -0.309 -0.299 -0.299
 0.238  0.996 -0.139 -0.277 -0.307 -0.297 -0.297
 0.240  1.000 -0.135 -0.274 -0.305 -0.295 -0.295
 0.242  1.004 -0.130 -0.271 -0.304 -0.294 -0.294
 0.244  1.007 -0.126 -0.269 -0.302 -0.293 -0.293
 0.246  1.011 -0.122 -0.266 -0.300 -0.292 -0.292
 0.248  1.015 -0.118 -0.264 -0.298 -0.290 -0.290
 0.250  1.018 -0.114 -0.260 -0.296 -0.289 -0.289
 0.252  1.022 -0.109 -0.258 -0.295 -0.287 -0.287
 0.254  1.026 -0.106 -0.255 -0.293 -0.286 -0.286
 0.256  1.029 -0.102 -0.253 -0.292 -0.285 -0.285
 0.258  1.032 -0.097 -0.250 -0.290 -0.284 -0.284
 0.260  1.037 -0.094 -0.248 -0.288 -0.283 -0.283
 0.262  1.040 -0.090 -0.245 -0.286 -0.281 -0.281
 0.264  1.043 -0.086 -0.243 -0.284 -0.280 -0.280
 0.266  1.047 -0.083 -0.241 -0.283 -0.278 -0.278
 0.268  1.050 -0.078 -0.238 -0.281 -0.277 -0.277
 0.270  1.053 -0.074 -0.236 -0.279 -0.276 -0.276
 0.272  1.057 -0.070 -0.234 -0.277 -0.274 -0.274
 0.274  1.060 -0.067 -0.231 -0.276 -0.273 -0.273
 0.276  1.063 -0.063 -0.230 -0.274 -0.271 -0.271
 0.278  1.067 -0.059 -0.227 -0.272 -0.270 -0.270
 0.280  1.070 -0.056 -0.225 -0.271 -0.269 -0.269
 0.282  1.073 -0.052 -0.223 -0.268 -0.268 -0.268
 0.284  1.076 -0.048 -0.221 -0.267 -0.266 -0.266
 0.286  1.079 -0.045 -0.218 -0.265 -0.265 -0.265
 0.288  1.082 -0.041 -0.217 -0.264 -0.263 -0.263
 0.290  1.085 -0.037 -0.215 -0.262 -0.262 -0.262
 0.292  1.089 -0.035 -0.212 -0.260 -0.260 -0.260
 0.294  1.091 -0.031 -0.211 -0.258 -0.259 -0.259
 0.296  1.094 -0.028 -0.208 -0.256 -0.257 -0.257
 0.298  1.097 -0.024 -0.206 -0.255 -0.256 -0.256
 0.300  1.100 -0.020 -0.205 -0.253 -0.254 -0.254
 0.302  1.103 -0.017 -0.202 -0.251 -0.253 -0.253
 0.304  1.106 -0.014 -0.200 -0.249 -0.251 -0.251
 0.306  1.109 -0.011 -0.198 -0.248 -0.250 -0.250
 0.308  1.112 -0.007 -0.196 -0.246 -0.249 -0.249
 0.310  1.115 -0.003 -0.194 -0.244 -0.247 -0.247
 0.312  1.118  0.000 -0.192 -0.243 -0.245 -0.245
 0.314  1.121  0.003 -0.189 -0.241 -0.244 -0.244
 0.316  1.124  0.007 -0.187 -0.239 -0.242 -0.242
 0.318  1.127  0.010 -0.185 -0.237 -0.241 -0.241
 0.320  1.129  0.014 -0.182 -0.235 -0.239 -0.239
 0.322  1.133  0.018 -0.180 -0.234 -0.237 -0.237
 0.324  1.136  0.021 -0.178 -0.232 -0.236 -0.236
 0.326  1.139  0.024 -0.176 -0.230 -0.234 -0.234
 0.328  1.143  0.027 -0.173 -0.228 -0.233 -0.233
 0.330  1.145  0.031 -0.171 -0.226 -0.231 -0.231
 0.332  1.148  0.035 -0.169 -0.224 -0.229 -0.229
 0.334  1.152  0.038 -0.166 -0.223 -0.228 -0.228
 0.336  1.155  0.042 -0.164 -0.221 -0.226 -0.226
 0.338  1.157  0.044 -0.162 -0.220 -0.224 -0.224
 0.340  1.160  0.048 -0.159 -0.218 -0.223 -0.223
 0.342  1.164  0.052 -0.157 -0.215 -0.221 -0.221
 0.344  1.167  0.055 -0.154 -0.214 -0.220 -0.220
 0.346  1.170  0.059 -0.152 -0.212 -0.218 -0.218
 0.348  1.174  0.063 -0.149 -0.210 -0.217 -0.217
 0.350  1.177  0.066 -0.146 -0.209 -0.215 -0.215
 0.352  1.179  0.070 -0.145 -0.207 -0.214 -0.214
 0.354  1.182  0.072 -0.142 -0.205 -0.212 -0.212
 0.356  1.186  0.076 -0.140 -0.203 -0.211 -0.211
 0.358  1.189  0.080 -0.137 -0.201 -0.209 -0.209
 0.360  1.192  0.083 -0.134 -0.199 -0.208 -0.208
 0.362  1.196  0.087 -0.132 -0.197 -0.206 -0.206
 0.364  1.199  0.091 -0.129 -0.196 -0.205 -0.205
 0.366  1.202  0.094 -0.127 -0.194 -0.204 -0.204
 0.368  1.206  0.098 -0.124 -0.192 -0.202 -0.202
 0.370  1.209  0.100 -0.122 -0.190 -0.200 -0.200
 0.372  1.212  0.104 -0.119 -0.188 -0.199 -0.199
 0.374  1.214  0.108 -0.116 -0.186 -0.197 -0.197
 0.376  1.218  0.111 -0.114 -0.184 -0.195 -0.195
 0.378  1.221  0.115 -0.112 -0.183 -0.194 -0.194
 0.380  1.224  0.118 -0.110 -0.181 -0.193 -0.193
 0.382  1.228  0.121 -0.107 -0.179 -0.191 -0.191
 0.384  1.231  0.125 -0.104 -0.177 -0.190 -0.190
 0.386  1.233  0.129 -0.103 -0.175 -0.188 -0.188
 0.388  1.237  0.131 -0.100 -0.173 -0.187 -0.187
 0.390  1.240  0.135 -0.098 -0.171 -0.186 -0.186
 0.392  1.243  0.138 -0.095 -0.170 -0.184 -0.184
 0.394  1.245  0.141 -0.093 -0.168 -0.183 -0.183
 0.396  1.249  0.144 -0.091 -0.166 -0.181 -0.181
 0.398  1.251  0.148 -0.088 -0.164 -0.179 -0.179
 0.400  1.254  0.151 -0.086 -0.162 -0.178 -0.178
 0.402  1.258  0.154 -0.084 -0.160 -0.177 -0.177
 0.404  1.260  0.157 -0.081 -0.158 -0.175 -0.175
 0.406  1.263  0.160 -0.080 -0.156 -0.174 -0.174
 0.408  1.265  0.164 -0.077 -0.154 -0.173 -0.173
 0.410  1.269  0.166 -0.074 -0.153 -0.171 -0.171
 0.412  1.271  0.170 -0.073 -0.151 -0.170 -0.170
 0.414  1.274  0.172 -0.070 -0.149 -0.168 -0.168
 0.416  1.276  0.175 -0.068 -0.147 -0.166 -0.166
 0.418  1.279  0.179 -0.066 -0.145 -0.165 -0.165
 0.420  1.282  0.181 -0.064 -0.143 -0.164 -0.164
 0.422  1.284  0.185 -0.062 -0.141 -0.163 -0.163
 0.424  1.286  0.187 -0.060 -0.139 -0.161 -0.161
 0.426  1.290  0.190 -0.057 -0.138 -0.160 -0.160
 0.428  1.292  0.193 -0.056 -0.136 -0.158 -0.158
 0.430  1.294  0.196 -0.053 -0.135 -0.157 -0.157
 0.432  1.296  0.198 -0.051 -0.133 -0.156 -0.156
 0.434  1.300  0.202 -0.050 -0.131 -0.155 -0.155
 0.436  1.302  0.204 -0.047 -0.129 -0.153 -0.153
 0.438  1.304  0.207 -0.045 -0.128 -0.152 -0.152
 0.440  1.306  0.210 -0.044 -0.126 -0.150 -0.150
 0.442  1.308  0.213 -0.042 -0.124 -0.149 -0.149
 0.444  1.311  0.215 -0.039 -0.123 -0.148 -0.148
 0.446  1.313  0.218 -0.038 -0.121 -0.147 -0.147
 0.448  1.315  0.220 -0.036 -0.120 -0.145 -0.145
 0.450  1.317  0.223 -0.034 -0.118 -0.144 -0.144
 0.452  1.319  0.225 -0.032 -0.117 -0.142 -0.142
 0.454  1.322  0.227 -0.031 -0.116 -0.141 -0.141
 0.456  1.324  0.230 -0.029 -0.114 -0.140 -0.140
 0.458  1.326  0.232 -0.027 -0.112 -0.139 -0.139
 0.460  1.328  0.235 -0.026 -0.111 -0.137 -0.137
 0.462  1.329  0.237 -0.024 -0.109 -0.136 -0.136
 0.464  1.332  0.240 -0.022 -0.108 -0.135 -0.135
 0.466  1.334  0.242 -0.020 -0.107 -0.134 -0.134
 0.468  1.336  0.245 -0.019 -0.105 -0.133 -0.133
 0.470  1.337  0.246 -0.018 -0.104 -0.131 -0.131
 0.472  1.339  0.248 -0.016 -0.103 -0.130 -0.130
 0.474  1.341  0.251 -0.014 -0.102 -0.129 -0.129
 0.476  1.343  0.252 -0.013 -0.101 -0.128 -0.128
 0.478  1.345  0.254 -0.012 -0.099 -0.126 -0.126
 0.480  1.346  0.257 -0.010 -0.098 -0.125 -0.125
 0.482  1.348  0.258 -0.008 -0.097 -0.124 -0.124
 0.484  1.349  0.260 -0.008 -0.096 -0.123 -0.123
 0.486  1.351  0.262 -0.006 -0.094 -0.121 -0.121
 0.488  1.352  0.264 -0.005 -0.093 -0.121 -0.121
 0.490  1.355  0.265 -0.003 -0.092 -0.120 -0.120
 0.492  1.356  0.268 -0.002 -0.091 -0.118 -0.118
 0.494  1.357  0.269 -0.002 -0.090 -0.117 -0.117
 0.496  1.359  0.270  0.000 -0.089 -0.116 -0.116
 0.498  1.360  0.273  0.001 -0.088 -0.115 -0.115
 0.500  1.361  0.274  0.002 -0.087 -0.114 -0.114
 0.502  1.364  0.275  0.004 -0.086 -0.113 -0.113
 0.504  1.365  0.276  0.004 -0.085 -0.112 -0.112
 0.506  1.366  0.277  0.005 -0.084 -0.110 -0.110
 0.508  1.367  0.280  0.007 -0.083 -0.110 -0.110
 0.510  1.368  0.281  0.008 -0.082 -0.108 -0.108
 0.512  1.369  0.282  0.009 -0.081 -0.107 -0.107
 0.514  1.370  0.284  0.010 -0.080 -0.107 -0.107
 0.516  1.371  0.285  0.011 -0.078 -0.105 -0.105
 0.518  1.372  0.286  0.012 -0.078 -0.104 -0.104
 0.520  1.373  0.287  0.013 -0.076 -0.104 -0.104
 0.522  1.375  0.288  0.014 -0.075 -0.102 -0.102
 0.524  1.376  0.290  0.015 -0.075 -0.102 -0.102
 0.526  1.377  0.291  0.016 -0.073 -0.100 -0.100
 0.528  1.378  0.292  0.017 -0.073 -0.100 -0.100
 0.530  1.379  0.293  0.018 -0.071 -0.099 -0.099
 0.532  1.380  0.295  0.019 -0.071 -0.098 -0.098
 0.534  1.381  0.296  0.020 -0.069 -0.097 -0.097
 0.536  1.382  0.297  0.021 -0.069 -0.096 -0.096
 0.538  1.382  0.298  0.022 -0.067 -0.095 -0.095
 0.540  1.383  0.298  0.023 -0.067 -0.094 -0.094
 0.542  1.385  0.299  0.024 -0.066 -0.093 -0.093
 0.544  1.386  0.301  0.025 -0.065 -0.092 -0.092
 0.546  1.386  0.302  0.026 -0.064 -0.091 -0.091
 0.548  1.387  0.303  0.027 -0.063 -0.091 -0.091
 0.550  1.388  0.303  0.028 -0.062 -0.089 -0.089
 0.552  1.388  0.304  0.029 -0.061 -0.089 -0.089
 0.554  1.389  0.306  0.030 -0.060 -0.088 -0.088
 0.556  1.390  0.307  0.031 -0.059 -0.087 -0.087
 0.558  1.390  0.307  0.032 -0.058 -0.086 -0.086
 0.560  1.391  0.308  0.033 -0.058 -0.086 -0.086
 0.562  1.391  0.309  0.034 -0.056 -0.084 -0.084
 0.564  1.392  0.309  0.034 -0.056 -0.084 -0.084
 0.566  1.392  0.310  0.035 -0.055 -0.083 -0.083
 0.568  1.393  0.312  0.036 -0.054 -0.082 -0.082
 0.570  1.393  0.312  0.037 -0.053 -0.081 -0.081
 0.572  1.394  0.313  0.038 -0.052 -0.081 -0.081
 0.574  1.394  0.313  0.039 -0.052 -0.079 -0.079
 0.576  1.394  0.314  0.040 -0.051 -0.079 -0.079
 0.578  1.396  0.314  0.040 -0.050 -0.078 -0.078
 0.580  1.396  0.315  0.041 -0.049 -0.077 -0.077
 0.582  1.396  0.315  0.042 -0.048 -0.076 -0.076
 0.584  1.397  0.317  0.043 -0.048 -0.076 -0.076
 0.586  1.397  0.317  0.044 -0.047 -0.075 -0.075
 0.588  1.397  0.318  0.045 -0.046 -0.075 -0.075
 0.590  1.397  0.318  0.046 -0.046 -0.073 -0.073
 0.592  1.398  0.318  0.046 -0.045 -0.073 -0.073
 0.594  1.398  0.319  0.046 -0.044 -0.072 -0.072
 0.596  1.398  0.319  0.047 -0.044 -0.071 -0.071
 0.598  1.398  0.319  0.048 -0.043 -0.071 -0.071
 0.600  1.398  0.319  0.048 -0.042 -0.070 -0.070
 0.602  1.399  0.320  0.049 -0.041 -0.069 -0.069
 0.604  1.399  0.320  0.050 -0.041 -0.068 -0.068
 0.606  1.399  0.320  0.050 -0.040 -0.068 -0.068
 0.608  1.399  0.320  0.051 -0.039 -0.067 -0.067
 0.610  1.399  0.320  0.051 -0.039 -0.066 -0.066
 0.612  1.399  0.320  0.051 -0.039 -0.066 -0.066
 0.614  1.399  0.320  0.052 -0.038 -0.065 -0.065
 0.616  1.399  0.320  0.052 -0.037 -0.064 -0.064
 0.618  1.399  0.320  0.053 -0.037 -0.063 -0.063
 0.620  1.400  0.320  0.053 -0.036 -0.063 -0.063
 0.622  1.400  0.320  0.054 -0.036 -0.062 -0.062
 0.624  1.400  0.319  0.054 -0.035 -0.062 -0.062
 0.626  1.400  0.319  0.055 -0.035 -0.061 -0.061
 0.628  1.400  0.319  0.055 -0.034 -0.060 -0.060
 0.630  1.400  0.319  0.055 -0.034 -0.059 -0.059
 0.632  1.399  0.318  0.056 -0.033 -0.058 -0.058
 0.634  1.399  0.318  0.056 -0.033 -0.058 -0.058
 0.636  1.399  0.317  0.056 -0.033 -0.057 -0.057
 0.638  1.399  0.317  0.057 -0.032 -0.057 -0.057
 0.640  1.399  0.317  0.057 -0.031 -0.056 -0.056
 0.642  1.399  0.315  0.057 -0.031 -0.055 -0.055
 0.644  1.399  0.315  0.057 -0.031 -0.054 -0.054
 0.646  1.399  0.314  0.057 -0.031 -0.054 -0.054
 0.648  1.399  0.313  0.057 -0.030 -0.053 -0.053
 0.650  1.398  0.313  0.057 -0.030 -0.052 -0.052
 0.652  1.398  0.312  0.057 -0.029 -0.051 -0.051
 0.654  1.398  0.310  0.057 -0.029 -0.050 -0.050
 0.656  1.398  0.310  0.057 -0.029 -0.050 -0.050
 0.658  1.398  0.309  0.057 -0.029 -0.049 -0.049
 0.660  1.397  0.308  0.057 -0.029 -0.049 -0.049
 0.662  1.397  0.308  0.057 -0.028 -0.047 -0.047
 0.664  1.397  0.307  0.057 -0.028 -0.047 -0.047
 0.666  1.397  0.306  0.057 -0.028 -0.046 -0.046
 0.668  1.396  0.306  0.057 -0.027 -0.046 -0.046
 0.670  1.396  0.304  0.057 -0.027 -0.044 -0.044
 0.672  1.394  0.303  0.057 -0.027 -0.044 -0.044
 0.674  1.394  0.302  0.057 -0.027 -0.043 -0.043
 0.676  1.393  0.302  0.057 -0.027 -0.042 -0.042
 0.678  1.393  0.301  0.057 -0.027 -0.041 -0.041
 0.680  1.392  0.299  0.057 -0.027 -0.041 -0.041
 0.682  1.392  0.299  0.057 -0.026 -0.040 -0.040
 0.684  1.391  0.298  0.057 -0.026 -0.039 -0.039
 0.686  1.390  0.297  0.056 -0.026 -0.038 -0.038
 0.688  1.390  0.297  0.056 -0.026 -0.037 -0.037
 0.690  1.389  0.296  0.056 -0.026 -0.037 -0.037
 0.692  1.388  0.295  0.055 -0.026 -0.036 -0.036
 0.694  1.388  0.295  0.055 -0.026 -0.035 -0.035
 0.696  1.387  0.293  0.054 -0.026 -0.034 -0.034
 0.698  1.386  0.292  0.054 -0.026 -0.033 -0.033
 0.700  1.386  0.292  0.053 -0.026 -0.033 -0.033
 0.702  1.385  0.291  0.053 -0.026 -0.031 -0.031
 0.704  1.383  0.290  0.052 -0.026 -0.031 -0.031
 0.706  1.382  0.290  0.052 -0.026 -0.030 -0.030
 0.708  1.381  0.288  0.051 -0.025 -0.029 -0.029
 0.710  1.380  0.287  0.051 -0.025 -0.028 -0.028
 0.712  1.379  0.286  0.051 -0.024 -0.027 -0.027
 0.714  1.378  0.286  0.050 -0.024 -0.026 -0.026
 0.716  1.377  0.285  0.050 -0.023 -0.025 -0.025
 0.718  1.375  0.284  0.049 -0.022 -0.024 -0.024
 0.720  1.373  0.282  0.049 -0.022 -0.023 -0.023
 0.722  1.372  0.282  0.049 -0.021 -0.022 -0.022
 0.724  1.371  0.281  0.048 -0.020 -0.021 -0.021
 0.726  1.370  0.280  0.048 -0.019 -0.020 -0.020
 0.728  1.369  0.280  0.049 -0.018 -0.020 -0.020
 0.730  1.368  0.280  0.049 -0.016 -0.018 -0.018
 0.732  1.368  0.280  0.049 -0.016 -0.017 -0.017
 0.734  1.367  0.280  0.050 -0.014 -0.017 -0.017
 0.736  1.367  0.280  0.051 -0.012 -0.015 -0.015
 0.738  1.367  0.280  0.051 -0.011 -0.015 -0.015
 0.740  1.367  0.281  0.052 -0.010 -0.013 -0.013
 0.742  1.368  0.282  0.053 -0.008 -0.012 -0.012
 0.744  1.368  0.284  0.054 -0.006 -0.012 -0.012
 0.746  1.369  0.285  0.056 -0.004 -0.010 -0.010
 0.748  1.370  0.286  0.057 -0.002 -0.009 -0.009
 0.750  1.371  0.287  0.058 -0.000 -0.008 -0.008
 0.752  1.373  0.290  0.060  0.002 -0.007 -0.007
 0.754  1.375  0.291  0.062  0.005 -0.005 -0.005
 0.756  1.377  0.293  0.063  0.007 -0.004 -0.004
 0.758  1.379  0.296  0.065  0.009 -0.003 -0.003
 0.760  1.382  0.298  0.067  0.012 -0.001 -0.001
 0.762  1.385  0.302  0.069  0.014  0.000  0.000
 0.764  1.388  0.304  0.071  0.017  0.002  0.002
 0.766  1.391  0.308  0.074  0.020  0.004  0.004
 0.768  1.394  0.312  0.076  0.023  0.006  0.006
 0.770  1.399  0.315  0.079  0.026  0.008  0.008
 0.772  1.403  0.319  0.081  0.029  0.009  0.009
 0.774  1.407  0.324  0.085  0.031  0.012  0.012
 0.776  1.412  0.329  0.088  0.035  0.014  0.014
 0.778  1.417  0.334  0.091  0.037  0.016  0.016
 0.780  1.422  0.338  0.094  0.040  0.019  0.019
 0.782  1.426  0.343  0.098  0.043  0.022  0.022
 0.784  1.432  0.348  0.101  0.046  0.024  0.024
 0.786  1.439  0.354  0.105  0.049  0.027  0.027
 0.788  1.444  0.359  0.108  0.052  0.030  0.030
 0.790  1.451  0.365  0.111  0.054  0.033  0.033
 0.792  1.456  0.371  0.115  0.058  0.036  0.036
 0.794  1.463  0.378  0.118  0.060  0.039  0.039
 0.796  1.470  0.382  0.122  0.063  0.042  0.042
 0.798  1.477  0.389  0.125  0.066  0.045  0.045
 0.800  1.483  0.395  0.129  0.069  0.049  0.049
 0.802  1.489  0.399  0.132  0.071  0.052  0.052
 0.804  1.496  0.404  0.135  0.073  0.056  0.056
 0.806  1.502  0.409  0.138  0.076  0.059  0.059
 0.808  1.507  0.414  0.141  0.079  0.063  0.063
