# IsPeriodic    : True
# Period        : 0.589468 days
# Normalization : <g_mag>=0
# 
# Phase u_mag  g_mag  r_mag  i_mag  z_mag  y_mag
 0.000  0.663 -0.529 -0.474 -0.431 -0.406 -0.406
 0.002  0.663 -0.529 -0.474 -0.431 -0.406 -0.406
 0.004  0.663 -0.529 -0.473 -0.431 -0.406 -0.406
 0.006  0.664 -0.529 -0.473 -0.431 -0.405 -0.405
 0.008  0.665 -0.528 -0.472 -0.431 -0.405 -0.405
 0.010  0.666 -0.527 -0.471 -0.431 -0.404 -0.404
 0.012  0.668 -0.526 -0.471 -0.430 -0.404 -0.404
 0.014  0.669 -0.525 -0.470 -0.430 -0.403 -0.403
 0.016  0.672 -0.523 -0.469 -0.430 -0.401 -0.401
 0.018  0.674 -0.521 -0.468 -0.429 -0.400 -0.400
 0.020  0.676 -0.520 -0.467 -0.428 -0.399 -0.399
 0.022  0.679 -0.518 -0.466 -0.428 -0.397 -0.397
 0.024  0.682 -0.516 -0.464 -0.427 -0.396 -0.396
 0.026  0.684 -0.513 -0.463 -0.426 -0.394 -0.394
 0.028  0.686 -0.511 -0.462 -0.426 -0.392 -0.392
 0.030  0.689 -0.508 -0.460 -0.425 -0.390 -0.390
 0.032  0.692 -0.505 -0.458 -0.424 -0.388 -0.388
 0.034  0.694 -0.502 -0.457 -0.423 -0.385 -0.385
 0.036  0.697 -0.498 -0.455 -0.422 -0.383 -0.383
 0.038  0.700 -0.496 -0.454 -0.421 -0.380 -0.380
 0.040  0.703 -0.491 -0.452 -0.420 -0.378 -0.378
 0.042  0.707 -0.488 -0.450 -0.419 -0.375 -0.375
 0.044  0.710 -0.483 -0.448 -0.417 -0.373 -0.373
 0.046  0.713 -0.479 -0.446 -0.416 -0.371 -0.371
 0.048  0.716 -0.474 -0.444 -0.414 -0.368 -0.368
 0.050  0.719 -0.470 -0.442 -0.413 -0.366 -0.366
 0.052  0.722 -0.465 -0.440 -0.412 -0.364 -0.364
 0.054  0.725 -0.460 -0.438 -0.410 -0.362 -0.362
 0.056  0.728 -0.455 -0.436 -0.408 -0.360 -0.360
 0.058  0.732 -0.450 -0.434 -0.407 -0.358 -0.358
 0.060  0.735 -0.445 -0.431 -0.405 -0.356 -0.356
 0.062  0.739 -0.440 -0.429 -0.403 -0.354 -0.354
 0.064  0.743 -0.434 -0.426 -0.402 -0.352 -0.352
 0.066  0.747 -0.429 -0.424 -0.400 -0.351 -0.351
 0.068  0.750 -0.425 -0.421 -0.397 -0.349 -0.349
 0.070  0.754 -0.419 -0.418 -0.395 -0.347 -0.347
 0.072  0.758 -0.415 -0.416 -0.393 -0.346 -0.346
 0.074  0.762 -0.409 -0.413 -0.392 -0.344 -0.344
 0.076  0.766 -0.405 -0.410 -0.390 -0.342 -0.342
 0.078  0.770 -0.400 -0.407 -0.387 -0.341 -0.341
 0.080  0.774 -0.395 -0.404 -0.385 -0.340 -0.340
 0.082  0.778 -0.390 -0.401 -0.383 -0.338 -0.338
 0.084  0.782 -0.385 -0.398 -0.382 -0.337 -0.337
 0.086  0.787 -0.381 -0.395 -0.379 -0.336 -0.336
 0.088  0.791 -0.377 -0.392 -0.378 -0.335 -0.335
 0.090  0.795 -0.371 -0.390 -0.376 -0.333 -0.333
 0.092  0.799 -0.367 -0.386 -0.374 -0.332 -0.332
 0.094  0.803 -0.362 -0.383 -0.372 -0.331 -0.331
 0.096  0.807 -0.358 -0.380 -0.371 -0.330 -0.330
 0.098  0.812 -0.353 -0.378 -0.369 -0.330 -0.330
 0.100  0.816 -0.349 -0.375 -0.367 -0.329 -0.329
 0.102  0.820 -0.345 -0.372 -0.365 -0.328 -0.328
 0.104  0.824 -0.340 -0.370 -0.364 -0.327 -0.327
 0.106  0.828 -0.336 -0.367 -0.363 -0.327 -0.327
 0.108  0.832 -0.332 -0.364 -0.361 -0.326 -0.326
 0.110  0.836 -0.328 -0.362 -0.360 -0.325 -0.325
 0.112  0.840 -0.323 -0.359 -0.358 -0.325 -0.325
 0.114  0.844 -0.319 -0.356 -0.356 -0.324 -0.324
 0.116  0.847 -0.315 -0.354 -0.355 -0.323 -0.323
 0.118  0.851 -0.311 -0.352 -0.354 -0.323 -0.323
 0.120  0.855 -0.307 -0.349 -0.353 -0.322 -0.322
 0.122  0.859 -0.303 -0.347 -0.351 -0.321 -0.321
 0.124  0.862 -0.299 -0.344 -0.350 -0.320 -0.320
 0.126  0.866 -0.295 -0.342 -0.349 -0.320 -0.320
 0.128  0.869 -0.291 -0.340 -0.348 -0.319 -0.319
 0.130  0.872 -0.287 -0.338 -0.346 -0.318 -0.318
 0.132  0.876 -0.283 -0.336 -0.345 -0.317 -0.317
 0.134  0.880 -0.280 -0.334 -0.344 -0.316 -0.316
 0.136  0.883 -0.275 -0.331 -0.343 -0.315 -0.315
 0.138  0.887 -0.272 -0.330 -0.342 -0.314 -0.314
 0.140  0.890 -0.268 -0.327 -0.341 -0.313 -0.313
 0.142  0.893 -0.264 -0.326 -0.340 -0.312 -0.312
 0.144  0.897 -0.260 -0.323 -0.339 -0.311 -0.311
 0.146  0.900 -0.256 -0.322 -0.338 -0.309 -0.309
 0.148  0.903 -0.253 -0.320 -0.337 -0.309 -0.309
 0.150  0.906 -0.248 -0.318 -0.337 -0.307 -0.307
 0.152  0.909 -0.245 -0.316 -0.336 -0.306 -0.306
 0.154  0.912 -0.241 -0.314 -0.335 -0.305 -0.305
 0.156  0.915 -0.238 -0.312 -0.333 -0.304 -0.304
 0.158  0.918 -0.234 -0.311 -0.333 -0.303 -0.303
 0.160  0.921 -0.230 -0.309 -0.332 -0.301 -0.301
 0.162  0.924 -0.226 -0.307 -0.331 -0.300 -0.300
 0.164  0.927 -0.223 -0.306 -0.330 -0.298 -0.298
 0.166  0.930 -0.219 -0.304 -0.329 -0.297 -0.297
 0.168  0.933 -0.216 -0.302 -0.328 -0.296 -0.296
 0.170  0.936 -0.212 -0.300 -0.327 -0.294 -0.294
 0.172  0.939 -0.208 -0.299 -0.326 -0.293 -0.293
 0.174  0.942 -0.205 -0.297 -0.324 -0.291 -0.291
 0.176  0.945 -0.201 -0.295 -0.323 -0.290 -0.290
 0.178  0.948 -0.197 -0.294 -0.323 -0.288 -0.288
 0.180  0.951 -0.193 -0.292 -0.321 -0.287 -0.287
 0.182  0.955 -0.190 -0.290 -0.320 -0.285 -0.285
 0.184  0.958 -0.186 -0.288 -0.319 -0.284 -0.284
 0.186  0.961 -0.183 -0.286 -0.318 -0.282 -0.282
 0.188  0.964 -0.179 -0.284 -0.317 -0.281 -0.281
 0.190  0.967 -0.176 -0.283 -0.315 -0.279 -0.279
 0.192  0.971 -0.172 -0.280 -0.314 -0.278 -0.278
 0.194  0.974 -0.169 -0.279 -0.313 -0.277 -0.277
 0.196  0.977 -0.166 -0.277 -0.312 -0.275 -0.275
 0.198  0.981 -0.162 -0.275 -0.311 -0.273 -0.273
 0.200  0.984 -0.159 -0.273 -0.310 -0.272 -0.272
 0.202  0.987 -0.155 -0.271 -0.308 -0.271 -0.271
 0.204  0.990 -0.152 -0.270 -0.307 -0.270 -0.270
 0.206  0.993 -0.148 -0.268 -0.306 -0.268 -0.268
 0.208  0.997 -0.144 -0.266 -0.304 -0.267 -0.267
 0.210  1.000 -0.141 -0.264 -0.303 -0.266 -0.266
 0.212  1.004 -0.138 -0.262 -0.302 -0.264 -0.264
 0.214  1.008 -0.135 -0.260 -0.301 -0.263 -0.263
 0.216  1.011 -0.131 -0.258 -0.299 -0.262 -0.262
 0.218  1.015 -0.128 -0.256 -0.298 -0.261 -0.261
 0.220  1.018 -0.125 -0.254 -0.297 -0.259 -0.259
 0.222  1.021 -0.121 -0.252 -0.295 -0.258 -0.258
 0.224  1.025 -0.118 -0.250 -0.294 -0.257 -0.257
 0.226  1.028 -0.115 -0.248 -0.293 -0.256 -0.256
 0.228  1.032 -0.112 -0.246 -0.292 -0.255 -0.255
 0.230  1.036 -0.108 -0.244 -0.290 -0.254 -0.254
 0.232  1.040 -0.105 -0.242 -0.289 -0.252 -0.252
 0.234  1.043 -0.102 -0.241 -0.287 -0.251 -0.251
 0.236  1.046 -0.099 -0.238 -0.286 -0.251 -0.251
 0.238  1.050 -0.096 -0.237 -0.285 -0.249 -0.249
 0.240  1.053 -0.093 -0.234 -0.283 -0.248 -0.248
 0.242  1.057 -0.089 -0.233 -0.283 -0.247 -0.247
 0.244  1.060 -0.087 -0.230 -0.281 -0.246 -0.246
 0.246  1.064 -0.083 -0.229 -0.280 -0.245 -0.245
 0.248  1.067 -0.080 -0.226 -0.278 -0.244 -0.244
 0.250  1.071 -0.077 -0.225 -0.277 -0.243 -0.243
 0.252  1.074 -0.074 -0.222 -0.276 -0.242 -0.242
 0.254  1.077 -0.071 -0.221 -0.274 -0.241 -0.241
 0.256  1.080 -0.068 -0.219 -0.273 -0.240 -0.240
 0.258  1.083 -0.065 -0.217 -0.272 -0.240 -0.240
 0.260  1.086 -0.062 -0.215 -0.271 -0.239 -0.239
 0.262  1.089 -0.059 -0.213 -0.269 -0.238 -0.238
 0.264  1.092 -0.056 -0.211 -0.268 -0.237 -0.237
 0.266  1.095 -0.053 -0.209 -0.267 -0.235 -0.235
 0.268  1.098 -0.050 -0.207 -0.265 -0.235 -0.235
 0.270  1.101 -0.048 -0.205 -0.264 -0.234 -0.234
 0.272  1.104 -0.045 -0.203 -0.263 -0.233 -0.233
 0.274  1.107 -0.041 -0.201 -0.262 -0.232 -0.232
 0.276  1.110 -0.039 -0.199 -0.260 -0.230 -0.230
 0.278  1.112 -0.036 -0.197 -0.259 -0.229 -0.229
 0.280  1.115 -0.033 -0.195 -0.258 -0.229 -0.229
 0.282  1.118 -0.030 -0.193 -0.256 -0.228 -0.228
 0.284  1.121 -0.027 -0.191 -0.255 -0.226 -0.226
 0.286  1.124 -0.024 -0.190 -0.254 -0.225 -0.225
 0.288  1.126 -0.022 -0.187 -0.253 -0.224 -0.224
 0.290  1.129 -0.019 -0.186 -0.252 -0.223 -0.223
 0.292  1.131 -0.016 -0.183 -0.250 -0.222 -0.222
 0.294  1.134 -0.013 -0.182 -0.249 -0.221 -0.221
 0.296  1.136 -0.010 -0.180 -0.247 -0.220 -0.220
 0.298  1.139 -0.008 -0.178 -0.246 -0.219 -0.219
 0.300  1.141 -0.005 -0.176 -0.245 -0.218 -0.218
 0.302  1.143 -0.002 -0.174 -0.244 -0.217 -0.217
 0.304  1.146  0.000 -0.172 -0.242 -0.215 -0.215
 0.306  1.148  0.004 -0.170 -0.241 -0.214 -0.214
 0.308  1.150  0.007 -0.169 -0.239 -0.213 -0.213
 0.310  1.152  0.009 -0.167 -0.238 -0.212 -0.212
 0.312  1.155  0.012 -0.165 -0.236 -0.211 -0.211
 0.314  1.158  0.015 -0.163 -0.235 -0.210 -0.210
 0.316  1.160  0.017 -0.161 -0.234 -0.208 -0.208
 0.318  1.162  0.020 -0.159 -0.232 -0.208 -0.208
 0.320  1.165  0.023 -0.158 -0.231 -0.206 -0.206
 0.322  1.167  0.026 -0.155 -0.229 -0.205 -0.205
 0.324  1.169  0.029 -0.154 -0.228 -0.204 -0.204
 0.326  1.171  0.032 -0.152 -0.226 -0.203 -0.203
 0.328  1.174  0.034 -0.150 -0.225 -0.202 -0.202
 0.330  1.177  0.037 -0.149 -0.224 -0.201 -0.201
 0.332  1.179  0.040 -0.147 -0.222 -0.199 -0.199
 0.334  1.181  0.042 -0.145 -0.220 -0.198 -0.198
 0.336  1.183  0.045 -0.143 -0.219 -0.197 -0.197
 0.338  1.186  0.048 -0.142 -0.217 -0.196 -0.196
 0.340  1.188  0.050 -0.140 -0.216 -0.195 -0.195
 0.342  1.190  0.053 -0.138 -0.214 -0.193 -0.193
 0.344  1.193  0.056 -0.137 -0.213 -0.192 -0.192
 0.346  1.196  0.058 -0.135 -0.211 -0.191 -0.191
 0.348  1.198  0.061 -0.133 -0.209 -0.190 -0.190
 0.350  1.200  0.064 -0.131 -0.208 -0.189 -0.189
 0.352  1.202  0.066 -0.130 -0.206 -0.188 -0.188
 0.354  1.205  0.069 -0.128 -0.204 -0.187 -0.187
 0.356  1.207  0.072 -0.126 -0.203 -0.186 -0.186
 0.358  1.209  0.074 -0.125 -0.201 -0.184 -0.184
 0.360  1.211  0.077 -0.123 -0.200 -0.183 -0.183
 0.362  1.214  0.080 -0.122 -0.198 -0.182 -0.182
 0.364  1.217  0.082 -0.120 -0.196 -0.181 -0.181
 0.366  1.219  0.085 -0.118 -0.194 -0.180 -0.180
 0.368  1.221  0.088 -0.117 -0.193 -0.179 -0.179
 0.370  1.224  0.090 -0.115 -0.192 -0.178 -0.178
 0.372  1.226  0.093 -0.114 -0.190 -0.176 -0.176
 0.374  1.228  0.095 -0.112 -0.188 -0.176 -0.176
 0.376  1.230  0.097 -0.111 -0.187 -0.174 -0.174
 0.378  1.233  0.100 -0.109 -0.185 -0.173 -0.173
 0.380  1.235  0.103 -0.107 -0.184 -0.172 -0.172
 0.382  1.237  0.105 -0.106 -0.182 -0.171 -0.171
 0.384  1.240  0.107 -0.105 -0.181 -0.170 -0.170
 0.386  1.243  0.110 -0.103 -0.179 -0.169 -0.169
 0.388  1.245  0.112 -0.102 -0.178 -0.168 -0.168
 0.390  1.247  0.115 -0.100 -0.176 -0.167 -0.167
 0.392  1.249  0.118 -0.099 -0.175 -0.166 -0.166
 0.394  1.251  0.120 -0.097 -0.174 -0.165 -0.165
 0.396  1.253  0.122 -0.095 -0.172 -0.164 -0.164
 0.398  1.255  0.125 -0.094 -0.171 -0.162 -0.162
 0.400  1.258  0.127 -0.093 -0.169 -0.161 -0.161
 0.402  1.260  0.129 -0.091 -0.168 -0.160 -0.160
 0.404  1.262  0.132 -0.090 -0.167 -0.159 -0.159
 0.406  1.264  0.134 -0.089 -0.165 -0.158 -0.158
 0.408  1.267  0.137 -0.087 -0.164 -0.157 -0.157
 0.410  1.269  0.139 -0.086 -0.163 -0.156 -0.156
 0.412  1.271  0.141 -0.085 -0.162 -0.155 -0.155
 0.414  1.273  0.144 -0.083 -0.160 -0.154 -0.154
 0.416  1.275  0.145 -0.082 -0.159 -0.153 -0.153
 0.418  1.277  0.148 -0.081 -0.158 -0.152 -0.152
 0.420  1.279  0.151 -0.079 -0.156 -0.151 -0.151
 0.422  1.281  0.153 -0.078 -0.155 -0.150 -0.150
 0.424  1.283  0.154 -0.077 -0.154 -0.149 -0.149
 0.426  1.286  0.157 -0.075 -0.153 -0.148 -0.148
 0.428  1.287  0.159 -0.074 -0.152 -0.147 -0.147
 0.430  1.289  0.161 -0.073 -0.151 -0.146 -0.146
 0.432  1.292  0.163 -0.071 -0.149 -0.145 -0.145
 0.434  1.293  0.165 -0.070 -0.148 -0.144 -0.144
 0.436  1.296  0.167 -0.069 -0.147 -0.143 -0.143
 0.438  1.297  0.169 -0.067 -0.146 -0.142 -0.142
 0.440  1.299  0.171 -0.066 -0.145 -0.141 -0.141
 0.442  1.302  0.173 -0.065 -0.144 -0.140 -0.140
 0.444  1.303  0.175 -0.064 -0.143 -0.139 -0.139
 0.446  1.305  0.177 -0.063 -0.142 -0.138 -0.138
 0.448  1.307  0.178 -0.062 -0.141 -0.137 -0.137
 0.450  1.308  0.180 -0.061 -0.139 -0.136 -0.136
 0.452  1.311  0.182 -0.059 -0.138 -0.135 -0.135
 0.454  1.312  0.184 -0.058 -0.137 -0.134 -0.134
 0.456  1.314  0.185 -0.057 -0.136 -0.133 -0.133
 0.458  1.316  0.187 -0.055 -0.135 -0.132 -0.132
 0.460  1.317  0.189 -0.054 -0.134 -0.131 -0.131
 0.462  1.319  0.191 -0.053 -0.133 -0.130 -0.130
 0.464  1.320  0.192 -0.052 -0.132 -0.129 -0.129
 0.466  1.322  0.193 -0.051 -0.131 -0.128 -0.128
 0.468  1.324  0.195 -0.050 -0.130 -0.128 -0.128
 0.470  1.325  0.197 -0.049 -0.129 -0.127 -0.127
 0.472  1.327  0.198 -0.048 -0.128 -0.126 -0.126
 0.474  1.328  0.200 -0.047 -0.127 -0.125 -0.125
 0.476  1.330  0.201 -0.046 -0.126 -0.124 -0.124
 0.478  1.331  0.202 -0.045 -0.125 -0.123 -0.123
 0.480  1.333  0.203 -0.043 -0.124 -0.122 -0.122
 0.482  1.333  0.205 -0.042 -0.124 -0.121 -0.121
 0.484  1.335  0.206 -0.041 -0.123 -0.120 -0.120
 0.486  1.336  0.208 -0.040 -0.122 -0.119 -0.119
 0.488  1.337  0.209 -0.039 -0.121 -0.119 -0.119
 0.490  1.339  0.210 -0.038 -0.120 -0.118 -0.118
 0.492  1.339  0.211 -0.037 -0.119 -0.117 -0.117
 0.494  1.340  0.212 -0.036 -0.118 -0.116 -0.116
 0.496  1.342  0.214 -0.035 -0.117 -0.115 -0.115
 0.498  1.342  0.215 -0.034 -0.116 -0.114 -0.114
 0.500  1.343  0.216 -0.033 -0.115 -0.114 -0.114
 0.502  1.345  0.217 -0.032 -0.115 -0.113 -0.113
 0.504  1.345  0.217 -0.031 -0.114 -0.112 -0.112
 0.506  1.346  0.219 -0.030 -0.113 -0.111 -0.111
 0.508  1.347  0.220 -0.029 -0.112 -0.111 -0.111
 0.510  1.348  0.221 -0.028 -0.112 -0.110 -0.110
 0.512  1.349  0.222 -0.027 -0.111 -0.109 -0.109
 0.514  1.349  0.223 -0.026 -0.110 -0.108 -0.108
 0.516  1.350  0.224 -0.025 -0.109 -0.107 -0.107
 0.518  1.351  0.225 -0.024 -0.108 -0.107 -0.107
 0.520  1.352  0.225 -0.024 -0.107 -0.106 -0.106
 0.522  1.352  0.226 -0.022 -0.107 -0.105 -0.105
 0.524  1.353  0.227 -0.022 -0.106 -0.105 -0.105
 0.526  1.354  0.228 -0.021 -0.105 -0.104 -0.104
 0.528  1.354  0.229 -0.020 -0.104 -0.103 -0.103
 0.530  1.355  0.230 -0.020 -0.104 -0.102 -0.102
 0.532  1.355  0.231 -0.018 -0.103 -0.102 -0.102
 0.534  1.356  0.232 -0.018 -0.102 -0.101 -0.101
 0.536  1.357  0.233 -0.017 -0.101 -0.101 -0.101
 0.538  1.358  0.233 -0.016 -0.100 -0.100 -0.100
 0.540  1.358  0.233 -0.016 -0.099 -0.099 -0.099
 0.542  1.358  0.234 -0.015 -0.099 -0.098 -0.098
 0.544  1.359  0.235 -0.014 -0.098 -0.098 -0.098
 0.546  1.360  0.235 -0.014 -0.097 -0.097 -0.097
 0.548  1.361  0.236 -0.013 -0.096 -0.097 -0.097
 0.550  1.361  0.237 -0.013 -0.095 -0.096 -0.096
 0.552  1.361  0.237 -0.012 -0.095 -0.095 -0.095
 0.554  1.362  0.238 -0.012 -0.094 -0.095 -0.095
 0.556  1.363  0.239 -0.011 -0.093 -0.094 -0.094
 0.558  1.364  0.239 -0.010 -0.093 -0.093 -0.093
 0.560  1.364  0.240 -0.010 -0.092 -0.093 -0.093
 0.562  1.364  0.240 -0.009 -0.091 -0.092 -0.092
 0.564  1.365  0.241 -0.009 -0.090 -0.091 -0.091
 0.566  1.366  0.241 -0.008 -0.089 -0.091 -0.091
 0.568  1.366  0.241 -0.008 -0.089 -0.090 -0.090
 0.570  1.367  0.241 -0.008 -0.088 -0.090 -0.090
 0.572  1.367  0.242 -0.007 -0.087 -0.089 -0.089
 0.574  1.368  0.242 -0.007 -0.086 -0.088 -0.088
 0.576  1.368  0.242 -0.006 -0.085 -0.088 -0.088
 0.578  1.369  0.243 -0.006 -0.085 -0.087 -0.087
 0.580  1.370  0.243 -0.006 -0.084 -0.086 -0.086
 0.582  1.370  0.244 -0.006 -0.083 -0.086 -0.086
 0.584  1.370  0.244 -0.005 -0.083 -0.086 -0.086
 0.586  1.371  0.244 -0.005 -0.082 -0.085 -0.085
 0.588  1.371  0.245 -0.005 -0.081 -0.085 -0.085
 0.590  1.372  0.245 -0.005 -0.080 -0.084 -0.084
 0.592  1.373  0.245 -0.004 -0.079 -0.083 -0.083
 0.594  1.373  0.245 -0.004 -0.078 -0.083 -0.083
 0.596  1.373  0.246 -0.004 -0.077 -0.082 -0.082
 0.598  1.374  0.246 -0.004 -0.076 -0.082 -0.082
 0.600  1.374  0.246 -0.003 -0.075 -0.081 -0.081
 0.602  1.375  0.246 -0.003 -0.074 -0.081 -0.081
 0.604  1.375  0.246 -0.002 -0.074 -0.080 -0.080
 0.606  1.376  0.247 -0.002 -0.073 -0.080 -0.080
 0.608  1.376  0.247 -0.002 -0.071 -0.079 -0.079
 0.610  1.377  0.247 -0.002 -0.070 -0.079 -0.079
 0.612  1.377  0.247 -0.001 -0.069 -0.078 -0.078
 0.614  1.377  0.247 -0.001 -0.068 -0.078 -0.078
 0.616  1.377  0.247 -0.001 -0.067 -0.077 -0.077
 0.618  1.378  0.247 -0.000 -0.066 -0.076 -0.076
 0.620  1.378  0.247 -0.000 -0.065 -0.076 -0.076
 0.622  1.378  0.247  0.000 -0.064 -0.075 -0.075
 0.624  1.379  0.247  0.000 -0.063 -0.075 -0.075
 0.626  1.379  0.247  0.001 -0.062 -0.075 -0.075
 0.628  1.379  0.247  0.002 -0.061 -0.074 -0.074
 0.630  1.380  0.247  0.002 -0.059 -0.073 -0.073
 0.632  1.380  0.247  0.002 -0.058 -0.073 -0.073
 0.634  1.380  0.247  0.003 -0.057 -0.072 -0.072
 0.636  1.380  0.247  0.003 -0.056 -0.072 -0.072
 0.638  1.380  0.248  0.003 -0.054 -0.071 -0.071
 0.640  1.380  0.248  0.003 -0.054 -0.071 -0.071
 0.642  1.380  0.248  0.004 -0.052 -0.070 -0.070
 0.644  1.380  0.248  0.004 -0.051 -0.070 -0.070
 0.646  1.381  0.249  0.005 -0.050 -0.069 -0.069
 0.648  1.381  0.249  0.005 -0.048 -0.069 -0.069
 0.650  1.381  0.249  0.006 -0.047 -0.068 -0.068
 0.652  1.381  0.249  0.006 -0.045 -0.067 -0.067
 0.654  1.381  0.250  0.006 -0.044 -0.067 -0.067
 0.656  1.381  0.250  0.007 -0.043 -0.066 -0.066
 0.658  1.381  0.251  0.007 -0.042 -0.066 -0.066
 0.660  1.381  0.252  0.008 -0.040 -0.065 -0.065
 0.662  1.381  0.252  0.008 -0.038 -0.065 -0.065
 0.664  1.382  0.253  0.009 -0.037 -0.064 -0.064
 0.666  1.382  0.254  0.010 -0.035 -0.064 -0.064
 0.668  1.382  0.255  0.011 -0.034 -0.063 -0.063
 0.670  1.382  0.256  0.012 -0.033 -0.062 -0.062
 0.672  1.382  0.257  0.013 -0.031 -0.062 -0.062
 0.674  1.383  0.257  0.014 -0.030 -0.061 -0.061
 0.676  1.383  0.258  0.015 -0.028 -0.061 -0.061
 0.678  1.383  0.259  0.016 -0.026 -0.060 -0.060
 0.680  1.383  0.260  0.018 -0.025 -0.059 -0.059
 0.682  1.384  0.261  0.019 -0.023 -0.059 -0.059
 0.684  1.384  0.263  0.020 -0.022 -0.059 -0.059
 0.686  1.385  0.264  0.022 -0.020 -0.058 -0.058
 0.688  1.385  0.265  0.024 -0.018 -0.057 -0.057
 0.690  1.386  0.266  0.026 -0.016 -0.057 -0.057
 0.692  1.386  0.267  0.027 -0.015 -0.056 -0.056
 0.694  1.386  0.269  0.029 -0.013 -0.055 -0.055
 0.696  1.387  0.270  0.031 -0.011 -0.055 -0.055
 0.698  1.388  0.272  0.032 -0.009 -0.054 -0.054
 0.700  1.389  0.273  0.035 -0.007 -0.054 -0.054
 0.702  1.389  0.274  0.037 -0.005 -0.053 -0.053
 0.704  1.389  0.275  0.039 -0.004 -0.052 -0.052
 0.706  1.390  0.277  0.041 -0.002 -0.052 -0.052
 0.708  1.391  0.279  0.043 -0.000 -0.051 -0.051
 0.710  1.392  0.281  0.046  0.002 -0.050 -0.050
 0.712  1.392  0.282  0.048  0.004 -0.049 -0.049
 0.714  1.394  0.284  0.051  0.005 -0.049 -0.049
 0.716  1.395  0.286  0.054  0.007 -0.048 -0.048
 0.718  1.395  0.288  0.057  0.009 -0.047 -0.047
 0.720  1.396  0.289  0.060  0.011 -0.047 -0.047
 0.722  1.398  0.291  0.063  0.013 -0.046 -0.046
 0.724  1.398  0.294  0.066  0.015 -0.045 -0.045
 0.726  1.399  0.296  0.068  0.016 -0.044 -0.044
 0.728  1.401  0.297  0.071  0.018 -0.044 -0.044
 0.730  1.401  0.299  0.074  0.020 -0.043 -0.043
 0.732  1.402  0.302  0.076  0.021 -0.042 -0.042
 0.734  1.404  0.304  0.079  0.023 -0.042 -0.042
 0.736  1.405  0.305  0.082  0.025 -0.041 -0.041
 0.738  1.405  0.308  0.083  0.026 -0.040 -0.040
 0.740  1.406  0.310  0.086  0.027 -0.039 -0.039
 0.742  1.408  0.313  0.087  0.029 -0.038 -0.038
 0.744  1.408  0.314  0.090  0.030 -0.038 -0.038
 0.746  1.409  0.317  0.091  0.031 -0.037 -0.037
 0.748  1.410  0.320  0.092  0.032 -0.036 -0.036
 0.750  1.411  0.321  0.094  0.033 -0.035 -0.035
 0.752  1.411  0.324  0.095  0.035 -0.034 -0.034
 0.754  1.412  0.328  0.096  0.035 -0.033 -0.033
 0.756  1.413  0.330  0.096  0.036 -0.033 -0.033
 0.758  1.414  0.333  0.097  0.037 -0.032 -0.032
 0.760  1.414  0.336  0.098  0.038 -0.030 -0.030
 0.762  1.415  0.338  0.098  0.039 -0.029 -0.029
 0.764  1.415  0.342  0.098  0.039 -0.028 -0.028
 0.766  1.416  0.345  0.098  0.040 -0.027 -0.027
 0.768  1.417  0.346  0.097  0.041 -0.025 -0.025
 0.770  1.417  0.349  0.097  0.042 -0.024 -0.024
 0.772  1.417  0.352  0.096  0.042 -0.022 -0.022
 0.774  1.417  0.353  0.095  0.043 -0.021 -0.021
 0.776  1.417  0.355  0.095  0.044 -0.019 -0.019
 0.778  1.418  0.357  0.094  0.044 -0.017 -0.017
 0.780  1.418  0.358  0.092  0.045 -0.015 -0.015
 0.782  1.418  0.359  0.091  0.045 -0.013 -0.013
 0.784  1.419  0.360  0.090  0.045 -0.012 -0.012
 0.786  1.419  0.360  0.088  0.045 -0.009 -0.009
 0.788  1.419  0.360  0.086  0.045 -0.007 -0.007
 0.790  1.419  0.359  0.084  0.045 -0.005 -0.005
 0.792  1.420  0.358  0.082  0.044 -0.003 -0.003
 0.794  1.420  0.356  0.079  0.044 -0.001 -0.001
 0.796  1.420  0.354  0.077  0.043  0.002  0.002
 0.798  1.420  0.353  0.074  0.041  0.004  0.004
 0.800  1.420  0.350  0.071  0.040  0.007  0.007
 0.802  1.419  0.346  0.068  0.038  0.009  0.009
 0.804  1.419  0.343  0.065  0.036  0.012  0.012
 0.806  1.418  0.339  0.062  0.034  0.015  0.015
 0.808  1.417  0.335  0.058  0.032  0.017  0.017
