# IsPeriodic    : True
# Period        : 0.527611 days
# Normalization : <g_mag>=0
# 
# Phase u_mag  g_mag  r_mag  i_mag  z_mag  y_mag
 0.000  0.554 -0.650 -0.603 -0.507 -0.368 -0.368
 0.002  0.554 -0.650 -0.603 -0.507 -0.368 -0.368
 0.004  0.554 -0.650 -0.603 -0.507 -0.368 -0.368
 0.006  0.555 -0.649 -0.602 -0.507 -0.367 -0.367
 0.008  0.556 -0.648 -0.601 -0.506 -0.367 -0.367
 0.010  0.557 -0.647 -0.600 -0.505 -0.367 -0.367
 0.012  0.558 -0.646 -0.598 -0.505 -0.366 -0.366
 0.014  0.560 -0.645 -0.597 -0.503 -0.366 -0.366
 0.016  0.561 -0.643 -0.595 -0.502 -0.365 -0.365
 0.018  0.563 -0.641 -0.594 -0.501 -0.365 -0.365
 0.020  0.565 -0.639 -0.591 -0.500 -0.364 -0.364
 0.022  0.568 -0.637 -0.590 -0.498 -0.363 -0.363
 0.024  0.570 -0.634 -0.587 -0.497 -0.363 -0.363
 0.026  0.574 -0.632 -0.585 -0.495 -0.362 -0.362
 0.028  0.577 -0.629 -0.583 -0.493 -0.361 -0.361
 0.030  0.580 -0.625 -0.580 -0.491 -0.360 -0.360
 0.032  0.585 -0.622 -0.577 -0.490 -0.359 -0.359
 0.034  0.589 -0.618 -0.575 -0.488 -0.359 -0.359
 0.036  0.593 -0.614 -0.572 -0.486 -0.358 -0.358
 0.038  0.598 -0.610 -0.569 -0.483 -0.357 -0.357
 0.040  0.603 -0.606 -0.566 -0.481 -0.355 -0.355
 0.042  0.608 -0.601 -0.562 -0.479 -0.354 -0.354
 0.044  0.613 -0.596 -0.559 -0.476 -0.353 -0.353
 0.046  0.618 -0.591 -0.556 -0.474 -0.352 -0.352
 0.048  0.624 -0.586 -0.552 -0.471 -0.351 -0.351
 0.050  0.630 -0.580 -0.548 -0.469 -0.350 -0.350
 0.052  0.636 -0.574 -0.545 -0.465 -0.348 -0.348
 0.054  0.642 -0.568 -0.541 -0.462 -0.347 -0.347
 0.056  0.647 -0.561 -0.536 -0.459 -0.346 -0.346
 0.058  0.654 -0.555 -0.532 -0.456 -0.344 -0.344
 0.060  0.659 -0.548 -0.527 -0.453 -0.343 -0.343
 0.062  0.665 -0.541 -0.523 -0.449 -0.341 -0.341
 0.064  0.671 -0.534 -0.518 -0.446 -0.340 -0.340
 0.066  0.677 -0.527 -0.513 -0.442 -0.338 -0.338
 0.068  0.683 -0.519 -0.509 -0.438 -0.336 -0.336
 0.070  0.688 -0.512 -0.503 -0.434 -0.335 -0.335
 0.072  0.694 -0.505 -0.499 -0.430 -0.333 -0.333
 0.074  0.699 -0.498 -0.493 -0.427 -0.331 -0.331
 0.076  0.704 -0.490 -0.488 -0.423 -0.330 -0.330
 0.078  0.709 -0.482 -0.483 -0.419 -0.328 -0.328
 0.080  0.714 -0.475 -0.478 -0.415 -0.326 -0.326
 0.082  0.719 -0.467 -0.473 -0.411 -0.325 -0.325
 0.084  0.724 -0.460 -0.467 -0.408 -0.323 -0.323
 0.086  0.729 -0.453 -0.463 -0.404 -0.321 -0.321
 0.088  0.733 -0.446 -0.458 -0.400 -0.320 -0.320
 0.090  0.738 -0.439 -0.453 -0.396 -0.318 -0.318
 0.092  0.743 -0.433 -0.449 -0.393 -0.316 -0.316
 0.094  0.748 -0.426 -0.444 -0.389 -0.314 -0.314
 0.096  0.752 -0.420 -0.439 -0.386 -0.313 -0.313
 0.098  0.757 -0.414 -0.435 -0.383 -0.311 -0.311
 0.100  0.761 -0.408 -0.430 -0.379 -0.310 -0.310
 0.102  0.766 -0.402 -0.426 -0.376 -0.308 -0.308
 0.104  0.770 -0.396 -0.421 -0.373 -0.307 -0.307
 0.106  0.774 -0.390 -0.417 -0.370 -0.305 -0.305
 0.108  0.779 -0.385 -0.413 -0.367 -0.304 -0.304
 0.110  0.782 -0.379 -0.409 -0.364 -0.302 -0.302
 0.112  0.786 -0.374 -0.405 -0.361 -0.301 -0.301
 0.114  0.790 -0.369 -0.401 -0.358 -0.299 -0.299
 0.116  0.794 -0.363 -0.397 -0.355 -0.298 -0.298
 0.118  0.798 -0.358 -0.393 -0.352 -0.297 -0.297
 0.120  0.801 -0.353 -0.389 -0.349 -0.295 -0.295
 0.122  0.805 -0.348 -0.385 -0.347 -0.294 -0.294
 0.124  0.808 -0.345 -0.381 -0.344 -0.293 -0.293
 0.126  0.812 -0.340 -0.378 -0.342 -0.291 -0.291
 0.128  0.816 -0.336 -0.374 -0.339 -0.290 -0.290
 0.130  0.819 -0.332 -0.371 -0.336 -0.289 -0.289
 0.132  0.823 -0.328 -0.368 -0.335 -0.288 -0.288
 0.134  0.827 -0.324 -0.365 -0.332 -0.286 -0.286
 0.136  0.831 -0.320 -0.361 -0.329 -0.285 -0.285
 0.138  0.835 -0.316 -0.358 -0.328 -0.284 -0.284
 0.140  0.838 -0.313 -0.355 -0.326 -0.283 -0.283
 0.142  0.842 -0.309 -0.353 -0.323 -0.282 -0.282
 0.144  0.846 -0.305 -0.350 -0.321 -0.280 -0.280
 0.146  0.849 -0.302 -0.346 -0.319 -0.279 -0.279
 0.148  0.853 -0.298 -0.343 -0.317 -0.278 -0.278
 0.150  0.856 -0.295 -0.340 -0.315 -0.277 -0.277
 0.152  0.860 -0.291 -0.338 -0.313 -0.276 -0.276
 0.154  0.864 -0.288 -0.335 -0.311 -0.275 -0.275
 0.156  0.867 -0.284 -0.332 -0.309 -0.273 -0.273
 0.158  0.871 -0.280 -0.329 -0.307 -0.272 -0.272
 0.160  0.875 -0.277 -0.326 -0.305 -0.271 -0.271
 0.162  0.878 -0.273 -0.323 -0.303 -0.269 -0.269
 0.164  0.882 -0.269 -0.321 -0.302 -0.268 -0.268
 0.166  0.885 -0.266 -0.318 -0.300 -0.267 -0.267
 0.168  0.890 -0.262 -0.315 -0.298 -0.266 -0.266
 0.170  0.894 -0.258 -0.312 -0.296 -0.265 -0.265
 0.172  0.897 -0.254 -0.309 -0.294 -0.264 -0.264
 0.174  0.901 -0.250 -0.307 -0.292 -0.262 -0.262
 0.176  0.904 -0.247 -0.303 -0.290 -0.261 -0.261
 0.178  0.908 -0.243 -0.301 -0.288 -0.260 -0.260
 0.180  0.912 -0.239 -0.298 -0.286 -0.259 -0.259
 0.182  0.915 -0.235 -0.295 -0.284 -0.258 -0.258
 0.184  0.919 -0.231 -0.293 -0.282 -0.256 -0.256
 0.186  0.923 -0.227 -0.289 -0.281 -0.255 -0.255
 0.188  0.927 -0.223 -0.287 -0.279 -0.254 -0.254
 0.190  0.931 -0.219 -0.284 -0.277 -0.253 -0.253
 0.192  0.934 -0.215 -0.282 -0.275 -0.251 -0.251
 0.194  0.938 -0.211 -0.279 -0.274 -0.250 -0.250
 0.196  0.942 -0.207 -0.276 -0.272 -0.249 -0.249
 0.198  0.945 -0.203 -0.274 -0.270 -0.248 -0.248
 0.200  0.949 -0.199 -0.271 -0.268 -0.246 -0.246
 0.202  0.952 -0.195 -0.268 -0.267 -0.245 -0.245
 0.204  0.956 -0.191 -0.265 -0.265 -0.244 -0.244
 0.206  0.960 -0.187 -0.263 -0.263 -0.243 -0.243
 0.208  0.963 -0.184 -0.261 -0.261 -0.241 -0.241
 0.210  0.967 -0.180 -0.257 -0.259 -0.240 -0.240
 0.212  0.971 -0.176 -0.255 -0.258 -0.239 -0.239
 0.214  0.974 -0.171 -0.252 -0.256 -0.238 -0.238
 0.216  0.978 -0.167 -0.250 -0.254 -0.236 -0.236
 0.218  0.980 -0.163 -0.247 -0.252 -0.235 -0.235
 0.220  0.984 -0.159 -0.244 -0.250 -0.234 -0.234
 0.222  0.988 -0.155 -0.242 -0.249 -0.232 -0.232
 0.224  0.991 -0.151 -0.240 -0.247 -0.231 -0.231
 0.226  0.994 -0.147 -0.237 -0.245 -0.229 -0.229
 0.228  0.998 -0.143 -0.234 -0.244 -0.228 -0.228
 0.230  1.001 -0.139 -0.232 -0.242 -0.227 -0.227
 0.232  1.004 -0.135 -0.229 -0.240 -0.226 -0.226
 0.234  1.008 -0.131 -0.227 -0.239 -0.224 -0.224
 0.236  1.011 -0.127 -0.225 -0.237 -0.223 -0.223
 0.238  1.014 -0.124 -0.222 -0.235 -0.222 -0.222
 0.240  1.018 -0.120 -0.220 -0.234 -0.221 -0.221
 0.242  1.020 -0.116 -0.217 -0.232 -0.220 -0.220
 0.244  1.024 -0.113 -0.215 -0.230 -0.218 -0.218
 0.246  1.027 -0.109 -0.212 -0.229 -0.217 -0.217
 0.248  1.030 -0.105 -0.210 -0.227 -0.216 -0.216
 0.250  1.033 -0.102 -0.208 -0.225 -0.215 -0.215
 0.252  1.036 -0.098 -0.205 -0.223 -0.213 -0.213
 0.254  1.039 -0.095 -0.203 -0.222 -0.212 -0.212
 0.256  1.042 -0.091 -0.201 -0.220 -0.211 -0.211
 0.258  1.045 -0.088 -0.199 -0.218 -0.210 -0.210
 0.260  1.048 -0.084 -0.197 -0.217 -0.209 -0.209
 0.262  1.051 -0.081 -0.194 -0.215 -0.208 -0.208
 0.264  1.054 -0.077 -0.192 -0.214 -0.206 -0.206
 0.266  1.056 -0.074 -0.190 -0.212 -0.205 -0.205
 0.268  1.060 -0.071 -0.187 -0.211 -0.204 -0.204
 0.270  1.063 -0.068 -0.186 -0.209 -0.203 -0.203
 0.272  1.066 -0.064 -0.183 -0.208 -0.202 -0.202
 0.274  1.068 -0.061 -0.181 -0.206 -0.201 -0.201
 0.276  1.072 -0.058 -0.179 -0.204 -0.199 -0.199
 0.278  1.075 -0.055 -0.177 -0.203 -0.198 -0.198
 0.280  1.077 -0.052 -0.175 -0.201 -0.197 -0.197
 0.282  1.080 -0.049 -0.172 -0.200 -0.196 -0.196
 0.284  1.083 -0.046 -0.171 -0.198 -0.195 -0.195
 0.286  1.086 -0.043 -0.169 -0.197 -0.194 -0.194
 0.288  1.089 -0.040 -0.166 -0.195 -0.192 -0.192
 0.290  1.092 -0.037 -0.165 -0.194 -0.191 -0.191
 0.292  1.095 -0.034 -0.162 -0.192 -0.190 -0.190
 0.294  1.097 -0.030 -0.161 -0.190 -0.189 -0.189
 0.296  1.101 -0.027 -0.158 -0.189 -0.188 -0.188
 0.298  1.104 -0.024 -0.157 -0.188 -0.187 -0.187
 0.300  1.106 -0.021 -0.154 -0.186 -0.185 -0.185
 0.302  1.109 -0.019 -0.152 -0.185 -0.184 -0.184
 0.304  1.112 -0.016 -0.151 -0.183 -0.183 -0.183
 0.306  1.115 -0.013 -0.148 -0.182 -0.182 -0.182
 0.308  1.118 -0.010 -0.147 -0.180 -0.181 -0.181
 0.310  1.121 -0.007 -0.144 -0.178 -0.180 -0.180
 0.312  1.123 -0.004 -0.143 -0.177 -0.178 -0.178
 0.314  1.126 -0.001 -0.140 -0.175 -0.177 -0.177
 0.316  1.129  0.002 -0.138 -0.174 -0.176 -0.176
 0.318  1.133  0.005 -0.137 -0.172 -0.175 -0.175
 0.320  1.135  0.008 -0.134 -0.171 -0.173 -0.173
 0.322  1.138  0.011 -0.133 -0.169 -0.172 -0.172
 0.324  1.141  0.014 -0.130 -0.168 -0.171 -0.171
 0.326  1.143  0.017 -0.128 -0.166 -0.170 -0.170
 0.328  1.146  0.020 -0.126 -0.164 -0.169 -0.169
 0.330  1.150  0.023 -0.124 -0.162 -0.167 -0.167
 0.332  1.152  0.026 -0.123 -0.161 -0.166 -0.166
 0.334  1.155  0.029 -0.120 -0.159 -0.165 -0.165
 0.336  1.158  0.032 -0.119 -0.158 -0.163 -0.163
 0.338  1.161  0.035 -0.116 -0.156 -0.162 -0.162
 0.340  1.163  0.038 -0.115 -0.155 -0.161 -0.161
 0.342  1.166  0.041 -0.112 -0.153 -0.160 -0.160
 0.344  1.169  0.044 -0.110 -0.151 -0.158 -0.158
 0.346  1.171  0.047 -0.108 -0.150 -0.157 -0.157
 0.348  1.175  0.050 -0.106 -0.148 -0.156 -0.156
 0.350  1.178  0.053 -0.105 -0.147 -0.154 -0.154
 0.352  1.180  0.056 -0.102 -0.145 -0.153 -0.153
 0.354  1.183  0.059 -0.101 -0.143 -0.151 -0.151
 0.356  1.185  0.062 -0.098 -0.141 -0.150 -0.150
 0.358  1.188  0.065 -0.096 -0.140 -0.148 -0.148
 0.360  1.190  0.068 -0.094 -0.138 -0.147 -0.147
 0.362  1.193  0.071 -0.092 -0.136 -0.146 -0.146
 0.364  1.196  0.074 -0.091 -0.135 -0.144 -0.144
 0.366  1.199  0.077 -0.088 -0.133 -0.143 -0.143
 0.368  1.201  0.080 -0.087 -0.131 -0.142 -0.142
 0.370  1.204  0.083 -0.084 -0.130 -0.140 -0.140
 0.372  1.206  0.086 -0.083 -0.128 -0.139 -0.139
 0.374  1.209  0.089 -0.080 -0.127 -0.138 -0.138
 0.376  1.211  0.092 -0.079 -0.125 -0.136 -0.136
 0.378  1.214  0.094 -0.076 -0.124 -0.135 -0.135
 0.380  1.216  0.097 -0.075 -0.122 -0.134 -0.134
 0.382  1.219  0.100 -0.073 -0.121 -0.133 -0.133
 0.384  1.221  0.103 -0.071 -0.119 -0.131 -0.131
 0.386  1.223  0.106 -0.069 -0.117 -0.130 -0.130
 0.388  1.226  0.109 -0.067 -0.115 -0.129 -0.129
 0.390  1.228  0.111 -0.065 -0.114 -0.127 -0.127
 0.392  1.230  0.114 -0.063 -0.112 -0.126 -0.126
 0.394  1.233  0.117 -0.061 -0.111 -0.125 -0.125
 0.396  1.235  0.120 -0.059 -0.110 -0.124 -0.124
 0.398  1.238  0.122 -0.057 -0.108 -0.122 -0.122
 0.400  1.239  0.125 -0.055 -0.107 -0.121 -0.121
 0.402  1.242  0.128 -0.053 -0.105 -0.120 -0.120
 0.404  1.244  0.131 -0.052 -0.103 -0.119 -0.119
 0.406  1.247  0.133 -0.049 -0.102 -0.118 -0.118
 0.408  1.248  0.136 -0.048 -0.100 -0.116 -0.116
 0.410  1.251  0.139 -0.045 -0.099 -0.115 -0.115
 0.412  1.253  0.141 -0.044 -0.098 -0.114 -0.114
 0.414  1.256  0.144 -0.041 -0.096 -0.113 -0.113
 0.416  1.257  0.145 -0.040 -0.095 -0.112 -0.112
 0.418  1.259  0.148 -0.038 -0.093 -0.110 -0.110
 0.420  1.262  0.151 -0.036 -0.091 -0.109 -0.109
 0.422  1.264  0.153 -0.034 -0.090 -0.108 -0.108
 0.424  1.266  0.156 -0.032 -0.089 -0.106 -0.106
 0.426  1.268  0.158 -0.030 -0.088 -0.105 -0.105
 0.428  1.270  0.161 -0.028 -0.086 -0.104 -0.104
 0.430  1.272  0.163 -0.027 -0.084 -0.103 -0.103
 0.432  1.274  0.166 -0.025 -0.083 -0.102 -0.102
 0.434  1.276  0.168 -0.023 -0.082 -0.101 -0.101
 0.436  1.278  0.171 -0.021 -0.081 -0.100 -0.100
 0.438  1.280  0.173 -0.019 -0.079 -0.098 -0.098
 0.440  1.282  0.176 -0.017 -0.077 -0.097 -0.097
 0.442  1.284  0.178 -0.016 -0.076 -0.096 -0.096
 0.444  1.285  0.180 -0.013 -0.075 -0.095 -0.095
 0.446  1.287  0.182 -0.012 -0.073 -0.094 -0.094
 0.448  1.289  0.185 -0.010 -0.072 -0.093 -0.093
 0.450  1.291  0.187 -0.009 -0.070 -0.092 -0.092
 0.452  1.293  0.189 -0.006 -0.069 -0.091 -0.091
 0.454  1.295  0.191 -0.005 -0.068 -0.089 -0.089
 0.456  1.297  0.194 -0.003 -0.066 -0.088 -0.088
 0.458  1.298  0.196 -0.002 -0.065 -0.087 -0.087
 0.460  1.300  0.198  0.001 -0.063 -0.086 -0.086
 0.462  1.302  0.200  0.002 -0.062 -0.085 -0.085
 0.464  1.304  0.202  0.004 -0.060 -0.084 -0.084
 0.466  1.305  0.204  0.005 -0.059 -0.083 -0.083
 0.468  1.307  0.206  0.007 -0.058 -0.082 -0.082
 0.470  1.309  0.208  0.009 -0.056 -0.081 -0.081
 0.472  1.311  0.210  0.011 -0.055 -0.079 -0.079
 0.474  1.313  0.211  0.012 -0.053 -0.078 -0.078
 0.476  1.314  0.213  0.014 -0.052 -0.077 -0.077
 0.478  1.315  0.215  0.016 -0.051 -0.076 -0.076
 0.480  1.317  0.217  0.017 -0.049 -0.075 -0.075
 0.482  1.319  0.219  0.019 -0.048 -0.074 -0.074
 0.484  1.321  0.221  0.020 -0.046 -0.073 -0.073
 0.486  1.322  0.222  0.022 -0.045 -0.072 -0.072
 0.488  1.324  0.224  0.023 -0.044 -0.071 -0.071
 0.490  1.325  0.226  0.025 -0.042 -0.069 -0.069
 0.492  1.326  0.227  0.026 -0.041 -0.068 -0.068
 0.494  1.328  0.229  0.028 -0.039 -0.067 -0.067
 0.496  1.329  0.230  0.030 -0.038 -0.066 -0.066
 0.498  1.331  0.232  0.031 -0.037 -0.065 -0.065
 0.500  1.332  0.233  0.033 -0.035 -0.064 -0.064
 0.502  1.333  0.235  0.034 -0.034 -0.063 -0.063
 0.504  1.334  0.236  0.036 -0.032 -0.061 -0.061
 0.506  1.336  0.238  0.037 -0.031 -0.060 -0.060
 0.508  1.337  0.239  0.038 -0.030 -0.059 -0.059
 0.510  1.338  0.241  0.040 -0.028 -0.058 -0.058
 0.512  1.340  0.242  0.041 -0.027 -0.057 -0.057
 0.514  1.341  0.243  0.043 -0.026 -0.056 -0.056
 0.516  1.342  0.244  0.044 -0.025 -0.055 -0.055
 0.518  1.343  0.246  0.045 -0.023 -0.054 -0.054
 0.520  1.344  0.247  0.047 -0.022 -0.053 -0.053
 0.522  1.345  0.248  0.048 -0.021 -0.052 -0.052
 0.524  1.346  0.249  0.049 -0.020 -0.051 -0.051
 0.526  1.347  0.250  0.050 -0.019 -0.050 -0.050
 0.528  1.348  0.251  0.051 -0.018 -0.049 -0.049
 0.530  1.349  0.252  0.052 -0.017 -0.049 -0.049
 0.532  1.350  0.253  0.054 -0.016 -0.048 -0.048
 0.534  1.351  0.254  0.055 -0.015 -0.047 -0.047
 0.536  1.352  0.255  0.056 -0.014 -0.046 -0.046
 0.538  1.352  0.256  0.057 -0.013 -0.045 -0.045
 0.540  1.353  0.256  0.058 -0.012 -0.044 -0.044
 0.542  1.354  0.257  0.059 -0.011 -0.043 -0.043
 0.544  1.355  0.258  0.060 -0.011 -0.042 -0.042
 0.546  1.356  0.259  0.061 -0.009 -0.042 -0.042
 0.548  1.357  0.259  0.062 -0.009 -0.041 -0.041
 0.550  1.357  0.260  0.062 -0.008 -0.040 -0.040
 0.552  1.358  0.260  0.064 -0.007 -0.039 -0.039
 0.554  1.359  0.261  0.065 -0.007 -0.038 -0.038
 0.556  1.359  0.262  0.065 -0.006 -0.038 -0.038
 0.558  1.360  0.262  0.066 -0.006 -0.037 -0.037
 0.560  1.361  0.262  0.067 -0.005 -0.036 -0.036
 0.562  1.361  0.263  0.068 -0.004 -0.035 -0.035
 0.564  1.362  0.263  0.069 -0.004 -0.035 -0.035
 0.566  1.362  0.264  0.069 -0.003 -0.034 -0.034
 0.568  1.362  0.264  0.070 -0.002 -0.033 -0.033
 0.570  1.362  0.264  0.070 -0.002 -0.032 -0.032
 0.572  1.362  0.265  0.071 -0.002 -0.032 -0.032
 0.574  1.363  0.265  0.072 -0.001 -0.031 -0.031
 0.576  1.363  0.265  0.073 -0.001 -0.030 -0.030
 0.578  1.363  0.265  0.073 -0.001 -0.030 -0.030
 0.580  1.363  0.265  0.073  0.000 -0.029 -0.029
 0.582  1.363  0.266  0.074  0.000 -0.028 -0.028
 0.584  1.363  0.266  0.074  0.001 -0.027 -0.027
 0.586  1.364  0.266  0.075  0.001 -0.027 -0.027
 0.588  1.364  0.266  0.075  0.001 -0.026 -0.026
 0.590  1.364  0.266  0.076  0.001 -0.025 -0.025
 0.592  1.364  0.266  0.076  0.002 -0.025 -0.025
 0.594  1.363  0.266  0.076  0.002 -0.024 -0.024
 0.596  1.363  0.266  0.076  0.003 -0.023 -0.023
 0.598  1.363  0.266  0.077  0.003 -0.022 -0.022
 0.600  1.363  0.266  0.077  0.003 -0.022 -0.022
 0.602  1.363  0.266  0.077  0.003 -0.021 -0.021
 0.604  1.363  0.266  0.077  0.004 -0.020 -0.020
 0.606  1.362  0.266  0.078  0.004 -0.020 -0.020
 0.608  1.362  0.266  0.078  0.005 -0.019 -0.019
 0.610  1.362  0.266  0.078  0.005 -0.018 -0.018
 0.612  1.362  0.266  0.078  0.005 -0.018 -0.018
 0.614  1.362  0.266  0.078  0.005 -0.017 -0.017
 0.616  1.361  0.266  0.078  0.005 -0.016 -0.016
 0.618  1.361  0.266  0.078  0.005 -0.016 -0.016
 0.620  1.360  0.266  0.078  0.006 -0.015 -0.015
 0.622  1.359  0.265  0.078  0.006 -0.014 -0.014
 0.624  1.359  0.265  0.078  0.006 -0.014 -0.014
 0.626  1.358  0.265  0.078  0.006 -0.013 -0.013
 0.628  1.358  0.265  0.077  0.006 -0.012 -0.012
 0.630  1.357  0.265  0.077  0.006 -0.011 -0.011
 0.632  1.357  0.264  0.077  0.006 -0.011 -0.011
 0.634  1.356  0.264  0.076  0.007 -0.010 -0.010
 0.636  1.356  0.264  0.076  0.007 -0.009 -0.009
 0.638  1.355  0.264  0.076  0.007 -0.009 -0.009
 0.640  1.355  0.263  0.076  0.007 -0.008 -0.008
 0.642  1.354  0.263  0.076  0.007 -0.007 -0.007
 0.644  1.354  0.263  0.075  0.008 -0.007 -0.007
 0.646  1.354  0.262  0.075  0.008 -0.006 -0.006
 0.648  1.353  0.262  0.074  0.008 -0.005 -0.005
 0.650  1.353  0.261  0.074  0.008 -0.004 -0.004
 0.652  1.353  0.261  0.073  0.008 -0.004 -0.004
 0.654  1.352  0.260  0.073  0.008 -0.003 -0.003
 0.656  1.352  0.260  0.073  0.008 -0.002 -0.002
 0.658  1.352  0.259  0.073  0.008 -0.001 -0.001
 0.660  1.352  0.259  0.073  0.008 -0.001 -0.001
 0.662  1.352  0.258  0.072  0.008  0.000  0.000
 0.664  1.352  0.258  0.072  0.008  0.001  0.001
 0.666  1.352  0.257  0.071  0.009  0.002  0.002
 0.668  1.352  0.257  0.071  0.009  0.003  0.003
 0.670  1.351  0.256  0.070  0.009  0.003  0.003
 0.672  1.351  0.255  0.070  0.009  0.004  0.004
 0.674  1.351  0.255  0.070  0.009  0.005  0.005
 0.676  1.351  0.254  0.069  0.010  0.006  0.006
 0.678  1.351  0.254  0.069  0.010  0.007  0.007
 0.680  1.351  0.253  0.069  0.010  0.008  0.008
 0.682  1.351  0.252  0.069  0.010  0.009  0.009
 0.684  1.351  0.251  0.069  0.010  0.010  0.010
 0.686  1.351  0.251  0.069  0.010  0.010  0.010
 0.688  1.351  0.250  0.069  0.010  0.011  0.011
 0.690  1.351  0.249  0.068  0.010  0.013  0.013
 0.692  1.351  0.248  0.068  0.011  0.014  0.014
 0.694  1.351  0.247  0.068  0.011  0.015  0.015
 0.696  1.351  0.246  0.068  0.011  0.016  0.016
 0.698  1.351  0.245  0.068  0.012  0.017  0.017
 0.700  1.351  0.244  0.067  0.012  0.018  0.018
 0.702  1.351  0.244  0.067  0.012  0.019  0.019
 0.704  1.351  0.243  0.067  0.012  0.020  0.020
 0.706  1.351  0.242  0.067  0.012  0.021  0.021
 0.708  1.351  0.241  0.067  0.012  0.022  0.022
 0.710  1.352  0.240  0.067  0.012  0.023  0.023
 0.712  1.352  0.239  0.067  0.013  0.024  0.024
 0.714  1.352  0.238  0.066  0.013  0.025  0.025
 0.716  1.352  0.237  0.066  0.013  0.026  0.026
 0.718  1.352  0.236  0.066  0.013  0.027  0.027
 0.720  1.352  0.236  0.066  0.013  0.028  0.028
 0.722  1.352  0.235  0.066  0.013  0.029  0.029
 0.724  1.352  0.234  0.066  0.014  0.031  0.031
 0.726  1.352  0.234  0.066  0.014  0.032  0.032
 0.728  1.352  0.234  0.066  0.014  0.034  0.034
 0.730  1.352  0.233  0.066  0.015  0.035  0.035
 0.732  1.353  0.233  0.066  0.015  0.037  0.037
 0.734  1.353  0.233  0.066  0.015  0.038  0.038
 0.736  1.353  0.233  0.066  0.015  0.040  0.040
 0.738  1.354  0.234  0.066  0.015  0.042  0.042
 0.740  1.354  0.234  0.066  0.015  0.044  0.044
 0.742  1.354  0.234  0.065  0.015  0.046  0.046
 0.744  1.355  0.235  0.065  0.016  0.048  0.048
 0.746  1.355  0.236  0.065  0.016  0.050  0.050
 0.748  1.355  0.236  0.065  0.016  0.053  0.053
 0.750  1.356  0.237  0.065  0.017  0.055  0.055
 0.752  1.356  0.238  0.065  0.017  0.058  0.058
 0.754  1.356  0.239  0.065  0.017  0.060  0.060
 0.756  1.356  0.240  0.065  0.017  0.062  0.062
 0.758  1.357  0.242  0.065  0.017  0.065  0.065
 0.760  1.357  0.243  0.065  0.017  0.067  0.067
 0.762  1.358  0.244  0.065  0.018  0.070  0.070
 0.764  1.358  0.246  0.065  0.018  0.073  0.073
 0.766  1.359  0.247  0.065  0.018  0.076  0.076
 0.768  1.359  0.249  0.065  0.019  0.079  0.079
 0.770  1.360  0.251  0.065  0.019  0.082  0.082
 0.772  1.361  0.253  0.065  0.019  0.085  0.085
 0.774  1.362  0.255  0.065  0.019  0.088  0.088
 0.776  1.362  0.257  0.065  0.019  0.092  0.092
 0.778  1.364  0.260  0.065  0.019  0.096  0.096
 0.780  1.365  0.262  0.065  0.019  0.099  0.099
 0.782  1.367  0.264  0.065  0.019  0.103  0.103
 0.784  1.368  0.267  0.065  0.019  0.106  0.106
 0.786  1.370  0.269  0.065  0.020  0.110  0.110
 0.788  1.371  0.272  0.065  0.020  0.113  0.113
 0.790  1.373  0.274  0.065  0.020  0.116  0.116
 0.792  1.375  0.277  0.065  0.021  0.119  0.119
 0.794  1.377  0.279  0.066  0.022  0.122  0.122
 0.796  1.380  0.282  0.067  0.022  0.125  0.125
 0.798  1.381  0.284  0.067  0.023  0.127  0.127
 0.800  1.384  0.287  0.069  0.024  0.130  0.130
 0.802  1.387  0.289  0.069  0.025  0.132  0.132
 0.804  1.389  0.292  0.070  0.026  0.133  0.133
 0.806  1.391  0.294  0.072  0.027  0.135  0.135
 0.808  1.395  0.296  0.073  0.029  0.137  0.137
