# IsPeriodic    : True
# Period        : 0.632882 days
# Normalization : <g_mag>=0
# 
# Phase u_mag  g_mag  r_mag  i_mag  z_mag  y_mag
 0.000  0.915 -0.192 -0.309 -0.361 -0.359 -0.359
 0.002  0.915 -0.192 -0.309 -0.361 -0.359 -0.359
 0.004  0.915 -0.192 -0.309 -0.361 -0.359 -0.359
 0.006  0.915 -0.191 -0.308 -0.361 -0.359 -0.359
 0.008  0.916 -0.191 -0.308 -0.360 -0.359 -0.359
 0.010  0.916 -0.190 -0.308 -0.360 -0.358 -0.358
 0.012  0.917 -0.189 -0.308 -0.360 -0.358 -0.358
 0.014  0.917 -0.188 -0.308 -0.359 -0.358 -0.358
 0.016  0.918 -0.188 -0.308 -0.359 -0.357 -0.357
 0.018  0.919 -0.187 -0.307 -0.359 -0.357 -0.357
 0.020  0.919 -0.185 -0.307 -0.358 -0.356 -0.356
 0.022  0.920 -0.184 -0.307 -0.358 -0.355 -0.355
 0.024  0.921 -0.183 -0.307 -0.358 -0.355 -0.355
 0.026  0.922 -0.182 -0.306 -0.357 -0.354 -0.354
 0.028  0.923 -0.181 -0.306 -0.357 -0.353 -0.353
 0.030  0.924 -0.179 -0.305 -0.356 -0.352 -0.352
 0.032  0.925 -0.178 -0.305 -0.356 -0.351 -0.351
 0.034  0.926 -0.177 -0.305 -0.355 -0.350 -0.350
 0.036  0.927 -0.175 -0.304 -0.355 -0.349 -0.349
 0.038  0.928 -0.174 -0.304 -0.355 -0.348 -0.348
 0.040  0.929 -0.172 -0.303 -0.354 -0.347 -0.347
 0.042  0.930 -0.171 -0.302 -0.354 -0.346 -0.346
 0.044  0.931 -0.170 -0.302 -0.353 -0.345 -0.345
 0.046  0.932 -0.169 -0.301 -0.353 -0.344 -0.344
 0.048  0.933 -0.167 -0.301 -0.352 -0.343 -0.343
 0.050  0.934 -0.166 -0.300 -0.352 -0.343 -0.343
 0.052  0.936 -0.164 -0.299 -0.351 -0.342 -0.342
 0.054  0.937 -0.163 -0.298 -0.351 -0.341 -0.341
 0.056  0.939 -0.161 -0.298 -0.351 -0.340 -0.340
 0.058  0.940 -0.160 -0.297 -0.350 -0.339 -0.339
 0.060  0.942 -0.158 -0.296 -0.350 -0.338 -0.338
 0.062  0.943 -0.157 -0.295 -0.349 -0.337 -0.337
 0.064  0.944 -0.155 -0.294 -0.349 -0.337 -0.337
 0.066  0.946 -0.153 -0.294 -0.348 -0.336 -0.336
 0.068  0.948 -0.152 -0.293 -0.348 -0.335 -0.335
 0.070  0.949 -0.150 -0.292 -0.347 -0.335 -0.335
 0.072  0.951 -0.149 -0.291 -0.347 -0.334 -0.334
 0.074  0.953 -0.147 -0.290 -0.347 -0.333 -0.333
 0.076  0.954 -0.145 -0.289 -0.346 -0.333 -0.333
 0.078  0.956 -0.144 -0.288 -0.346 -0.332 -0.332
 0.080  0.958 -0.142 -0.287 -0.345 -0.332 -0.332
 0.082  0.960 -0.141 -0.286 -0.345 -0.331 -0.331
 0.084  0.962 -0.139 -0.285 -0.344 -0.330 -0.330
 0.086  0.963 -0.137 -0.284 -0.344 -0.330 -0.330
 0.088  0.965 -0.135 -0.283 -0.343 -0.329 -0.329
 0.090  0.967 -0.134 -0.282 -0.343 -0.329 -0.329
 0.092  0.968 -0.132 -0.282 -0.342 -0.328 -0.328
 0.094  0.970 -0.130 -0.281 -0.342 -0.328 -0.328
 0.096  0.972 -0.128 -0.280 -0.341 -0.328 -0.328
 0.098  0.974 -0.127 -0.279 -0.341 -0.327 -0.327
 0.100  0.975 -0.125 -0.278 -0.340 -0.327 -0.327
 0.102  0.977 -0.123 -0.277 -0.340 -0.327 -0.327
 0.104  0.979 -0.122 -0.277 -0.339 -0.326 -0.326
 0.106  0.980 -0.120 -0.276 -0.339 -0.326 -0.326
 0.108  0.982 -0.118 -0.275 -0.338 -0.326 -0.326
 0.110  0.984 -0.117 -0.275 -0.338 -0.326 -0.326
 0.112  0.985 -0.115 -0.274 -0.337 -0.325 -0.325
 0.114  0.987 -0.114 -0.273 -0.337 -0.325 -0.325
 0.116  0.989 -0.112 -0.273 -0.336 -0.325 -0.325
 0.118  0.991 -0.111 -0.272 -0.335 -0.324 -0.324
 0.120  0.992 -0.109 -0.271 -0.335 -0.324 -0.324
 0.122  0.994 -0.108 -0.271 -0.334 -0.324 -0.324
 0.124  0.996 -0.106 -0.270 -0.334 -0.324 -0.324
 0.126  0.998 -0.105 -0.269 -0.333 -0.323 -0.323
 0.128  0.999 -0.103 -0.269 -0.332 -0.323 -0.323
 0.130  1.001 -0.102 -0.268 -0.332 -0.322 -0.322
 0.132  1.003 -0.100 -0.268 -0.331 -0.322 -0.322
 0.134  1.004 -0.099 -0.267 -0.331 -0.322 -0.322
 0.136  1.006 -0.098 -0.267 -0.330 -0.321 -0.321
 0.138  1.008 -0.096 -0.266 -0.329 -0.321 -0.321
 0.140  1.009 -0.095 -0.266 -0.329 -0.320 -0.320
 0.142  1.011 -0.094 -0.265 -0.328 -0.320 -0.320
 0.144  1.013 -0.092 -0.265 -0.327 -0.320 -0.320
 0.146  1.014 -0.091 -0.264 -0.327 -0.319 -0.319
 0.148  1.016 -0.090 -0.264 -0.326 -0.319 -0.319
 0.150  1.018 -0.089 -0.263 -0.325 -0.318 -0.318
 0.152  1.019 -0.088 -0.263 -0.324 -0.318 -0.318
 0.154  1.021 -0.086 -0.262 -0.324 -0.317 -0.317
 0.156  1.023 -0.085 -0.262 -0.323 -0.317 -0.317
 0.158  1.024 -0.084 -0.261 -0.322 -0.316 -0.316
 0.160  1.026 -0.083 -0.261 -0.321 -0.316 -0.316
 0.162  1.027 -0.082 -0.260 -0.321 -0.315 -0.315
 0.164  1.029 -0.081 -0.260 -0.320 -0.314 -0.314
 0.166  1.031 -0.079 -0.259 -0.319 -0.314 -0.314
 0.168  1.032 -0.078 -0.258 -0.319 -0.313 -0.313
 0.170  1.034 -0.077 -0.258 -0.318 -0.313 -0.313
 0.172  1.036 -0.076 -0.257 -0.317 -0.312 -0.312
 0.174  1.037 -0.075 -0.257 -0.317 -0.311 -0.311
 0.176  1.039 -0.073 -0.256 -0.316 -0.311 -0.311
 0.178  1.040 -0.072 -0.255 -0.315 -0.310 -0.310
 0.180  1.042 -0.071 -0.255 -0.315 -0.309 -0.309
 0.182  1.043 -0.070 -0.254 -0.314 -0.309 -0.309
 0.184  1.045 -0.069 -0.254 -0.313 -0.308 -0.308
 0.186  1.047 -0.067 -0.253 -0.313 -0.308 -0.308
 0.188  1.048 -0.066 -0.252 -0.312 -0.307 -0.307
 0.190  1.049 -0.065 -0.252 -0.311 -0.306 -0.306
 0.192  1.051 -0.064 -0.251 -0.311 -0.306 -0.306
 0.194  1.053 -0.063 -0.250 -0.310 -0.305 -0.305
 0.196  1.054 -0.061 -0.250 -0.310 -0.305 -0.305
 0.198  1.056 -0.060 -0.249 -0.309 -0.304 -0.304
 0.200  1.057 -0.059 -0.248 -0.309 -0.303 -0.303
 0.202  1.059 -0.057 -0.247 -0.308 -0.303 -0.303
 0.204  1.060 -0.056 -0.247 -0.308 -0.302 -0.302
 0.206  1.062 -0.055 -0.246 -0.307 -0.302 -0.302
 0.208  1.063 -0.053 -0.245 -0.307 -0.301 -0.301
 0.210  1.064 -0.052 -0.245 -0.306 -0.301 -0.301
 0.212  1.066 -0.050 -0.244 -0.305 -0.300 -0.300
 0.214  1.068 -0.049 -0.243 -0.305 -0.300 -0.300
 0.216  1.069 -0.048 -0.242 -0.304 -0.299 -0.299
 0.218  1.071 -0.047 -0.241 -0.304 -0.299 -0.299
 0.220  1.072 -0.045 -0.241 -0.304 -0.298 -0.298
 0.222  1.073 -0.044 -0.240 -0.303 -0.298 -0.298
 0.224  1.075 -0.042 -0.239 -0.303 -0.297 -0.297
 0.226  1.076 -0.041 -0.239 -0.302 -0.297 -0.297
 0.228  1.078 -0.039 -0.238 -0.302 -0.296 -0.296
 0.230  1.079 -0.038 -0.237 -0.301 -0.296 -0.296
 0.232  1.081 -0.037 -0.236 -0.301 -0.295 -0.295
 0.234  1.082 -0.035 -0.235 -0.300 -0.295 -0.295
 0.236  1.083 -0.034 -0.235 -0.300 -0.294 -0.294
 0.238  1.084 -0.032 -0.234 -0.299 -0.294 -0.294
 0.240  1.086 -0.031 -0.233 -0.299 -0.294 -0.294
 0.242  1.087 -0.029 -0.232 -0.299 -0.293 -0.293
 0.244  1.089 -0.028 -0.231 -0.298 -0.293 -0.293
 0.246  1.090 -0.027 -0.231 -0.298 -0.292 -0.292
 0.248  1.091 -0.025 -0.230 -0.297 -0.292 -0.292
 0.250  1.093 -0.024 -0.229 -0.297 -0.291 -0.291
 0.252  1.094 -0.023 -0.228 -0.296 -0.291 -0.291
 0.254  1.095 -0.022 -0.227 -0.296 -0.291 -0.291
 0.256  1.097 -0.020 -0.227 -0.295 -0.290 -0.290
 0.258  1.098 -0.019 -0.226 -0.295 -0.290 -0.290
 0.260  1.099 -0.018 -0.225 -0.294 -0.290 -0.290
 0.262  1.101 -0.016 -0.224 -0.294 -0.289 -0.289
 0.264  1.102 -0.015 -0.223 -0.293 -0.289 -0.289
 0.266  1.103 -0.014 -0.223 -0.293 -0.288 -0.288
 0.268  1.105 -0.013 -0.222 -0.292 -0.288 -0.288
 0.270  1.106 -0.012 -0.221 -0.292 -0.287 -0.287
 0.272  1.107 -0.010 -0.220 -0.291 -0.287 -0.287
 0.274  1.108 -0.009 -0.219 -0.290 -0.287 -0.287
 0.276  1.109 -0.008 -0.219 -0.290 -0.286 -0.286
 0.278  1.111 -0.007 -0.218 -0.289 -0.286 -0.286
 0.280  1.112 -0.006 -0.217 -0.289 -0.285 -0.285
 0.282  1.113 -0.005 -0.216 -0.288 -0.285 -0.285
 0.284  1.114 -0.003 -0.215 -0.287 -0.284 -0.284
 0.286  1.115 -0.003 -0.215 -0.287 -0.284 -0.284
 0.288  1.116 -0.001 -0.214 -0.286 -0.284 -0.284
 0.290  1.118 -0.000 -0.213 -0.286 -0.283 -0.283
 0.292  1.119  0.000 -0.212 -0.285 -0.283 -0.283
 0.294  1.120  0.002 -0.211 -0.284 -0.282 -0.282
 0.296  1.121  0.003 -0.211 -0.284 -0.282 -0.282
 0.298  1.122  0.003 -0.210 -0.283 -0.281 -0.281
 0.300  1.123  0.005 -0.209 -0.282 -0.281 -0.281
 0.302  1.125  0.006 -0.208 -0.282 -0.280 -0.280
 0.304  1.126  0.006 -0.208 -0.281 -0.280 -0.280
 0.306  1.127  0.007 -0.207 -0.280 -0.279 -0.279
 0.308  1.128  0.008 -0.206 -0.279 -0.279 -0.279
 0.310  1.129  0.009 -0.206 -0.279 -0.279 -0.279
 0.312  1.130  0.010 -0.205 -0.278 -0.278 -0.278
 0.314  1.131  0.011 -0.204 -0.277 -0.278 -0.278
 0.316  1.133  0.012 -0.203 -0.277 -0.277 -0.277
 0.318  1.134  0.013 -0.203 -0.276 -0.277 -0.277
 0.320  1.135  0.014 -0.202 -0.275 -0.276 -0.276
 0.322  1.136  0.015 -0.201 -0.275 -0.276 -0.276
 0.324  1.137  0.016 -0.201 -0.274 -0.275 -0.275
 0.326  1.138  0.017 -0.200 -0.274 -0.275 -0.275
 0.328  1.140  0.018 -0.199 -0.273 -0.274 -0.274
 0.330  1.141  0.019 -0.199 -0.272 -0.274 -0.274
 0.332  1.142  0.020 -0.198 -0.271 -0.273 -0.273
 0.334  1.143  0.021 -0.197 -0.271 -0.273 -0.273
 0.336  1.144  0.022 -0.197 -0.270 -0.272 -0.272
 0.338  1.145  0.023 -0.196 -0.269 -0.272 -0.272
 0.340  1.146  0.024 -0.195 -0.269 -0.271 -0.271
 0.342  1.147  0.025 -0.195 -0.268 -0.271 -0.271
 0.344  1.148  0.026 -0.194 -0.268 -0.270 -0.270
 0.346  1.150  0.027 -0.193 -0.267 -0.270 -0.270
 0.348  1.151  0.028 -0.193 -0.266 -0.269 -0.269
 0.350  1.152  0.029 -0.192 -0.266 -0.269 -0.269
 0.352  1.153  0.030 -0.192 -0.265 -0.268 -0.268
 0.354  1.154  0.031 -0.191 -0.265 -0.268 -0.268
 0.356  1.155  0.032 -0.190 -0.264 -0.268 -0.268
 0.358  1.156  0.033 -0.190 -0.263 -0.267 -0.267
 0.360  1.157  0.034 -0.189 -0.263 -0.267 -0.267
 0.362  1.158  0.035 -0.189 -0.262 -0.266 -0.266
 0.364  1.160  0.036 -0.188 -0.261 -0.266 -0.266
 0.366  1.161  0.037 -0.188 -0.261 -0.265 -0.265
 0.368  1.162  0.037 -0.187 -0.260 -0.265 -0.265
 0.370  1.163  0.039 -0.186 -0.260 -0.264 -0.264
 0.372  1.164  0.040 -0.186 -0.259 -0.264 -0.264
 0.374  1.165  0.041 -0.185 -0.258 -0.263 -0.263
 0.376  1.166  0.042 -0.185 -0.258 -0.263 -0.263
 0.378  1.167  0.043 -0.184 -0.257 -0.262 -0.262
 0.380  1.168  0.044 -0.183 -0.257 -0.262 -0.262
 0.382  1.169  0.045 -0.183 -0.256 -0.261 -0.261
 0.384  1.170  0.046 -0.182 -0.256 -0.261 -0.261
 0.386  1.171  0.047 -0.182 -0.255 -0.260 -0.260
 0.388  1.172  0.047 -0.181 -0.254 -0.260 -0.260
 0.390  1.173  0.048 -0.180 -0.254 -0.260 -0.260
 0.392  1.174  0.049 -0.180 -0.253 -0.259 -0.259
 0.394  1.175  0.050 -0.179 -0.253 -0.259 -0.259
 0.396  1.176  0.051 -0.179 -0.252 -0.258 -0.258
 0.398  1.177  0.052 -0.178 -0.252 -0.258 -0.258
 0.400  1.177  0.053 -0.177 -0.251 -0.257 -0.257
 0.402  1.178  0.053 -0.177 -0.251 -0.257 -0.257
 0.404  1.179  0.054 -0.176 -0.250 -0.256 -0.256
 0.406  1.180  0.055 -0.175 -0.249 -0.256 -0.256
 0.408  1.181  0.056 -0.175 -0.249 -0.256 -0.256
 0.410  1.182  0.057 -0.174 -0.248 -0.255 -0.255
 0.412  1.182  0.058 -0.173 -0.248 -0.255 -0.255
 0.414  1.183  0.058 -0.173 -0.247 -0.254 -0.254
 0.416  1.184  0.059 -0.172 -0.247 -0.254 -0.254
 0.418  1.185  0.060 -0.172 -0.246 -0.253 -0.253
 0.420  1.186  0.060 -0.171 -0.246 -0.253 -0.253
 0.422  1.186  0.061 -0.170 -0.245 -0.253 -0.253
 0.424  1.187  0.062 -0.170 -0.245 -0.252 -0.252
 0.426  1.188  0.062 -0.169 -0.244 -0.252 -0.252
 0.428  1.188  0.063 -0.168 -0.244 -0.251 -0.251
 0.430  1.189  0.064 -0.168 -0.243 -0.251 -0.251
 0.432  1.190  0.065 -0.167 -0.243 -0.251 -0.251
 0.434  1.191  0.065 -0.167 -0.242 -0.250 -0.250
 0.436  1.191  0.066 -0.166 -0.242 -0.250 -0.250
 0.438  1.192  0.066 -0.165 -0.241 -0.249 -0.249
 0.440  1.193  0.067 -0.165 -0.241 -0.249 -0.249
 0.442  1.193  0.068 -0.164 -0.240 -0.249 -0.249
 0.444  1.194  0.068 -0.163 -0.240 -0.248 -0.248
 0.446  1.195  0.069 -0.163 -0.239 -0.248 -0.248
 0.448  1.196  0.069 -0.162 -0.239 -0.247 -0.247
 0.450  1.196  0.070 -0.162 -0.238 -0.247 -0.247
 0.452  1.197  0.070 -0.161 -0.238 -0.246 -0.246
 0.454  1.198  0.071 -0.161 -0.237 -0.246 -0.246
 0.456  1.199  0.072 -0.160 -0.237 -0.246 -0.246
 0.458  1.199  0.072 -0.160 -0.236 -0.245 -0.245
 0.460  1.200  0.072 -0.159 -0.236 -0.245 -0.245
 0.462  1.201  0.073 -0.159 -0.235 -0.245 -0.245
 0.464  1.201  0.074 -0.158 -0.235 -0.244 -0.244
 0.466  1.202  0.074 -0.158 -0.234 -0.244 -0.244
 0.468  1.203  0.075 -0.157 -0.234 -0.243 -0.243
 0.470  1.204  0.075 -0.157 -0.233 -0.243 -0.243
 0.472  1.205  0.076 -0.156 -0.233 -0.243 -0.243
 0.474  1.205  0.076 -0.156 -0.232 -0.242 -0.242
 0.476  1.206  0.077 -0.156 -0.232 -0.242 -0.242
 0.478  1.207  0.077 -0.155 -0.231 -0.241 -0.241
 0.480  1.208  0.078 -0.155 -0.231 -0.241 -0.241
 0.482  1.209  0.078 -0.155 -0.231 -0.241 -0.241
 0.484  1.209  0.079 -0.154 -0.230 -0.240 -0.240
 0.486  1.210  0.079 -0.154 -0.229 -0.240 -0.240
 0.488  1.211  0.080 -0.154 -0.229 -0.240 -0.240
 0.490  1.212  0.080 -0.153 -0.229 -0.239 -0.239
 0.492  1.212  0.081 -0.153 -0.228 -0.239 -0.239
 0.494  1.214  0.081 -0.153 -0.228 -0.239 -0.239
 0.496  1.214  0.082 -0.152 -0.227 -0.238 -0.238
 0.498  1.215  0.082 -0.152 -0.227 -0.238 -0.238
 0.500  1.216  0.083 -0.152 -0.226 -0.238 -0.238
 0.502  1.217  0.083 -0.152 -0.226 -0.237 -0.237
 0.504  1.218  0.084 -0.151 -0.225 -0.237 -0.237
 0.506  1.219  0.084 -0.151 -0.225 -0.237 -0.237
 0.508  1.220  0.085 -0.151 -0.224 -0.236 -0.236
 0.510  1.220  0.085 -0.151 -0.224 -0.236 -0.236
 0.512  1.221  0.086 -0.150 -0.223 -0.236 -0.236
 0.514  1.222  0.086 -0.150 -0.223 -0.235 -0.235
 0.516  1.222  0.087 -0.150 -0.222 -0.235 -0.235
 0.518  1.223  0.087 -0.150 -0.222 -0.235 -0.235
 0.520  1.224  0.088 -0.149 -0.222 -0.234 -0.234
 0.522  1.225  0.088 -0.149 -0.221 -0.234 -0.234
 0.524  1.225  0.089 -0.149 -0.221 -0.234 -0.234
 0.526  1.226  0.089 -0.149 -0.220 -0.234 -0.234
 0.528  1.226  0.090 -0.148 -0.220 -0.233 -0.233
 0.530  1.227  0.090 -0.148 -0.219 -0.233 -0.233
 0.532  1.227  0.090 -0.148 -0.219 -0.233 -0.233
 0.534  1.228  0.091 -0.147 -0.218 -0.232 -0.232
 0.536  1.228  0.091 -0.147 -0.218 -0.232 -0.232
 0.538  1.229  0.091 -0.147 -0.218 -0.232 -0.232
 0.540  1.229  0.091 -0.147 -0.217 -0.232 -0.232
 0.542  1.229  0.092 -0.146 -0.217 -0.231 -0.231
 0.544  1.230  0.092 -0.146 -0.216 -0.231 -0.231
 0.546  1.230  0.092 -0.146 -0.216 -0.231 -0.231
 0.548  1.230  0.092 -0.146 -0.216 -0.230 -0.230
 0.550  1.230  0.093 -0.145 -0.215 -0.230 -0.230
 0.552  1.230  0.093 -0.145 -0.215 -0.230 -0.230
 0.554  1.231  0.093 -0.145 -0.214 -0.230 -0.230
 0.556  1.231  0.093 -0.144 -0.214 -0.229 -0.229
 0.558  1.231  0.093 -0.144 -0.214 -0.229 -0.229
 0.560  1.231  0.093 -0.144 -0.213 -0.229 -0.229
 0.562  1.231  0.093 -0.143 -0.213 -0.229 -0.229
 0.564  1.231  0.093 -0.143 -0.213 -0.228 -0.228
 0.566  1.231  0.093 -0.143 -0.212 -0.228 -0.228
 0.568  1.231  0.093 -0.142 -0.212 -0.228 -0.228
 0.570  1.231  0.093 -0.142 -0.211 -0.228 -0.228
 0.572  1.231  0.093 -0.142 -0.211 -0.227 -0.227
 0.574  1.231  0.093 -0.142 -0.211 -0.227 -0.227
 0.576  1.231  0.093 -0.141 -0.211 -0.227 -0.227
 0.578  1.230  0.093 -0.141 -0.210 -0.227 -0.227
 0.580  1.230  0.093 -0.141 -0.210 -0.226 -0.226
 0.582  1.230  0.092 -0.140 -0.209 -0.226 -0.226
 0.584  1.230  0.092 -0.140 -0.209 -0.226 -0.226
 0.586  1.230  0.092 -0.140 -0.209 -0.226 -0.226
 0.588  1.230  0.092 -0.139 -0.208 -0.226 -0.226
 0.590  1.230  0.092 -0.139 -0.208 -0.225 -0.225
 0.592  1.230  0.091 -0.139 -0.208 -0.225 -0.225
 0.594  1.230  0.091 -0.138 -0.208 -0.225 -0.225
 0.596  1.229  0.091 -0.138 -0.207 -0.225 -0.225
 0.598  1.229  0.091 -0.138 -0.207 -0.224 -0.224
 0.600  1.229  0.091 -0.137 -0.207 -0.224 -0.224
 0.602  1.229  0.091 -0.137 -0.206 -0.224 -0.224
 0.604  1.229  0.091 -0.137 -0.206 -0.224 -0.224
 0.606  1.229  0.090 -0.137 -0.206 -0.223 -0.223
 0.608  1.229  0.090 -0.136 -0.206 -0.223 -0.223
 0.610  1.229  0.090 -0.136 -0.205 -0.223 -0.223
 0.612  1.229  0.090 -0.136 -0.205 -0.223 -0.223
 0.614  1.229  0.090 -0.135 -0.205 -0.223 -0.223
 0.616  1.229  0.090 -0.135 -0.204 -0.222 -0.222
 0.618  1.229  0.090 -0.135 -0.204 -0.222 -0.222
 0.620  1.229  0.090 -0.134 -0.204 -0.222 -0.222
 0.622  1.229  0.090 -0.134 -0.204 -0.222 -0.222
 0.624  1.229  0.090 -0.134 -0.203 -0.222 -0.222
 0.626  1.229  0.091 -0.134 -0.203 -0.221 -0.221
 0.628  1.229  0.091 -0.133 -0.203 -0.221 -0.221
 0.630  1.229  0.091 -0.133 -0.203 -0.221 -0.221
 0.632  1.229  0.091 -0.133 -0.202 -0.221 -0.221
 0.634  1.229  0.091 -0.132 -0.202 -0.220 -0.220
 0.636  1.229  0.091 -0.132 -0.202 -0.220 -0.220
 0.638  1.229  0.091 -0.132 -0.202 -0.220 -0.220
 0.640  1.229  0.092 -0.131 -0.201 -0.220 -0.220
 0.642  1.229  0.092 -0.131 -0.201 -0.219 -0.219
 0.644  1.229  0.092 -0.131 -0.201 -0.219 -0.219
 0.646  1.230  0.093 -0.130 -0.201 -0.219 -0.219
 0.648  1.230  0.093 -0.130 -0.201 -0.219 -0.219
 0.650  1.230  0.093 -0.130 -0.200 -0.219 -0.219
 0.652  1.230  0.094 -0.129 -0.200 -0.218 -0.218
 0.654  1.230  0.094 -0.129 -0.200 -0.218 -0.218
 0.656  1.230  0.094 -0.129 -0.200 -0.218 -0.218
 0.658  1.230  0.095 -0.128 -0.199 -0.218 -0.218
 0.660  1.230  0.095 -0.128 -0.199 -0.218 -0.218
 0.662  1.230  0.096 -0.128 -0.199 -0.217 -0.217
 0.664  1.231  0.096 -0.127 -0.199 -0.217 -0.217
 0.666  1.231  0.097 -0.127 -0.199 -0.217 -0.217
 0.668  1.231  0.097 -0.126 -0.198 -0.217 -0.217
 0.670  1.231  0.097 -0.126 -0.198 -0.216 -0.216
 0.672  1.231  0.098 -0.126 -0.198 -0.216 -0.216
 0.674  1.231  0.098 -0.125 -0.198 -0.216 -0.216
 0.676  1.231  0.099 -0.125 -0.197 -0.216 -0.216
 0.678  1.231  0.099 -0.124 -0.197 -0.215 -0.215
 0.680  1.232  0.100 -0.124 -0.197 -0.215 -0.215
 0.682  1.232  0.100 -0.123 -0.197 -0.215 -0.215
 0.684  1.232  0.100 -0.123 -0.196 -0.215 -0.215
 0.686  1.232  0.101 -0.122 -0.196 -0.214 -0.214
 0.688  1.232  0.101 -0.122 -0.196 -0.214 -0.214
 0.690  1.232  0.102 -0.121 -0.195 -0.214 -0.214
 0.692  1.233  0.102 -0.121 -0.195 -0.214 -0.214
 0.694  1.233  0.102 -0.120 -0.195 -0.213 -0.213
 0.696  1.233  0.103 -0.120 -0.194 -0.213 -0.213
 0.698  1.234  0.103 -0.119 -0.194 -0.213 -0.213
 0.700  1.234  0.103 -0.118 -0.194 -0.213 -0.213
 0.702  1.234  0.104 -0.118 -0.193 -0.212 -0.212
 0.704  1.234  0.104 -0.117 -0.193 -0.212 -0.212
 0.706  1.234  0.104 -0.117 -0.193 -0.212 -0.212
 0.708  1.235  0.105 -0.116 -0.192 -0.211 -0.211
 0.710  1.235  0.105 -0.115 -0.192 -0.211 -0.211
 0.712  1.235  0.105 -0.115 -0.191 -0.211 -0.211
 0.714  1.235  0.106 -0.114 -0.191 -0.211 -0.211
 0.716  1.235  0.106 -0.113 -0.191 -0.210 -0.210
 0.718  1.236  0.106 -0.113 -0.190 -0.210 -0.210
 0.720  1.236  0.107 -0.112 -0.190 -0.210 -0.210
 0.722  1.236  0.107 -0.112 -0.189 -0.209 -0.209
 0.724  1.236  0.107 -0.111 -0.189 -0.209 -0.209
 0.726  1.237  0.107 -0.111 -0.188 -0.209 -0.209
 0.728  1.237  0.108 -0.110 -0.188 -0.209 -0.209
 0.730  1.237  0.108 -0.110 -0.187 -0.208 -0.208
 0.732  1.238  0.108 -0.110 -0.187 -0.208 -0.208
 0.734  1.239  0.109 -0.110 -0.187 -0.208 -0.208
 0.736  1.239  0.109 -0.110 -0.186 -0.207 -0.207
 0.738  1.240  0.109 -0.110 -0.186 -0.207 -0.207
 0.740  1.240  0.109 -0.110 -0.186 -0.207 -0.207
 0.742  1.241  0.109 -0.110 -0.186 -0.206 -0.206
 0.744  1.242  0.109 -0.110 -0.185 -0.206 -0.206
 0.746  1.242  0.109 -0.110 -0.185 -0.206 -0.206
 0.748  1.243  0.109 -0.110 -0.185 -0.205 -0.205
 0.750  1.244  0.109 -0.111 -0.185 -0.205 -0.205
 0.752  1.245  0.109 -0.111 -0.185 -0.205 -0.205
 0.754  1.245  0.109 -0.112 -0.186 -0.204 -0.204
 0.756  1.246  0.109 -0.112 -0.186 -0.204 -0.204
 0.758  1.247  0.109 -0.113 -0.186 -0.204 -0.204
 0.760  1.248  0.108 -0.113 -0.187 -0.203 -0.203
 0.762  1.249  0.108 -0.114 -0.187 -0.203 -0.203
 0.764  1.250  0.108 -0.115 -0.187 -0.202 -0.202
 0.766  1.251  0.107 -0.116 -0.188 -0.201 -0.201
 0.768  1.252  0.107 -0.117 -0.188 -0.201 -0.201
 0.770  1.253  0.107 -0.118 -0.189 -0.200 -0.200
 0.772  1.254  0.106 -0.119 -0.190 -0.200 -0.200
 0.774  1.255  0.106 -0.120 -0.191 -0.199 -0.199
 0.776  1.256  0.105 -0.121 -0.191 -0.198 -0.198
 0.778  1.258  0.105 -0.122 -0.192 -0.198 -0.198
 0.780  1.259  0.104 -0.123 -0.193 -0.197 -0.197
 0.782  1.261  0.103 -0.125 -0.194 -0.196 -0.196
 0.784  1.262  0.103 -0.126 -0.195 -0.195 -0.195
 0.786  1.263  0.102 -0.127 -0.196 -0.194 -0.194
 0.788  1.264  0.101 -0.129 -0.197 -0.193 -0.193
 0.790  1.266  0.100 -0.131 -0.199 -0.192 -0.192
 0.792  1.267  0.100 -0.132 -0.200 -0.192 -0.192
 0.794  1.268  0.099 -0.134 -0.201 -0.191 -0.191
 0.796  1.269  0.098 -0.135 -0.203 -0.190 -0.190
 0.798  1.270  0.097 -0.137 -0.204 -0.189 -0.189
 0.800  1.270  0.096 -0.139 -0.206 -0.188 -0.188
 0.802  1.271  0.095 -0.141 -0.207 -0.187 -0.187
 0.804  1.271  0.094 -0.143 -0.209 -0.185 -0.185
 0.806  1.272  0.093 -0.145 -0.210 -0.184 -0.184
 0.808  1.272  0.092 -0.147 -0.212 -0.183 -0.183
