# IsPeriodic    : True
# Period        : 0.512230 days
# Normalization : <g_mag>=0
# 
# Phase u_mag  g_mag  r_mag  i_mag  z_mag  y_mag
 0.000  0.412 -0.767 -0.545 -0.418 -0.384 -0.384
 0.002  0.412 -0.767 -0.545 -0.418 -0.384 -0.384
 0.004  0.414 -0.766 -0.545 -0.418 -0.383 -0.383
 0.006  0.416 -0.765 -0.544 -0.418 -0.382 -0.382
 0.008  0.420 -0.762 -0.544 -0.418 -0.382 -0.382
 0.010  0.424 -0.760 -0.543 -0.417 -0.380 -0.380
 0.012  0.429 -0.757 -0.542 -0.416 -0.379 -0.379
 0.014  0.435 -0.753 -0.541 -0.416 -0.377 -0.377
 0.016  0.441 -0.750 -0.540 -0.415 -0.375 -0.375
 0.018  0.449 -0.746 -0.539 -0.414 -0.373 -0.373
 0.020  0.456 -0.741 -0.539 -0.413 -0.371 -0.371
 0.022  0.464 -0.737 -0.537 -0.412 -0.368 -0.368
 0.024  0.470 -0.732 -0.536 -0.411 -0.366 -0.366
 0.026  0.478 -0.728 -0.534 -0.409 -0.363 -0.363
 0.028  0.486 -0.723 -0.533 -0.408 -0.361 -0.361
 0.030  0.493 -0.717 -0.531 -0.407 -0.358 -0.358
 0.032  0.501 -0.713 -0.529 -0.405 -0.355 -0.355
 0.034  0.508 -0.708 -0.528 -0.403 -0.353 -0.353
 0.036  0.514 -0.703 -0.525 -0.401 -0.350 -0.350
 0.038  0.521 -0.698 -0.523 -0.399 -0.347 -0.347
 0.040  0.528 -0.693 -0.521 -0.397 -0.345 -0.345
 0.042  0.536 -0.687 -0.518 -0.395 -0.342 -0.342
 0.044  0.543 -0.681 -0.516 -0.393 -0.340 -0.340
 0.046  0.549 -0.676 -0.513 -0.391 -0.337 -0.337
 0.048  0.556 -0.670 -0.511 -0.389 -0.335 -0.335
 0.050  0.563 -0.665 -0.508 -0.386 -0.333 -0.333
 0.052  0.570 -0.658 -0.505 -0.384 -0.330 -0.330
 0.054  0.576 -0.651 -0.501 -0.382 -0.328 -0.328
 0.056  0.584 -0.644 -0.499 -0.379 -0.325 -0.325
 0.058  0.591 -0.638 -0.495 -0.377 -0.323 -0.323
 0.060  0.598 -0.631 -0.492 -0.375 -0.321 -0.321
 0.062  0.605 -0.623 -0.489 -0.372 -0.319 -0.319
 0.064  0.611 -0.616 -0.484 -0.370 -0.317 -0.317
 0.066  0.618 -0.608 -0.481 -0.368 -0.315 -0.315
 0.068  0.625 -0.600 -0.477 -0.365 -0.313 -0.313
 0.070  0.632 -0.593 -0.473 -0.363 -0.311 -0.311
 0.072  0.638 -0.585 -0.469 -0.361 -0.309 -0.309
 0.074  0.645 -0.577 -0.465 -0.359 -0.307 -0.307
 0.076  0.652 -0.569 -0.462 -0.357 -0.305 -0.305
 0.078  0.659 -0.561 -0.457 -0.355 -0.303 -0.303
 0.080  0.665 -0.553 -0.453 -0.353 -0.301 -0.301
 0.082  0.671 -0.545 -0.449 -0.351 -0.299 -0.299
 0.084  0.678 -0.537 -0.445 -0.349 -0.297 -0.297
 0.086  0.685 -0.530 -0.441 -0.347 -0.295 -0.295
 0.088  0.691 -0.522 -0.437 -0.345 -0.294 -0.294
 0.090  0.697 -0.514 -0.434 -0.343 -0.292 -0.292
 0.092  0.704 -0.506 -0.430 -0.341 -0.290 -0.290
 0.094  0.710 -0.498 -0.426 -0.339 -0.289 -0.289
 0.096  0.716 -0.491 -0.423 -0.337 -0.287 -0.287
 0.098  0.723 -0.483 -0.419 -0.335 -0.285 -0.285
 0.100  0.729 -0.477 -0.416 -0.333 -0.283 -0.283
 0.102  0.735 -0.469 -0.412 -0.332 -0.282 -0.282
 0.104  0.741 -0.462 -0.410 -0.330 -0.280 -0.280
 0.106  0.747 -0.455 -0.406 -0.328 -0.278 -0.278
 0.108  0.753 -0.449 -0.403 -0.326 -0.276 -0.276
 0.110  0.759 -0.442 -0.400 -0.325 -0.275 -0.275
 0.112  0.765 -0.435 -0.397 -0.323 -0.273 -0.273
 0.114  0.770 -0.429 -0.394 -0.321 -0.271 -0.271
 0.116  0.776 -0.423 -0.391 -0.319 -0.270 -0.270
 0.118  0.781 -0.417 -0.388 -0.317 -0.268 -0.268
 0.120  0.787 -0.410 -0.385 -0.316 -0.266 -0.266
 0.122  0.793 -0.405 -0.383 -0.314 -0.264 -0.264
 0.124  0.797 -0.399 -0.380 -0.313 -0.262 -0.262
 0.126  0.803 -0.393 -0.378 -0.311 -0.261 -0.261
 0.128  0.809 -0.388 -0.375 -0.309 -0.259 -0.259
 0.130  0.813 -0.382 -0.373 -0.308 -0.257 -0.257
 0.132  0.819 -0.377 -0.370 -0.306 -0.256 -0.256
 0.134  0.823 -0.371 -0.367 -0.304 -0.253 -0.253
 0.136  0.829 -0.366 -0.366 -0.302 -0.252 -0.252
 0.138  0.833 -0.361 -0.363 -0.301 -0.250 -0.250
 0.140  0.839 -0.356 -0.362 -0.299 -0.248 -0.248
 0.142  0.843 -0.352 -0.359 -0.297 -0.246 -0.246
 0.144  0.848 -0.346 -0.357 -0.295 -0.244 -0.244
 0.146  0.852 -0.342 -0.355 -0.293 -0.243 -0.243
 0.148  0.857 -0.337 -0.353 -0.292 -0.241 -0.241
 0.150  0.862 -0.333 -0.351 -0.290 -0.239 -0.239
 0.152  0.866 -0.328 -0.349 -0.288 -0.237 -0.237
 0.154  0.871 -0.324 -0.347 -0.286 -0.235 -0.235
 0.156  0.875 -0.319 -0.345 -0.284 -0.233 -0.233
 0.158  0.880 -0.315 -0.343 -0.282 -0.232 -0.232
 0.160  0.884 -0.311 -0.340 -0.281 -0.230 -0.230
 0.162  0.887 -0.307 -0.338 -0.279 -0.228 -0.228
 0.164  0.892 -0.302 -0.336 -0.277 -0.226 -0.226
 0.166  0.896 -0.298 -0.334 -0.275 -0.224 -0.224
 0.168  0.901 -0.293 -0.331 -0.273 -0.222 -0.222
 0.170  0.904 -0.289 -0.329 -0.271 -0.220 -0.220
 0.172  0.909 -0.284 -0.326 -0.269 -0.219 -0.219
 0.174  0.913 -0.280 -0.323 -0.267 -0.216 -0.216
 0.176  0.918 -0.275 -0.321 -0.265 -0.215 -0.215
 0.178  0.921 -0.271 -0.318 -0.263 -0.213 -0.213
 0.180  0.926 -0.266 -0.316 -0.261 -0.211 -0.211
 0.182  0.930 -0.262 -0.313 -0.259 -0.210 -0.210
 0.184  0.934 -0.257 -0.311 -0.257 -0.207 -0.207
 0.186  0.938 -0.253 -0.308 -0.254 -0.206 -0.206
 0.188  0.943 -0.247 -0.306 -0.252 -0.204 -0.204
 0.190  0.946 -0.243 -0.302 -0.251 -0.202 -0.202
 0.192  0.951 -0.238 -0.300 -0.249 -0.201 -0.201
 0.194  0.954 -0.234 -0.296 -0.246 -0.199 -0.199
 0.196  0.958 -0.229 -0.294 -0.244 -0.197 -0.197
 0.198  0.963 -0.225 -0.291 -0.242 -0.196 -0.196
 0.200  0.966 -0.220 -0.288 -0.240 -0.194 -0.194
 0.202  0.971 -0.216 -0.284 -0.238 -0.193 -0.193
 0.204  0.974 -0.211 -0.282 -0.236 -0.191 -0.191
 0.206  0.979 -0.205 -0.279 -0.234 -0.190 -0.190
 0.208  0.983 -0.201 -0.276 -0.232 -0.188 -0.188
 0.210  0.987 -0.196 -0.273 -0.230 -0.186 -0.186
 0.212  0.991 -0.192 -0.269 -0.228 -0.185 -0.185
 0.214  0.995 -0.186 -0.266 -0.226 -0.183 -0.183
 0.216  0.999 -0.182 -0.262 -0.224 -0.182 -0.182
 0.218  1.002 -0.177 -0.259 -0.223 -0.180 -0.180
 0.220  1.007 -0.173 -0.256 -0.221 -0.179 -0.179
 0.222  1.010 -0.167 -0.252 -0.219 -0.177 -0.177
 0.224  1.015 -0.163 -0.250 -0.217 -0.176 -0.176
 0.226  1.018 -0.158 -0.246 -0.216 -0.175 -0.175
 0.228  1.023 -0.154 -0.243 -0.214 -0.173 -0.173
 0.230  1.026 -0.149 -0.240 -0.212 -0.172 -0.172
 0.232  1.031 -0.145 -0.236 -0.210 -0.171 -0.171
 0.234  1.034 -0.140 -0.233 -0.209 -0.169 -0.169
 0.236  1.037 -0.136 -0.229 -0.207 -0.168 -0.168
 0.238  1.042 -0.131 -0.226 -0.205 -0.166 -0.166
 0.240  1.045 -0.127 -0.223 -0.204 -0.165 -0.165
 0.242  1.049 -0.122 -0.219 -0.202 -0.163 -0.163
 0.244  1.053 -0.118 -0.216 -0.200 -0.162 -0.162
 0.246  1.057 -0.113 -0.212 -0.199 -0.161 -0.161
 0.248  1.060 -0.110 -0.209 -0.198 -0.159 -0.159
 0.250  1.063 -0.105 -0.206 -0.196 -0.158 -0.158
 0.252  1.067 -0.101 -0.202 -0.195 -0.157 -0.157
 0.254  1.070 -0.097 -0.199 -0.193 -0.155 -0.155
 0.256  1.073 -0.093 -0.195 -0.191 -0.154 -0.154
 0.258  1.077 -0.088 -0.192 -0.190 -0.152 -0.152
 0.260  1.080 -0.085 -0.189 -0.189 -0.151 -0.151
 0.262  1.084 -0.081 -0.185 -0.187 -0.149 -0.149
 0.264  1.087 -0.077 -0.182 -0.186 -0.148 -0.148
 0.266  1.090 -0.074 -0.179 -0.184 -0.147 -0.147
 0.268  1.094 -0.069 -0.175 -0.182 -0.145 -0.145
 0.270  1.096 -0.066 -0.172 -0.181 -0.143 -0.143
 0.272  1.099 -0.063 -0.168 -0.179 -0.142 -0.142
 0.274  1.103 -0.058 -0.165 -0.178 -0.140 -0.140
 0.276  1.106 -0.055 -0.162 -0.176 -0.139 -0.139
 0.278  1.108 -0.051 -0.158 -0.174 -0.138 -0.138
 0.280  1.112 -0.048 -0.155 -0.173 -0.136 -0.136
 0.282  1.114 -0.045 -0.151 -0.171 -0.134 -0.134
 0.284  1.117 -0.041 -0.148 -0.169 -0.133 -0.133
 0.286  1.121 -0.038 -0.145 -0.167 -0.131 -0.131
 0.288  1.123 -0.034 -0.141 -0.165 -0.130 -0.130
 0.290  1.125 -0.031 -0.138 -0.163 -0.128 -0.128
 0.292  1.129 -0.028 -0.134 -0.161 -0.126 -0.126
 0.294  1.131 -0.024 -0.131 -0.159 -0.125 -0.125
 0.296  1.133 -0.021 -0.128 -0.157 -0.123 -0.123
 0.298  1.137 -0.018 -0.125 -0.155 -0.121 -0.121
 0.300  1.139 -0.014 -0.122 -0.152 -0.120 -0.120
 0.302  1.141 -0.011 -0.118 -0.151 -0.118 -0.118
 0.304  1.144 -0.009 -0.115 -0.148 -0.116 -0.116
 0.306  1.147 -0.005 -0.112 -0.146 -0.115 -0.115
 0.308  1.149 -0.002 -0.109 -0.144 -0.113 -0.113
 0.310  1.151  0.002 -0.106 -0.141 -0.111 -0.111
 0.312  1.155  0.005 -0.102 -0.139 -0.110 -0.110
 0.314  1.157  0.007 -0.100 -0.137 -0.108 -0.108
 0.316  1.159  0.011 -0.096 -0.134 -0.106 -0.106
 0.318  1.162  0.014 -0.094 -0.131 -0.105 -0.105
 0.320  1.165  0.017 -0.090 -0.129 -0.103 -0.103
 0.322  1.167  0.021 -0.088 -0.126 -0.101 -0.101
 0.324  1.170  0.024 -0.084 -0.124 -0.100 -0.100
 0.326  1.173  0.026 -0.082 -0.121 -0.098 -0.098
 0.328  1.176  0.030 -0.079 -0.118 -0.096 -0.096
 0.330  1.178  0.033 -0.076 -0.115 -0.095 -0.095
 0.332  1.182  0.036 -0.073 -0.113 -0.093 -0.093
 0.334  1.184  0.039 -0.070 -0.110 -0.092 -0.092
 0.336  1.186  0.042 -0.068 -0.107 -0.090 -0.090
 0.338  1.190  0.045 -0.065 -0.105 -0.088 -0.088
 0.340  1.193  0.049 -0.062 -0.101 -0.087 -0.087
 0.342  1.195  0.052 -0.059 -0.099 -0.085 -0.085
 0.344  1.199  0.054 -0.057 -0.096 -0.083 -0.083
 0.346  1.201  0.058 -0.054 -0.094 -0.082 -0.082
 0.348  1.204  0.061 -0.051 -0.091 -0.080 -0.080
 0.350  1.206  0.063 -0.049 -0.088 -0.079 -0.079
 0.352  1.210  0.067 -0.046 -0.086 -0.077 -0.077
 0.354  1.213  0.070 -0.044 -0.084 -0.076 -0.076
 0.356  1.215  0.074 -0.041 -0.081 -0.074 -0.074
 0.358  1.219  0.076 -0.039 -0.079 -0.072 -0.072
 0.360  1.222  0.079 -0.036 -0.077 -0.071 -0.071
 0.362  1.226  0.083 -0.035 -0.074 -0.069 -0.069
 0.364  1.228  0.085 -0.032 -0.072 -0.068 -0.068
 0.366  1.231  0.088 -0.029 -0.070 -0.066 -0.066
 0.368  1.235  0.092 -0.027 -0.068 -0.064 -0.064
 0.370  1.238  0.095 -0.024 -0.065 -0.063 -0.063
 0.372  1.240  0.097 -0.022 -0.063 -0.062 -0.062
 0.374  1.244  0.101 -0.019 -0.061 -0.060 -0.060
 0.376  1.247  0.104 -0.017 -0.059 -0.058 -0.058
 0.378  1.250  0.106 -0.014 -0.057 -0.057 -0.057
 0.380  1.254  0.110 -0.012 -0.055 -0.055 -0.055
 0.382  1.256  0.113 -0.009 -0.053 -0.054 -0.054
 0.384  1.259  0.116 -0.007 -0.051 -0.052 -0.052
 0.386  1.263  0.119 -0.004 -0.049 -0.051 -0.051
 0.388  1.265  0.122 -0.001 -0.047 -0.049 -0.049
 0.390  1.268  0.125  0.001 -0.046 -0.048 -0.048
 0.392  1.272  0.129  0.004 -0.044 -0.046 -0.046
 0.394  1.274  0.131  0.006 -0.042 -0.045 -0.045
 0.396  1.277  0.134  0.009 -0.041 -0.043 -0.043
 0.398  1.280  0.138  0.011 -0.039 -0.041 -0.041
 0.400  1.283  0.140  0.015 -0.038 -0.040 -0.040
 0.402  1.285  0.143  0.017 -0.036 -0.039 -0.039
 0.404  1.289  0.147  0.020 -0.035 -0.037 -0.037
 0.406  1.291  0.150  0.022 -0.033 -0.036 -0.036
 0.408  1.294  0.152  0.025 -0.032 -0.034 -0.034
 0.410  1.297  0.156  0.027 -0.030 -0.033 -0.033
 0.412  1.300  0.159  0.031 -0.029 -0.031 -0.031
 0.414  1.302  0.162  0.033 -0.028 -0.030 -0.030
 0.416  1.304  0.165  0.036 -0.026 -0.029 -0.029
 0.418  1.308  0.168  0.038 -0.024 -0.027 -0.027
 0.420  1.310  0.171  0.042 -0.023 -0.026 -0.026
 0.422  1.312  0.175  0.044 -0.021 -0.024 -0.024
 0.424  1.315  0.178  0.047 -0.020 -0.022 -0.022
 0.426  1.318  0.180  0.049 -0.019 -0.021 -0.021
 0.428  1.320  0.184  0.053 -0.017 -0.020 -0.020
 0.430  1.323  0.187  0.055 -0.015 -0.019 -0.019
 0.432  1.325  0.191  0.058 -0.014 -0.017 -0.017
 0.434  1.327  0.193  0.060 -0.012 -0.016 -0.016
 0.436  1.329  0.196  0.063 -0.011 -0.014 -0.014
 0.438  1.332  0.200  0.066 -0.009 -0.013 -0.013
 0.440  1.334  0.203  0.069 -0.008 -0.011 -0.011
 0.442  1.336  0.205  0.071 -0.006 -0.010 -0.010
 0.444  1.338  0.209  0.074 -0.005 -0.009 -0.009
 0.446  1.341  0.211  0.076 -0.003 -0.007 -0.007
 0.448  1.343  0.214  0.079 -0.001 -0.006 -0.006
 0.450  1.345  0.216  0.081 -0.000 -0.005 -0.005
 0.452  1.347  0.220  0.083  0.002 -0.003 -0.003
 0.454  1.350  0.222  0.086  0.003 -0.002 -0.002
 0.456  1.352  0.224  0.088  0.005 -0.001 -0.001
 0.458  1.354  0.228  0.090  0.006  0.001  0.001
 0.460  1.356  0.230  0.092  0.008  0.002  0.002
 0.462  1.359  0.232  0.094  0.009  0.003  0.003
 0.464  1.360  0.234  0.096  0.011  0.005  0.005
 0.466  1.362  0.237  0.098  0.013  0.006  0.006
 0.468  1.364  0.239  0.099  0.015  0.007  0.007
 0.470  1.366  0.241  0.102  0.016  0.009  0.009
 0.472  1.368  0.243  0.104  0.018  0.010  0.010
 0.474  1.370  0.246  0.105  0.020  0.011  0.011
 0.476  1.372  0.248  0.107  0.021  0.012  0.012
 0.478  1.374  0.250  0.109  0.023  0.014  0.014
 0.480  1.375  0.251  0.110  0.024  0.015  0.015
 0.482  1.378  0.254  0.111  0.026  0.016  0.016
 0.484  1.380  0.256  0.113  0.027  0.017  0.017
 0.486  1.381  0.257  0.115  0.029  0.018  0.018
 0.488  1.383  0.259  0.115  0.030  0.019  0.019
 0.490  1.384  0.260  0.117  0.032  0.021  0.021
 0.492  1.387  0.263  0.118  0.034  0.022  0.022
 0.494  1.388  0.264  0.120  0.035  0.023  0.023
 0.496  1.390  0.265  0.121  0.036  0.024  0.024
 0.498  1.392  0.267  0.122  0.037  0.026  0.026
 0.500  1.394  0.268  0.123  0.039  0.027  0.027
 0.502  1.396  0.269  0.124  0.041  0.028  0.028
 0.504  1.397  0.270  0.125  0.042  0.029  0.029
 0.506  1.398  0.272  0.126  0.043  0.030  0.030
 0.508  1.400  0.273  0.127  0.044  0.031  0.031
 0.510  1.401  0.274  0.128  0.046  0.032  0.032
 0.512  1.404  0.275  0.129  0.047  0.033  0.033
 0.514  1.405  0.276  0.130  0.048  0.035  0.035
 0.516  1.406  0.277  0.132  0.049  0.035  0.035
 0.518  1.408  0.278  0.132  0.050  0.036  0.036
 0.520  1.409  0.279  0.133  0.051  0.037  0.037
 0.522  1.410  0.281  0.135  0.053  0.038  0.038
 0.524  1.412  0.282  0.136  0.053  0.040  0.040
 0.526  1.414  0.283  0.137  0.055  0.041  0.041
 0.528  1.415  0.284  0.137  0.056  0.041  0.041
 0.530  1.416  0.284  0.139  0.057  0.042  0.042
 0.532  1.417  0.285  0.140  0.058  0.043  0.043
 0.534  1.418  0.286  0.142  0.058  0.045  0.045
 0.536  1.418  0.287  0.143  0.059  0.046  0.046
 0.538  1.419  0.287  0.143  0.060  0.046  0.046
 0.540  1.421  0.288  0.145  0.061  0.047  0.047
 0.542  1.422  0.290  0.146  0.062  0.048  0.048
 0.544  1.422  0.290  0.148  0.063  0.049  0.049
 0.546  1.423  0.291  0.149  0.064  0.050  0.050
 0.548  1.424  0.291  0.149  0.064  0.051  0.051
 0.550  1.424  0.292  0.151  0.066  0.052  0.052
 0.552  1.425  0.292  0.152  0.066  0.053  0.053
 0.554  1.425  0.293  0.154  0.067  0.054  0.054
 0.556  1.425  0.293  0.154  0.068  0.055  0.055
 0.558  1.426  0.294  0.156  0.069  0.056  0.056
 0.560  1.426  0.294  0.157  0.070  0.057  0.057
 0.562  1.426  0.294  0.159  0.071  0.057  0.057
 0.564  1.427  0.295  0.160  0.071  0.059  0.059
 0.566  1.427  0.295  0.161  0.073  0.059  0.059
 0.568  1.427  0.295  0.163  0.074  0.060  0.060
 0.570  1.427  0.296  0.164  0.074  0.061  0.061
 0.572  1.427  0.296  0.165  0.076  0.062  0.062
 0.574  1.427  0.296  0.166  0.076  0.063  0.063
 0.576  1.427  0.296  0.168  0.078  0.064  0.064
 0.578  1.426  0.296  0.170  0.079  0.065  0.065
 0.580  1.426  0.297  0.171  0.080  0.065  0.065
 0.582  1.426  0.297  0.172  0.081  0.066  0.066
 0.584  1.426  0.297  0.173  0.082  0.067  0.067
 0.586  1.425  0.297  0.175  0.083  0.068  0.068
 0.588  1.425  0.297  0.176  0.085  0.069  0.069
 0.590  1.425  0.297  0.177  0.086  0.070  0.070
 0.592  1.424  0.297  0.179  0.087  0.070  0.070
 0.594  1.424  0.297  0.180  0.088  0.071  0.071
 0.596  1.424  0.297  0.182  0.090  0.072  0.072
 0.598  1.423  0.297  0.183  0.091  0.073  0.073
 0.600  1.423  0.297  0.184  0.092  0.074  0.074
 0.602  1.423  0.297  0.186  0.094  0.074  0.074
 0.604  1.422  0.297  0.187  0.095  0.075  0.075
 0.606  1.422  0.297  0.188  0.097  0.076  0.076
 0.608  1.422  0.297  0.189  0.098  0.076  0.076
 0.610  1.421  0.297  0.191  0.100  0.077  0.077
 0.612  1.421  0.297  0.192  0.101  0.078  0.078
 0.614  1.421  0.297  0.193  0.102  0.079  0.079
 0.616  1.421  0.297  0.195  0.104  0.079  0.079
 0.618  1.419  0.297  0.196  0.106  0.080  0.080
 0.620  1.419  0.297  0.198  0.108  0.081  0.081
 0.622  1.419  0.297  0.198  0.109  0.081  0.081
 0.624  1.419  0.297  0.200  0.110  0.083  0.083
 0.626  1.419  0.297  0.201  0.112  0.083  0.083
 0.628  1.418  0.297  0.203  0.113  0.084  0.084
 0.630  1.418  0.297  0.204  0.115  0.084  0.084
 0.632  1.418  0.297  0.205  0.116  0.085  0.085
 0.634  1.418  0.296  0.206  0.118  0.086  0.086
 0.636  1.418  0.296  0.208  0.120  0.087  0.087
 0.638  1.418  0.296  0.209  0.121  0.088  0.088
 0.640  1.418  0.296  0.210  0.122  0.088  0.088
 0.642  1.418  0.296  0.211  0.123  0.089  0.089
 0.644  1.418  0.296  0.213  0.125  0.089  0.089
 0.646  1.417  0.295  0.215  0.127  0.090  0.090
 0.648  1.417  0.295  0.215  0.128  0.091  0.091
 0.650  1.417  0.295  0.217  0.129  0.092  0.092
 0.652  1.417  0.295  0.219  0.131  0.092  0.092
 0.654  1.417  0.294  0.220  0.132  0.093  0.093
 0.656  1.417  0.294  0.221  0.133  0.093  0.093
 0.658  1.417  0.294  0.223  0.134  0.094  0.094
 0.660  1.417  0.294  0.225  0.136  0.094  0.094
 0.662  1.417  0.293  0.226  0.137  0.095  0.095
 0.664  1.418  0.293  0.228  0.138  0.096  0.096
 0.666  1.418  0.293  0.230  0.139  0.097  0.097
 0.668  1.418  0.292  0.232  0.141  0.097  0.097
 0.670  1.417  0.292  0.233  0.142  0.098  0.098
 0.672  1.417  0.292  0.235  0.143  0.099  0.099
 0.674  1.417  0.291  0.237  0.144  0.099  0.099
 0.676  1.417  0.291  0.239  0.145  0.100  0.100
 0.678  1.417  0.291  0.241  0.146  0.101  0.101
 0.680  1.417  0.290  0.243  0.147  0.102  0.102
 0.682  1.417  0.290  0.245  0.148  0.103  0.103
 0.684  1.417  0.288  0.247  0.150  0.104  0.104
 0.686  1.417  0.288  0.249  0.150  0.104  0.104
 0.688  1.416  0.288  0.251  0.152  0.106  0.106
 0.690  1.416  0.287  0.254  0.153  0.107  0.107
 0.692  1.416  0.287  0.256  0.153  0.108  0.108
 0.694  1.416  0.286  0.258  0.155  0.109  0.109
 0.696  1.416  0.286  0.260  0.156  0.110  0.110
 0.698  1.416  0.285  0.263  0.157  0.111  0.111
 0.700  1.415  0.285  0.265  0.158  0.112  0.112
 0.702  1.415  0.284  0.268  0.159  0.113  0.113
 0.704  1.415  0.284  0.271  0.160  0.114  0.114
 0.706  1.415  0.283  0.273  0.162  0.116  0.116
 0.708  1.414  0.283  0.276  0.163  0.117  0.117
 0.710  1.414  0.282  0.279  0.164  0.118  0.118
 0.712  1.414  0.282  0.282  0.166  0.120  0.120
 0.714  1.413  0.281  0.284  0.167  0.121  0.121
 0.716  1.413  0.281  0.287  0.169  0.123  0.123
 0.718  1.412  0.279  0.289  0.170  0.124  0.124
 0.720  1.412  0.278  0.292  0.172  0.126  0.126
 0.722  1.412  0.278  0.293  0.173  0.127  0.127
 0.724  1.410  0.277  0.296  0.175  0.129  0.129
 0.726  1.410  0.277  0.298  0.176  0.131  0.131
 0.728  1.410  0.276  0.299  0.178  0.132  0.132
 0.730  1.409  0.276  0.300  0.180  0.134  0.134
 0.732  1.409  0.276  0.302  0.181  0.136  0.136
 0.734  1.409  0.276  0.302  0.183  0.137  0.137
 0.736  1.409  0.275  0.303  0.185  0.139  0.139
 0.738  1.409  0.275  0.303  0.187  0.141  0.141
 0.740  1.409  0.275  0.303  0.188  0.142  0.142
 0.742  1.409  0.275  0.302  0.190  0.144  0.144
 0.744  1.410  0.275  0.301  0.192  0.146  0.146
 0.746  1.412  0.275  0.300  0.194  0.147  0.147
 0.748  1.412  0.275  0.299  0.196  0.149  0.149
 0.750  1.413  0.276  0.298  0.199  0.150  0.150
 0.752  1.414  0.276  0.296  0.201  0.152  0.152
 0.754  1.416  0.276  0.294  0.203  0.154  0.154
 0.756  1.417  0.276  0.292  0.205  0.155  0.155
 0.758  1.419  0.277  0.289  0.208  0.156  0.156
 0.760  1.422  0.277  0.287  0.210  0.157  0.157
 0.762  1.424  0.278  0.283  0.211  0.159  0.159
 0.764  1.426  0.278  0.281  0.213  0.160  0.160
 0.766  1.428  0.279  0.276  0.215  0.161  0.161
 0.768  1.432  0.281  0.273  0.217  0.162  0.162
 0.770  1.435  0.281  0.269  0.218  0.163  0.163
 0.772  1.437  0.282  0.265  0.218  0.164  0.164
 0.774  1.441  0.283  0.260  0.219  0.165  0.165
 0.776  1.444  0.284  0.255  0.219  0.166  0.166
 0.778  1.448  0.285  0.250  0.219  0.167  0.167
 0.780  1.451  0.286  0.245  0.218  0.168  0.168
 0.782  1.455  0.287  0.239  0.218  0.169  0.169
 0.784  1.460  0.288  0.233  0.217  0.169  0.169
 0.786  1.463  0.291  0.227  0.215  0.170  0.170
 0.788  1.468  0.292  0.221  0.213  0.170  0.170
 0.790  1.474  0.293  0.214  0.211  0.171  0.171
 0.792  1.478  0.294  0.207  0.209  0.172  0.172
 0.794  1.484  0.296  0.200  0.206  0.173  0.173
 0.796  1.489  0.297  0.193  0.203  0.173  0.173
 0.798  1.495  0.299  0.186  0.200  0.174  0.174
 0.800  1.499  0.301  0.178  0.196  0.174  0.174
 0.802  1.505  0.302  0.170  0.192  0.175  0.175
 0.804  1.511  0.303  0.162  0.188  0.175  0.175
 0.806  1.515  0.305  0.154  0.183  0.175  0.175
 0.808  1.520  0.306  0.145  0.179  0.175  0.175
