# IsPeriodic    : True
# Period        : 0.466139 days
# Normalization : <g_mag>=0
# 
# Phase u_mag  g_mag  r_mag  i_mag  z_mag  y_mag
 0.000  0.217 -0.948 -0.759 -0.591 -0.510 -0.510
 0.002  0.217 -0.948 -0.759 -0.591 -0.510 -0.510
 0.004  0.217 -0.948 -0.759 -0.591 -0.509 -0.509
 0.006  0.218 -0.947 -0.758 -0.590 -0.508 -0.508
 0.008  0.220 -0.945 -0.757 -0.589 -0.507 -0.507
 0.010  0.223 -0.942 -0.754 -0.588 -0.506 -0.506
 0.012  0.224 -0.940 -0.752 -0.587 -0.505 -0.505
 0.014  0.227 -0.937 -0.750 -0.586 -0.503 -0.503
 0.016  0.230 -0.934 -0.748 -0.584 -0.501 -0.501
 0.018  0.234 -0.931 -0.746 -0.582 -0.499 -0.499
 0.020  0.238 -0.927 -0.743 -0.581 -0.497 -0.497
 0.022  0.241 -0.922 -0.740 -0.579 -0.495 -0.495
 0.024  0.245 -0.918 -0.737 -0.576 -0.493 -0.493
 0.026  0.251 -0.914 -0.734 -0.574 -0.490 -0.490
 0.028  0.255 -0.909 -0.731 -0.572 -0.487 -0.487
 0.030  0.259 -0.905 -0.728 -0.569 -0.485 -0.485
 0.032  0.265 -0.899 -0.723 -0.567 -0.483 -0.483
 0.034  0.270 -0.893 -0.720 -0.564 -0.481 -0.481
 0.036  0.276 -0.888 -0.716 -0.561 -0.479 -0.479
 0.038  0.282 -0.882 -0.711 -0.558 -0.476 -0.476
 0.040  0.287 -0.876 -0.708 -0.555 -0.473 -0.473
 0.042  0.294 -0.869 -0.703 -0.552 -0.470 -0.470
 0.044  0.302 -0.863 -0.699 -0.548 -0.467 -0.467
 0.046  0.309 -0.856 -0.694 -0.545 -0.465 -0.465
 0.048  0.316 -0.849 -0.689 -0.541 -0.462 -0.462
 0.050  0.323 -0.841 -0.683 -0.538 -0.459 -0.459
 0.052  0.331 -0.833 -0.678 -0.534 -0.455 -0.455
 0.054  0.340 -0.824 -0.673 -0.529 -0.452 -0.452
 0.056  0.348 -0.816 -0.666 -0.525 -0.449 -0.449
 0.058  0.357 -0.807 -0.661 -0.521 -0.446 -0.446
 0.060  0.365 -0.798 -0.654 -0.516 -0.442 -0.442
 0.062  0.375 -0.790 -0.648 -0.511 -0.438 -0.438
 0.064  0.385 -0.779 -0.642 -0.507 -0.435 -0.435
 0.066  0.393 -0.769 -0.635 -0.502 -0.431 -0.431
 0.068  0.404 -0.759 -0.629 -0.496 -0.427 -0.427
 0.070  0.414 -0.749 -0.621 -0.491 -0.424 -0.424
 0.072  0.424 -0.739 -0.615 -0.486 -0.419 -0.419
 0.074  0.435 -0.729 -0.607 -0.481 -0.415 -0.415
 0.076  0.445 -0.719 -0.601 -0.476 -0.412 -0.412
 0.078  0.457 -0.707 -0.593 -0.470 -0.407 -0.407
 0.080  0.466 -0.697 -0.587 -0.465 -0.403 -0.403
 0.082  0.478 -0.687 -0.579 -0.460 -0.400 -0.400
 0.084  0.488 -0.677 -0.572 -0.455 -0.395 -0.395
 0.086  0.498 -0.667 -0.565 -0.450 -0.392 -0.392
 0.088  0.507 -0.657 -0.559 -0.444 -0.388 -0.388
 0.090  0.517 -0.647 -0.552 -0.439 -0.384 -0.384
 0.092  0.527 -0.637 -0.546 -0.435 -0.380 -0.380
 0.094  0.537 -0.628 -0.540 -0.430 -0.377 -0.377
 0.096  0.545 -0.618 -0.533 -0.425 -0.373 -0.373
 0.098  0.555 -0.609 -0.527 -0.421 -0.369 -0.369
 0.100  0.564 -0.601 -0.520 -0.416 -0.366 -0.366
 0.102  0.572 -0.592 -0.515 -0.411 -0.363 -0.363
 0.104  0.581 -0.583 -0.508 -0.407 -0.360 -0.360
 0.106  0.589 -0.575 -0.503 -0.404 -0.356 -0.356
 0.108  0.598 -0.566 -0.498 -0.399 -0.353 -0.353
 0.110  0.606 -0.559 -0.491 -0.395 -0.349 -0.349
 0.112  0.615 -0.550 -0.486 -0.391 -0.346 -0.346
 0.114  0.622 -0.542 -0.481 -0.387 -0.343 -0.343
 0.116  0.630 -0.534 -0.475 -0.383 -0.340 -0.340
 0.118  0.637 -0.527 -0.470 -0.379 -0.337 -0.337
 0.120  0.646 -0.518 -0.464 -0.375 -0.334 -0.334
 0.122  0.653 -0.511 -0.459 -0.371 -0.331 -0.331
 0.124  0.660 -0.504 -0.454 -0.368 -0.328 -0.328
 0.126  0.667 -0.497 -0.449 -0.365 -0.325 -0.325
 0.128  0.674 -0.490 -0.444 -0.361 -0.323 -0.323
 0.130  0.681 -0.484 -0.440 -0.358 -0.320 -0.320
 0.132  0.686 -0.477 -0.435 -0.355 -0.317 -0.317
 0.134  0.693 -0.471 -0.431 -0.352 -0.315 -0.315
 0.136  0.699 -0.465 -0.426 -0.348 -0.313 -0.313
 0.138  0.706 -0.458 -0.421 -0.345 -0.310 -0.310
 0.140  0.712 -0.452 -0.417 -0.343 -0.308 -0.308
 0.142  0.717 -0.446 -0.414 -0.339 -0.305 -0.305
 0.144  0.723 -0.441 -0.410 -0.337 -0.303 -0.303
 0.146  0.729 -0.435 -0.405 -0.334 -0.301 -0.301
 0.148  0.734 -0.429 -0.401 -0.332 -0.299 -0.299
 0.150  0.740 -0.423 -0.397 -0.328 -0.296 -0.296
 0.152  0.746 -0.418 -0.394 -0.326 -0.294 -0.294
 0.154  0.751 -0.412 -0.389 -0.323 -0.292 -0.292
 0.156  0.757 -0.406 -0.385 -0.320 -0.290 -0.290
 0.158  0.763 -0.400 -0.382 -0.318 -0.288 -0.288
 0.160  0.768 -0.394 -0.377 -0.315 -0.285 -0.285
 0.162  0.772 -0.389 -0.373 -0.313 -0.283 -0.283
 0.164  0.778 -0.383 -0.370 -0.310 -0.281 -0.281
 0.166  0.784 -0.377 -0.366 -0.307 -0.279 -0.279
 0.168  0.789 -0.371 -0.362 -0.305 -0.276 -0.276
 0.170  0.795 -0.366 -0.358 -0.302 -0.274 -0.274
 0.172  0.801 -0.360 -0.354 -0.299 -0.272 -0.272
 0.174  0.806 -0.354 -0.351 -0.297 -0.270 -0.270
 0.176  0.811 -0.348 -0.346 -0.294 -0.267 -0.267
 0.178  0.816 -0.343 -0.343 -0.292 -0.265 -0.265
 0.180  0.822 -0.337 -0.339 -0.289 -0.263 -0.263
 0.182  0.827 -0.331 -0.334 -0.286 -0.261 -0.261
 0.184  0.833 -0.325 -0.331 -0.284 -0.259 -0.259
 0.186  0.839 -0.320 -0.327 -0.281 -0.256 -0.256
 0.188  0.844 -0.314 -0.324 -0.280 -0.254 -0.254
 0.190  0.849 -0.308 -0.319 -0.277 -0.252 -0.252
 0.192  0.854 -0.302 -0.316 -0.274 -0.250 -0.250
 0.194  0.860 -0.296 -0.312 -0.272 -0.248 -0.248
 0.196  0.866 -0.291 -0.309 -0.269 -0.246 -0.246
 0.198  0.871 -0.285 -0.306 -0.267 -0.244 -0.244
 0.200  0.877 -0.279 -0.301 -0.264 -0.241 -0.241
 0.202  0.881 -0.273 -0.298 -0.262 -0.239 -0.239
 0.204  0.887 -0.268 -0.294 -0.260 -0.237 -0.237
 0.206  0.892 -0.262 -0.290 -0.257 -0.235 -0.235
 0.208  0.898 -0.255 -0.287 -0.254 -0.233 -0.233
 0.210  0.902 -0.249 -0.283 -0.252 -0.230 -0.230
 0.212  0.908 -0.243 -0.280 -0.250 -0.228 -0.228
 0.214  0.913 -0.237 -0.275 -0.247 -0.226 -0.226
 0.216  0.919 -0.232 -0.272 -0.245 -0.224 -0.224
 0.218  0.925 -0.226 -0.269 -0.242 -0.221 -0.221
 0.220  0.929 -0.220 -0.265 -0.240 -0.219 -0.219
 0.222  0.935 -0.214 -0.261 -0.238 -0.217 -0.217
 0.224  0.940 -0.208 -0.258 -0.235 -0.215 -0.215
 0.226  0.944 -0.203 -0.255 -0.233 -0.212 -0.212
 0.228  0.950 -0.197 -0.251 -0.231 -0.211 -0.211
 0.230  0.956 -0.191 -0.248 -0.228 -0.209 -0.209
 0.232  0.960 -0.185 -0.244 -0.226 -0.207 -0.207
 0.234  0.966 -0.180 -0.241 -0.224 -0.204 -0.204
 0.236  0.970 -0.175 -0.238 -0.221 -0.202 -0.202
 0.238  0.975 -0.170 -0.235 -0.219 -0.200 -0.200
 0.240  0.980 -0.164 -0.231 -0.217 -0.198 -0.198
 0.242  0.985 -0.159 -0.227 -0.214 -0.196 -0.196
 0.244  0.990 -0.154 -0.224 -0.212 -0.194 -0.194
 0.246  0.994 -0.149 -0.221 -0.210 -0.192 -0.192
 0.248  0.999 -0.144 -0.217 -0.208 -0.190 -0.190
 0.250  1.004 -0.139 -0.214 -0.206 -0.188 -0.188
 0.252  1.008 -0.134 -0.211 -0.203 -0.186 -0.186
 0.254  1.014 -0.129 -0.208 -0.201 -0.184 -0.184
 0.256  1.018 -0.125 -0.206 -0.199 -0.182 -0.182
 0.258  1.022 -0.119 -0.202 -0.196 -0.180 -0.180
 0.260  1.026 -0.115 -0.199 -0.195 -0.178 -0.178
 0.262  1.030 -0.110 -0.196 -0.192 -0.176 -0.176
 0.264  1.036 -0.106 -0.193 -0.190 -0.175 -0.175
 0.266  1.040 -0.102 -0.190 -0.188 -0.172 -0.172
 0.268  1.045 -0.097 -0.186 -0.186 -0.171 -0.171
 0.270  1.049 -0.093 -0.184 -0.183 -0.169 -0.169
 0.272  1.053 -0.089 -0.181 -0.182 -0.167 -0.167
 0.274  1.057 -0.084 -0.178 -0.180 -0.165 -0.165
 0.276  1.062 -0.080 -0.174 -0.177 -0.163 -0.163
 0.278  1.066 -0.076 -0.172 -0.175 -0.161 -0.161
 0.280  1.070 -0.073 -0.169 -0.173 -0.160 -0.160
 0.282  1.074 -0.069 -0.166 -0.171 -0.157 -0.157
 0.284  1.077 -0.064 -0.164 -0.169 -0.156 -0.156
 0.286  1.081 -0.061 -0.161 -0.167 -0.155 -0.155
 0.288  1.085 -0.057 -0.157 -0.165 -0.152 -0.152
 0.290  1.090 -0.053 -0.155 -0.162 -0.151 -0.151
 0.292  1.094 -0.050 -0.152 -0.161 -0.149 -0.149
 0.294  1.098 -0.046 -0.150 -0.158 -0.147 -0.147
 0.296  1.101 -0.041 -0.147 -0.156 -0.146 -0.146
 0.298  1.105 -0.038 -0.144 -0.155 -0.143 -0.143
 0.300  1.109 -0.034 -0.141 -0.152 -0.142 -0.142
 0.302  1.114 -0.031 -0.138 -0.150 -0.140 -0.140
 0.304  1.116 -0.027 -0.136 -0.148 -0.138 -0.138
 0.306  1.121 -0.022 -0.133 -0.146 -0.137 -0.137
 0.308  1.125 -0.020 -0.130 -0.144 -0.135 -0.135
 0.310  1.129 -0.015 -0.127 -0.142 -0.133 -0.133
 0.312  1.132 -0.011 -0.125 -0.140 -0.131 -0.131
 0.314  1.136 -0.008 -0.122 -0.137 -0.130 -0.130
 0.316  1.140 -0.004 -0.119 -0.136 -0.128 -0.128
 0.318  1.145  0.001 -0.117 -0.133 -0.126 -0.126
 0.320  1.148  0.005 -0.113 -0.131 -0.125 -0.125
 0.322  1.152  0.009 -0.111 -0.129 -0.123 -0.123
 0.324  1.156  0.012 -0.108 -0.127 -0.121 -0.121
 0.326  1.159  0.016 -0.105 -0.124 -0.120 -0.120
 0.328  1.163  0.021 -0.103 -0.123 -0.117 -0.117
 0.330  1.167  0.025 -0.099 -0.120 -0.116 -0.116
 0.332  1.171  0.029 -0.097 -0.118 -0.114 -0.114
 0.334  1.174  0.032 -0.094 -0.116 -0.113 -0.113
 0.336  1.179  0.037 -0.092 -0.114 -0.111 -0.111
 0.338  1.183  0.041 -0.089 -0.111 -0.109 -0.109
 0.340  1.186  0.045 -0.086 -0.110 -0.108 -0.108
 0.342  1.190  0.050 -0.083 -0.107 -0.105 -0.105
 0.344  1.193  0.054 -0.080 -0.104 -0.104 -0.104
 0.346  1.197  0.057 -0.078 -0.103 -0.102 -0.102
 0.348  1.201  0.061 -0.075 -0.100 -0.100 -0.100
 0.350  1.204  0.065 -0.072 -0.098 -0.099 -0.099
 0.352  1.208  0.070 -0.069 -0.096 -0.097 -0.097
 0.354  1.212  0.074 -0.067 -0.094 -0.095 -0.095
 0.356  1.215  0.078 -0.064 -0.091 -0.094 -0.094
 0.358  1.219  0.083 -0.061 -0.089 -0.092 -0.092
 0.360  1.222  0.087 -0.059 -0.087 -0.091 -0.091
 0.362  1.226  0.091 -0.055 -0.084 -0.088 -0.088
 0.364  1.231  0.096 -0.053 -0.083 -0.087 -0.087
 0.366  1.234  0.100 -0.050 -0.080 -0.085 -0.085
 0.368  1.238  0.104 -0.048 -0.077 -0.083 -0.083
 0.370  1.241  0.109 -0.045 -0.076 -0.082 -0.082
 0.372  1.245  0.112 -0.042 -0.073 -0.080 -0.080
 0.374  1.248  0.116 -0.039 -0.071 -0.078 -0.078
 0.376  1.252  0.120 -0.037 -0.069 -0.076 -0.076
 0.378  1.255  0.125 -0.034 -0.067 -0.074 -0.074
 0.380  1.259  0.129 -0.032 -0.064 -0.073 -0.073
 0.382  1.262  0.133 -0.028 -0.063 -0.071 -0.071
 0.384  1.266  0.138 -0.026 -0.060 -0.069 -0.069
 0.386  1.269  0.140 -0.023 -0.058 -0.068 -0.068
 0.388  1.273  0.145 -0.021 -0.056 -0.065 -0.065
 0.390  1.276  0.149 -0.018 -0.054 -0.064 -0.064
 0.392  1.280  0.153 -0.016 -0.051 -0.062 -0.062
 0.394  1.283  0.158 -0.012 -0.050 -0.060 -0.060
 0.396  1.287  0.161 -0.010 -0.048 -0.058 -0.058
 0.398  1.290  0.165 -0.007 -0.045 -0.056 -0.056
 0.400  1.294  0.169 -0.005 -0.044 -0.054 -0.054
 0.402  1.297  0.174 -0.002 -0.041 -0.053 -0.053
 0.404  1.301  0.178  0.001 -0.039 -0.050 -0.050
 0.406  1.304  0.181  0.004 -0.038 -0.049 -0.049
 0.408  1.307  0.185  0.006 -0.035 -0.047 -0.047
 0.410  1.311  0.189  0.009 -0.033 -0.045 -0.045
 0.412  1.314  0.192  0.011 -0.031 -0.043 -0.043
 0.414  1.317  0.197  0.014 -0.029 -0.041 -0.041
 0.416  1.321  0.201  0.017 -0.027 -0.039 -0.039
 0.418  1.324  0.205  0.019 -0.025 -0.037 -0.037
 0.420  1.328  0.208  0.022 -0.023 -0.035 -0.035
 0.422  1.331  0.213  0.024 -0.021 -0.033 -0.033
 0.424  1.334  0.217  0.027 -0.019 -0.031 -0.031
 0.426  1.338  0.220  0.030 -0.018 -0.029 -0.029
 0.428  1.341  0.224  0.033 -0.015 -0.027 -0.027
 0.430  1.344  0.227  0.035 -0.013 -0.025 -0.025
 0.432  1.346  0.231  0.037 -0.012 -0.023 -0.023
 0.434  1.351  0.236  0.040 -0.010 -0.021 -0.021
 0.436  1.353  0.238  0.042 -0.008 -0.019 -0.019
 0.438  1.356  0.243  0.046 -0.005 -0.017 -0.017
 0.440  1.359  0.246  0.048 -0.004 -0.016 -0.016
 0.442  1.363  0.250  0.050 -0.002 -0.013 -0.013
 0.444  1.366  0.253  0.053 -0.000 -0.011 -0.011
 0.446  1.369  0.256  0.055  0.002 -0.010 -0.010
 0.448  1.372  0.260  0.057  0.004 -0.007 -0.007
 0.450  1.375  0.263  0.060  0.006 -0.006 -0.006
 0.452  1.377  0.266  0.063  0.008 -0.004 -0.004
 0.454  1.380  0.270  0.065  0.009 -0.002 -0.002
 0.456  1.383  0.273  0.067  0.012  0.000  0.000
 0.458  1.386  0.276  0.069  0.014  0.002  0.002
 0.460  1.389  0.279  0.072  0.015  0.004  0.004
 0.462  1.391  0.282  0.075  0.017  0.005  0.005
 0.464  1.394  0.286  0.077  0.020  0.007  0.007
 0.466  1.397  0.289  0.079  0.021  0.009  0.009
 0.468  1.400  0.292  0.081  0.023  0.010  0.010
 0.470  1.403  0.295  0.083  0.025  0.012  0.012
 0.472  1.406  0.298  0.086  0.027  0.014  0.014
 0.474  1.408  0.300  0.089  0.029  0.016  0.016
 0.476  1.411  0.303  0.091  0.031  0.017  0.017
 0.478  1.413  0.305  0.093  0.033  0.019  0.019
 0.480  1.415  0.308  0.095  0.034  0.021  0.021
 0.482  1.418  0.311  0.097  0.036  0.022  0.022
 0.484  1.421  0.313  0.099  0.039  0.024  0.024
 0.486  1.422  0.316  0.101  0.041  0.025  0.025
 0.488  1.425  0.318  0.104  0.042  0.027  0.027
 0.490  1.428  0.321  0.106  0.044  0.028  0.028
 0.492  1.430  0.324  0.108  0.047  0.030  0.030
 0.494  1.432  0.325  0.110  0.048  0.031  0.031
 0.496  1.435  0.328  0.112  0.050  0.033  0.033
 0.498  1.437  0.331  0.114  0.052  0.034  0.034
 0.500  1.439  0.332  0.117  0.054  0.036  0.036
 0.502  1.441  0.335  0.119  0.056  0.037  0.037
 0.504  1.444  0.337  0.121  0.058  0.039  0.039
 0.506  1.445  0.338  0.123  0.060  0.040  0.040
 0.508  1.448  0.341  0.124  0.061  0.042  0.042
 0.510  1.449  0.342  0.126  0.063  0.042  0.042
 0.512  1.452  0.345  0.128  0.065  0.044  0.044
 0.514  1.453  0.347  0.130  0.067  0.045  0.045
 0.516  1.455  0.348  0.132  0.068  0.047  0.047
 0.518  1.456  0.350  0.134  0.070  0.048  0.048
 0.520  1.459  0.352  0.136  0.072  0.049  0.049
 0.522  1.461  0.354  0.137  0.073  0.051  0.051
 0.524  1.462  0.355  0.139  0.074  0.052  0.052
 0.526  1.463  0.357  0.140  0.076  0.053  0.053
 0.528  1.465  0.358  0.142  0.078  0.054  0.054
 0.530  1.466  0.360  0.143  0.079  0.055  0.055
 0.532  1.468  0.361  0.145  0.080  0.057  0.057
 0.534  1.469  0.362  0.147  0.081  0.058  0.058
 0.536  1.470  0.364  0.149  0.083  0.059  0.059
 0.538  1.472  0.365  0.150  0.084  0.060  0.060
 0.540  1.473  0.367  0.151  0.086  0.061  0.061
 0.542  1.475  0.368  0.153  0.086  0.062  0.062
 0.544  1.476  0.370  0.154  0.087  0.063  0.063
 0.546  1.477  0.370  0.155  0.089  0.064  0.064
 0.548  1.479  0.371  0.156  0.090  0.065  0.065
 0.550  1.479  0.373  0.157  0.091  0.066  0.066
 0.552  1.480  0.374  0.159  0.092  0.068  0.068
 0.554  1.482  0.374  0.161  0.093  0.068  0.068
 0.556  1.482  0.375  0.162  0.093  0.069  0.069
 0.558  1.483  0.375  0.163  0.094  0.070  0.070
 0.560  1.483  0.377  0.164  0.095  0.071  0.071
 0.562  1.485  0.378  0.165  0.096  0.072  0.072
 0.564  1.485  0.378  0.166  0.097  0.073  0.073
 0.566  1.486  0.380  0.167  0.098  0.074  0.074
 0.568  1.486  0.380  0.168  0.099  0.074  0.074
 0.570  1.487  0.380  0.168  0.099  0.076  0.076
 0.572  1.487  0.381  0.169  0.099  0.077  0.077
 0.574  1.487  0.381  0.170  0.100  0.077  0.077
 0.576  1.489  0.381  0.171  0.100  0.078  0.078
 0.578  1.489  0.383  0.171  0.101  0.079  0.079
 0.580  1.489  0.383  0.172  0.102  0.080  0.080
 0.582  1.489  0.383  0.173  0.102  0.080  0.080
 0.584  1.490  0.383  0.173  0.103  0.081  0.081
 0.586  1.490  0.384  0.174  0.103  0.082  0.082
 0.588  1.490  0.384  0.174  0.104  0.083  0.083
 0.590  1.490  0.384  0.176  0.104  0.083  0.083
 0.592  1.490  0.384  0.176  0.105  0.084  0.084
 0.594  1.492  0.384  0.177  0.105  0.085  0.085
 0.596  1.492  0.384  0.177  0.106  0.085  0.085
 0.598  1.492  0.384  0.178  0.106  0.086  0.086
 0.600  1.492  0.384  0.178  0.106  0.086  0.086
 0.602  1.492  0.384  0.178  0.106  0.087  0.087
 0.604  1.492  0.384  0.178  0.107  0.088  0.088
 0.606  1.492  0.384  0.179  0.107  0.088  0.088
 0.608  1.492  0.384  0.179  0.108  0.088  0.088
 0.610  1.492  0.384  0.179  0.108  0.089  0.089
 0.612  1.492  0.384  0.179  0.108  0.090  0.090
 0.614  1.492  0.384  0.179  0.109  0.091  0.091
 0.616  1.492  0.384  0.179  0.109  0.091  0.091
 0.618  1.492  0.384  0.179  0.109  0.091  0.091
 0.620  1.492  0.384  0.179  0.110  0.092  0.092
 0.622  1.492  0.383  0.179  0.110  0.093  0.093
 0.624  1.492  0.383  0.179  0.110  0.093  0.093
 0.626  1.490  0.383  0.179  0.111  0.094  0.094
 0.628  1.490  0.383  0.178  0.111  0.094  0.094
 0.630  1.490  0.381  0.178  0.111  0.094  0.094
 0.632  1.490  0.381  0.178  0.111  0.095  0.095
 0.634  1.490  0.381  0.177  0.112  0.095  0.095
 0.636  1.489  0.380  0.177  0.112  0.096  0.096
 0.638  1.489  0.380  0.177  0.112  0.096  0.096
 0.640  1.489  0.378  0.176  0.112  0.097  0.097
 0.642  1.489  0.378  0.176  0.112  0.097  0.097
 0.644  1.487  0.377  0.174  0.113  0.097  0.097
 0.646  1.487  0.377  0.174  0.113  0.097  0.097
 0.648  1.487  0.377  0.173  0.113  0.098  0.098
 0.650  1.486  0.375  0.173  0.113  0.098  0.098
 0.652  1.486  0.375  0.172  0.113  0.099  0.099
 0.654  1.486  0.374  0.172  0.113  0.099  0.099
 0.656  1.486  0.374  0.171  0.113  0.099  0.099
 0.658  1.485  0.373  0.171  0.113  0.100  0.100
 0.660  1.485  0.373  0.171  0.113  0.100  0.100
 0.662  1.485  0.371  0.170  0.113  0.100  0.100
 0.664  1.483  0.371  0.170  0.113  0.100  0.100
 0.666  1.483  0.370  0.169  0.114  0.101  0.101
 0.668  1.483  0.370  0.169  0.114  0.101  0.101
 0.670  1.482  0.368  0.168  0.114  0.101  0.101
 0.672  1.482  0.368  0.168  0.114  0.102  0.102
 0.674  1.482  0.367  0.168  0.114  0.102  0.102
 0.676  1.480  0.367  0.167  0.115  0.103  0.103
 0.678  1.480  0.365  0.167  0.115  0.103  0.103
 0.680  1.480  0.365  0.167  0.115  0.103  0.103
 0.682  1.480  0.364  0.166  0.115  0.103  0.103
 0.684  1.479  0.364  0.166  0.116  0.104  0.104
 0.686  1.479  0.362  0.166  0.116  0.104  0.104
 0.688  1.479  0.362  0.166  0.116  0.104  0.104
 0.690  1.477  0.361  0.165  0.116  0.105  0.105
 0.692  1.477  0.361  0.165  0.117  0.105  0.105
 0.694  1.477  0.360  0.165  0.117  0.106  0.106
 0.696  1.476  0.360  0.165  0.117  0.106  0.106
 0.698  1.476  0.358  0.165  0.118  0.106  0.106
 0.700  1.476  0.358  0.164  0.118  0.106  0.106
 0.702  1.475  0.357  0.164  0.118  0.106  0.106
 0.704  1.475  0.357  0.164  0.118  0.107  0.107
 0.706  1.475  0.355  0.164  0.119  0.107  0.107
 0.708  1.475  0.355  0.164  0.119  0.108  0.108
 0.710  1.473  0.354  0.164  0.119  0.108  0.108
 0.712  1.473  0.354  0.164  0.119  0.109  0.109
 0.714  1.473  0.352  0.163  0.119  0.109  0.109
 0.716  1.472  0.352  0.163  0.119  0.109  0.109
 0.718  1.472  0.351  0.163  0.120  0.109  0.109
 0.720  1.472  0.351  0.163  0.120  0.109  0.109
 0.722  1.472  0.350  0.163  0.120  0.110  0.110
 0.724  1.470  0.350  0.163  0.121  0.110  0.110
 0.726  1.470  0.350  0.163  0.121  0.111  0.111
 0.728  1.470  0.348  0.163  0.121  0.112  0.112
 0.730  1.470  0.348  0.163  0.122  0.112  0.112
 0.732  1.469  0.348  0.163  0.122  0.112  0.112
 0.734  1.469  0.348  0.163  0.122  0.113  0.113
 0.736  1.469  0.348  0.163  0.123  0.114  0.114
 0.738  1.469  0.348  0.163  0.123  0.114  0.114
 0.740  1.468  0.348  0.163  0.123  0.115  0.115
 0.742  1.468  0.348  0.162  0.123  0.116  0.116
 0.744  1.468  0.348  0.162  0.124  0.117  0.117
 0.746  1.468  0.350  0.162  0.124  0.118  0.118
 0.748  1.468  0.350  0.162  0.124  0.119  0.119
 0.750  1.468  0.350  0.162  0.125  0.120  0.120
 0.752  1.466  0.351  0.162  0.125  0.121  0.121
 0.754  1.466  0.351  0.162  0.125  0.123  0.123
 0.756  1.466  0.352  0.162  0.126  0.123  0.123
 0.758  1.466  0.352  0.162  0.126  0.125  0.125
 0.760  1.466  0.354  0.162  0.126  0.126  0.126
 0.762  1.466  0.354  0.162  0.126  0.127  0.127
 0.764  1.466  0.355  0.162  0.126  0.129  0.129
 0.766  1.466  0.357  0.162  0.126  0.130  0.130
 0.768  1.466  0.358  0.162  0.127  0.132  0.132
 0.770  1.466  0.358  0.162  0.127  0.133  0.133
 0.772  1.466  0.360  0.162  0.127  0.135  0.135
 0.774  1.466  0.361  0.162  0.127  0.136  0.136
 0.776  1.465  0.362  0.162  0.128  0.138  0.138
 0.778  1.465  0.364  0.162  0.128  0.140  0.140
 0.780  1.465  0.365  0.161  0.128  0.141  0.141
 0.782  1.465  0.368  0.161  0.128  0.143  0.143
 0.784  1.465  0.370  0.161  0.128  0.145  0.145
 0.786  1.465  0.371  0.162  0.129  0.147  0.147
 0.788  1.465  0.373  0.162  0.129  0.149  0.149
 0.790  1.466  0.375  0.162  0.130  0.151  0.151
 0.792  1.466  0.377  0.162  0.131  0.152  0.152
 0.794  1.468  0.380  0.163  0.132  0.155  0.155
 0.796  1.468  0.381  0.164  0.132  0.157  0.157
 0.798  1.469  0.384  0.164  0.133  0.158  0.158
 0.800  1.470  0.386  0.166  0.134  0.161  0.161
 0.802  1.472  0.388  0.167  0.136  0.163  0.163
 0.804  1.473  0.391  0.168  0.138  0.165  0.165
 0.806  1.475  0.393  0.170  0.139  0.167  0.167
 0.808  1.477  0.396  0.171  0.141  0.169  0.169
