# IsPeriodic    : True
# Period        : 0.610574 days
# Normalization : <g_mag>=0
# 
# Phase u_mag  g_mag  r_mag  i_mag  z_mag  y_mag
 0.000  0.387 -0.831 -0.696 -0.617 -0.530 -0.530
 0.002  0.387 -0.831 -0.696 -0.617 -0.530 -0.530
 0.004  0.387 -0.830 -0.695 -0.617 -0.529 -0.529
 0.006  0.388 -0.827 -0.694 -0.616 -0.529 -0.529
 0.008  0.389 -0.823 -0.693 -0.615 -0.528 -0.528
 0.010  0.391 -0.819 -0.691 -0.613 -0.527 -0.527
 0.012  0.392 -0.814 -0.689 -0.612 -0.526 -0.526
 0.014  0.394 -0.809 -0.686 -0.610 -0.525 -0.525
 0.016  0.397 -0.804 -0.683 -0.608 -0.523 -0.523
 0.018  0.399 -0.798 -0.680 -0.606 -0.522 -0.522
 0.020  0.401 -0.791 -0.677 -0.603 -0.520 -0.520
 0.022  0.405 -0.785 -0.673 -0.601 -0.519 -0.519
 0.024  0.409 -0.778 -0.671 -0.598 -0.517 -0.517
 0.026  0.413 -0.772 -0.667 -0.596 -0.515 -0.515
 0.028  0.417 -0.767 -0.663 -0.593 -0.514 -0.514
 0.030  0.422 -0.760 -0.661 -0.590 -0.512 -0.512
 0.032  0.428 -0.754 -0.657 -0.588 -0.510 -0.510
 0.034  0.433 -0.747 -0.653 -0.586 -0.508 -0.508
 0.036  0.439 -0.742 -0.651 -0.583 -0.507 -0.507
 0.038  0.445 -0.736 -0.647 -0.580 -0.505 -0.505
 0.040  0.452 -0.729 -0.643 -0.577 -0.503 -0.503
 0.042  0.458 -0.723 -0.640 -0.574 -0.500 -0.500
 0.044  0.465 -0.718 -0.636 -0.571 -0.498 -0.498
 0.046  0.472 -0.711 -0.632 -0.568 -0.496 -0.496
 0.048  0.479 -0.705 -0.628 -0.565 -0.494 -0.494
 0.050  0.488 -0.697 -0.624 -0.562 -0.492 -0.492
 0.052  0.495 -0.691 -0.619 -0.558 -0.489 -0.489
 0.054  0.503 -0.684 -0.616 -0.555 -0.487 -0.487
 0.056  0.511 -0.678 -0.611 -0.551 -0.484 -0.484
 0.058  0.519 -0.670 -0.607 -0.547 -0.481 -0.481
 0.060  0.526 -0.664 -0.602 -0.543 -0.478 -0.478
 0.062  0.535 -0.656 -0.598 -0.539 -0.475 -0.475
 0.064  0.542 -0.648 -0.592 -0.535 -0.473 -0.473
 0.066  0.550 -0.642 -0.588 -0.532 -0.470 -0.470
 0.068  0.557 -0.634 -0.583 -0.527 -0.466 -0.466
 0.070  0.565 -0.626 -0.577 -0.523 -0.464 -0.464
 0.072  0.572 -0.619 -0.572 -0.518 -0.460 -0.460
 0.074  0.579 -0.612 -0.567 -0.515 -0.457 -0.457
 0.076  0.586 -0.604 -0.562 -0.510 -0.454 -0.454
 0.078  0.592 -0.597 -0.557 -0.505 -0.451 -0.451
 0.080  0.599 -0.589 -0.552 -0.501 -0.448 -0.448
 0.082  0.605 -0.583 -0.546 -0.497 -0.445 -0.445
 0.084  0.613 -0.575 -0.542 -0.493 -0.441 -0.441
 0.086  0.619 -0.567 -0.536 -0.488 -0.439 -0.439
 0.088  0.625 -0.559 -0.532 -0.484 -0.435 -0.435
 0.090  0.631 -0.553 -0.526 -0.481 -0.433 -0.433
 0.092  0.638 -0.545 -0.522 -0.477 -0.429 -0.429
 0.094  0.644 -0.538 -0.516 -0.473 -0.427 -0.427
 0.096  0.650 -0.531 -0.512 -0.469 -0.424 -0.424
 0.098  0.656 -0.523 -0.507 -0.465 -0.422 -0.422
 0.100  0.662 -0.516 -0.503 -0.462 -0.419 -0.419
 0.102  0.668 -0.509 -0.498 -0.458 -0.416 -0.416
 0.104  0.673 -0.503 -0.493 -0.455 -0.414 -0.414
 0.106  0.679 -0.495 -0.489 -0.451 -0.411 -0.411
 0.108  0.685 -0.489 -0.484 -0.448 -0.408 -0.408
 0.110  0.689 -0.482 -0.480 -0.445 -0.406 -0.406
 0.112  0.694 -0.474 -0.475 -0.441 -0.404 -0.404
 0.114  0.700 -0.468 -0.471 -0.438 -0.401 -0.401
 0.116  0.705 -0.462 -0.467 -0.435 -0.399 -0.399
 0.118  0.710 -0.455 -0.462 -0.433 -0.397 -0.397
 0.120  0.715 -0.450 -0.459 -0.430 -0.395 -0.395
 0.122  0.719 -0.444 -0.454 -0.426 -0.393 -0.393
 0.124  0.724 -0.437 -0.451 -0.424 -0.391 -0.391
 0.126  0.729 -0.431 -0.447 -0.421 -0.388 -0.388
 0.128  0.734 -0.424 -0.442 -0.419 -0.386 -0.386
 0.130  0.739 -0.419 -0.439 -0.416 -0.384 -0.384
 0.132  0.743 -0.413 -0.435 -0.414 -0.383 -0.383
 0.134  0.748 -0.408 -0.431 -0.412 -0.381 -0.381
 0.136  0.754 -0.401 -0.428 -0.409 -0.379 -0.379
 0.138  0.759 -0.396 -0.424 -0.407 -0.377 -0.377
 0.140  0.764 -0.390 -0.420 -0.405 -0.376 -0.376
 0.142  0.769 -0.384 -0.417 -0.403 -0.374 -0.374
 0.144  0.773 -0.379 -0.414 -0.401 -0.372 -0.372
 0.146  0.778 -0.373 -0.410 -0.399 -0.370 -0.370
 0.148  0.783 -0.368 -0.407 -0.396 -0.368 -0.368
 0.150  0.788 -0.363 -0.404 -0.395 -0.367 -0.367
 0.152  0.793 -0.357 -0.400 -0.392 -0.365 -0.365
 0.154  0.797 -0.352 -0.397 -0.391 -0.364 -0.364
 0.156  0.802 -0.347 -0.394 -0.389 -0.362 -0.362
 0.158  0.807 -0.342 -0.390 -0.387 -0.361 -0.361
 0.160  0.812 -0.337 -0.388 -0.386 -0.359 -0.359
 0.162  0.817 -0.332 -0.385 -0.383 -0.357 -0.357
 0.164  0.821 -0.326 -0.381 -0.382 -0.355 -0.355
 0.166  0.826 -0.321 -0.378 -0.379 -0.354 -0.354
 0.168  0.832 -0.316 -0.375 -0.378 -0.352 -0.352
 0.170  0.837 -0.311 -0.372 -0.375 -0.350 -0.350
 0.172  0.842 -0.306 -0.368 -0.374 -0.349 -0.349
 0.174  0.847 -0.301 -0.366 -0.372 -0.347 -0.347
 0.176  0.851 -0.296 -0.363 -0.370 -0.345 -0.345
 0.178  0.856 -0.290 -0.359 -0.368 -0.343 -0.343
 0.180  0.861 -0.287 -0.357 -0.365 -0.341 -0.341
 0.182  0.866 -0.281 -0.354 -0.364 -0.339 -0.339
 0.184  0.871 -0.276 -0.350 -0.362 -0.338 -0.338
 0.186  0.875 -0.271 -0.347 -0.359 -0.336 -0.336
 0.188  0.881 -0.266 -0.345 -0.358 -0.334 -0.334
 0.190  0.886 -0.261 -0.341 -0.355 -0.332 -0.332
 0.192  0.891 -0.256 -0.338 -0.354 -0.330 -0.330
 0.194  0.896 -0.252 -0.336 -0.352 -0.328 -0.328
 0.196  0.900 -0.247 -0.333 -0.349 -0.326 -0.326
 0.198  0.905 -0.242 -0.329 -0.347 -0.325 -0.325
 0.200  0.910 -0.236 -0.326 -0.345 -0.323 -0.323
 0.202  0.915 -0.231 -0.324 -0.343 -0.321 -0.321
 0.204  0.920 -0.227 -0.321 -0.341 -0.319 -0.319
 0.206  0.924 -0.222 -0.318 -0.339 -0.317 -0.317
 0.208  0.929 -0.217 -0.315 -0.337 -0.315 -0.315
 0.210  0.934 -0.212 -0.312 -0.335 -0.313 -0.313
 0.212  0.939 -0.208 -0.309 -0.332 -0.311 -0.311
 0.214  0.944 -0.203 -0.306 -0.330 -0.309 -0.309
 0.216  0.948 -0.198 -0.304 -0.328 -0.307 -0.307
 0.218  0.952 -0.193 -0.301 -0.326 -0.305 -0.305
 0.220  0.957 -0.189 -0.298 -0.324 -0.303 -0.303
 0.222  0.962 -0.184 -0.295 -0.321 -0.301 -0.301
 0.224  0.966 -0.178 -0.293 -0.319 -0.299 -0.299
 0.226  0.970 -0.175 -0.290 -0.318 -0.297 -0.297
 0.228  0.975 -0.169 -0.287 -0.315 -0.295 -0.295
 0.230  0.980 -0.166 -0.284 -0.313 -0.294 -0.294
 0.232  0.983 -0.160 -0.282 -0.311 -0.292 -0.292
 0.234  0.988 -0.155 -0.279 -0.308 -0.290 -0.290
 0.236  0.993 -0.151 -0.276 -0.307 -0.288 -0.288
 0.238  0.996 -0.146 -0.273 -0.304 -0.286 -0.286
 0.240  1.001 -0.142 -0.271 -0.302 -0.284 -0.284
 0.242  1.005 -0.137 -0.268 -0.301 -0.282 -0.282
 0.244  1.010 -0.133 -0.265 -0.298 -0.280 -0.280
 0.246  1.013 -0.128 -0.262 -0.296 -0.278 -0.278
 0.248  1.018 -0.124 -0.260 -0.294 -0.276 -0.276
 0.250  1.022 -0.121 -0.257 -0.292 -0.275 -0.275
 0.252  1.025 -0.115 -0.254 -0.290 -0.273 -0.273
 0.254  1.030 -0.112 -0.252 -0.288 -0.271 -0.271
 0.256  1.034 -0.108 -0.249 -0.286 -0.269 -0.269
 0.258  1.037 -0.103 -0.246 -0.284 -0.268 -0.268
 0.260  1.042 -0.099 -0.243 -0.282 -0.266 -0.266
 0.262  1.046 -0.095 -0.241 -0.280 -0.264 -0.264
 0.264  1.049 -0.091 -0.238 -0.278 -0.263 -0.263
 0.266  1.053 -0.087 -0.235 -0.276 -0.261 -0.261
 0.268  1.058 -0.082 -0.232 -0.274 -0.259 -0.259
 0.270  1.061 -0.078 -0.231 -0.273 -0.257 -0.257
 0.272  1.065 -0.074 -0.228 -0.270 -0.255 -0.255
 0.274  1.068 -0.070 -0.225 -0.269 -0.253 -0.253
 0.276  1.073 -0.066 -0.222 -0.267 -0.252 -0.252
 0.278  1.077 -0.063 -0.220 -0.265 -0.250 -0.250
 0.280  1.080 -0.059 -0.217 -0.263 -0.249 -0.249
 0.282  1.084 -0.055 -0.214 -0.261 -0.247 -0.247
 0.284  1.088 -0.051 -0.211 -0.259 -0.246 -0.246
 0.286  1.092 -0.047 -0.210 -0.257 -0.244 -0.244
 0.288  1.096 -0.043 -0.207 -0.256 -0.242 -0.242
 0.290  1.100 -0.039 -0.204 -0.253 -0.240 -0.240
 0.292  1.103 -0.037 -0.201 -0.252 -0.239 -0.239
 0.294  1.107 -0.033 -0.199 -0.250 -0.237 -0.237
 0.296  1.112 -0.029 -0.196 -0.248 -0.236 -0.236
 0.298  1.115 -0.025 -0.193 -0.246 -0.234 -0.234
 0.300  1.119 -0.021 -0.191 -0.244 -0.232 -0.232
 0.302  1.122 -0.018 -0.189 -0.243 -0.231 -0.231
 0.304  1.126 -0.015 -0.186 -0.241 -0.229 -0.229
 0.306  1.131 -0.011 -0.183 -0.239 -0.228 -0.228
 0.308  1.134 -0.007 -0.180 -0.237 -0.227 -0.227
 0.310  1.138 -0.003 -0.178 -0.235 -0.225 -0.225
 0.312  1.142  0.000 -0.176 -0.233 -0.223 -0.223
 0.314  1.145  0.003 -0.173 -0.232 -0.221 -0.221
 0.316  1.149  0.007 -0.170 -0.229 -0.220 -0.220
 0.318  1.154  0.011 -0.168 -0.228 -0.219 -0.219
 0.320  1.157  0.015 -0.166 -0.226 -0.217 -0.217
 0.322  1.161  0.018 -0.163 -0.224 -0.215 -0.215
 0.324  1.164  0.022 -0.160 -0.222 -0.214 -0.214
 0.326  1.168  0.025 -0.157 -0.220 -0.212 -0.212
 0.328  1.172  0.029 -0.155 -0.218 -0.211 -0.211
 0.330  1.176  0.033 -0.153 -0.216 -0.209 -0.209
 0.332  1.180  0.036 -0.150 -0.214 -0.208 -0.208
 0.334  1.184  0.040 -0.147 -0.212 -0.206 -0.206
 0.336  1.187  0.044 -0.145 -0.210 -0.205 -0.205
 0.338  1.191  0.047 -0.143 -0.209 -0.204 -0.204
 0.340  1.194  0.051 -0.140 -0.206 -0.202 -0.202
 0.342  1.198  0.055 -0.137 -0.205 -0.200 -0.200
 0.344  1.202  0.058 -0.135 -0.202 -0.199 -0.199
 0.346  1.205  0.062 -0.133 -0.200 -0.198 -0.198
 0.348  1.210  0.066 -0.130 -0.199 -0.196 -0.196
 0.350  1.214  0.070 -0.127 -0.196 -0.194 -0.194
 0.352  1.217  0.074 -0.126 -0.195 -0.193 -0.193
 0.354  1.221  0.076 -0.123 -0.192 -0.192 -0.192
 0.356  1.223  0.080 -0.120 -0.191 -0.190 -0.190
 0.358  1.227  0.084 -0.117 -0.189 -0.188 -0.188
 0.360  1.230  0.088 -0.115 -0.186 -0.187 -0.187
 0.362  1.234  0.092 -0.113 -0.185 -0.186 -0.186
 0.364  1.238  0.096 -0.110 -0.182 -0.185 -0.185
 0.366  1.241  0.100 -0.108 -0.181 -0.183 -0.183
 0.368  1.245  0.103 -0.105 -0.178 -0.181 -0.181
 0.370  1.248  0.106 -0.103 -0.176 -0.180 -0.180
 0.372  1.251  0.110 -0.101 -0.175 -0.179 -0.179
 0.374  1.254  0.114 -0.098 -0.172 -0.177 -0.177
 0.376  1.258  0.118 -0.095 -0.171 -0.175 -0.175
 0.378  1.262  0.121 -0.094 -0.168 -0.174 -0.174
 0.380  1.264  0.124 -0.091 -0.167 -0.172 -0.172
 0.382  1.268  0.128 -0.088 -0.165 -0.171 -0.171
 0.384  1.271  0.132 -0.086 -0.163 -0.169 -0.169
 0.386  1.274  0.136 -0.084 -0.161 -0.167 -0.167
 0.388  1.277  0.138 -0.081 -0.159 -0.166 -0.166
 0.390  1.281  0.142 -0.079 -0.157 -0.164 -0.164
 0.392  1.283  0.146 -0.076 -0.155 -0.163 -0.163
 0.394  1.287  0.148 -0.073 -0.153 -0.162 -0.162
 0.396  1.289  0.152 -0.072 -0.151 -0.160 -0.160
 0.398  1.293  0.156 -0.069 -0.149 -0.158 -0.158
 0.400  1.295  0.159 -0.067 -0.148 -0.156 -0.156
 0.402  1.299  0.163 -0.064 -0.146 -0.155 -0.155
 0.404  1.301  0.165 -0.062 -0.144 -0.153 -0.153
 0.406  1.305  0.169 -0.060 -0.142 -0.152 -0.152
 0.408  1.307  0.173 -0.057 -0.141 -0.150 -0.150
 0.410  1.311  0.175 -0.055 -0.138 -0.148 -0.148
 0.412  1.313  0.179 -0.052 -0.137 -0.146 -0.146
 0.414  1.317  0.182 -0.051 -0.134 -0.145 -0.145
 0.416  1.319  0.185 -0.048 -0.133 -0.143 -0.143
 0.418  1.322  0.188 -0.045 -0.131 -0.141 -0.141
 0.420  1.325  0.191 -0.043 -0.130 -0.140 -0.140
 0.422  1.328  0.195 -0.041 -0.128 -0.138 -0.138
 0.424  1.330  0.197 -0.039 -0.126 -0.137 -0.137
 0.426  1.334  0.200 -0.036 -0.124 -0.135 -0.135
 0.428  1.336  0.204 -0.034 -0.122 -0.133 -0.133
 0.430  1.338  0.206 -0.031 -0.121 -0.131 -0.131
 0.432  1.341  0.209 -0.030 -0.119 -0.129 -0.129
 0.434  1.343  0.213 -0.027 -0.117 -0.127 -0.127
 0.436  1.347  0.215 -0.025 -0.116 -0.126 -0.126
 0.438  1.349  0.218 -0.022 -0.114 -0.124 -0.124
 0.440  1.352  0.222 -0.021 -0.112 -0.123 -0.123
 0.442  1.354  0.224 -0.018 -0.111 -0.121 -0.121
 0.444  1.356  0.227 -0.016 -0.109 -0.119 -0.119
 0.446  1.359  0.230 -0.013 -0.107 -0.118 -0.118
 0.448  1.361  0.232 -0.011 -0.105 -0.116 -0.116
 0.450  1.364  0.235 -0.010 -0.104 -0.114 -0.114
 0.452  1.366  0.237 -0.007 -0.102 -0.113 -0.113
 0.454  1.368  0.240 -0.005 -0.100 -0.111 -0.111
 0.456  1.372  0.242 -0.003 -0.098 -0.110 -0.110
 0.458  1.373  0.245 -0.001 -0.097 -0.108 -0.108
 0.460  1.376  0.248  0.000 -0.095 -0.106 -0.106
 0.462  1.378  0.250  0.002 -0.094 -0.105 -0.105
 0.464  1.380  0.253  0.005 -0.091 -0.104 -0.104
 0.466  1.383  0.255  0.007 -0.090 -0.102 -0.102
 0.468  1.385  0.258  0.009 -0.088 -0.100 -0.100
 0.470  1.388  0.259  0.011 -0.087 -0.099 -0.099
 0.472  1.390  0.262  0.012 -0.084 -0.098 -0.098
 0.474  1.392  0.264  0.014 -0.083 -0.097 -0.097
 0.476  1.395  0.266  0.016 -0.081 -0.095 -0.095
 0.478  1.396  0.268  0.018 -0.080 -0.093 -0.093
 0.480  1.398  0.271  0.019 -0.077 -0.092 -0.092
 0.482  1.401  0.272  0.021 -0.076 -0.091 -0.091
 0.484  1.403  0.275  0.022 -0.074 -0.089 -0.089
 0.486  1.404  0.276  0.024 -0.073 -0.088 -0.088
 0.488  1.407  0.278  0.026 -0.070 -0.087 -0.087
 0.490  1.409  0.280  0.027 -0.069 -0.085 -0.085
 0.492  1.410  0.282  0.029 -0.067 -0.085 -0.085
 0.494  1.413  0.284  0.031 -0.066 -0.083 -0.083
 0.496  1.414  0.285  0.032 -0.063 -0.082 -0.082
 0.498  1.416  0.287  0.033 -0.062 -0.081 -0.081
 0.500  1.418  0.289  0.035 -0.060 -0.079 -0.079
 0.502  1.420  0.290  0.036 -0.058 -0.078 -0.078
 0.504  1.421  0.291  0.038 -0.056 -0.077 -0.077
 0.506  1.424  0.293  0.039 -0.055 -0.076 -0.076
 0.508  1.425  0.295  0.041 -0.053 -0.075 -0.075
 0.510  1.426  0.296  0.042 -0.052 -0.074 -0.074
 0.512  1.428  0.298  0.043 -0.050 -0.073 -0.073
 0.514  1.430  0.299  0.044 -0.049 -0.072 -0.072
 0.516  1.431  0.300  0.045 -0.047 -0.070 -0.070
 0.518  1.433  0.302  0.047 -0.046 -0.070 -0.070
 0.520  1.434  0.303  0.048 -0.044 -0.068 -0.068
 0.522  1.436  0.304  0.050 -0.043 -0.067 -0.067
 0.524  1.437  0.305  0.051 -0.041 -0.066 -0.066
 0.526  1.438  0.307  0.052 -0.039 -0.065 -0.065
 0.528  1.439  0.308  0.053 -0.039 -0.064 -0.064
 0.530  1.440  0.309  0.054 -0.037 -0.063 -0.063
 0.532  1.442  0.311  0.055 -0.036 -0.062 -0.062
 0.534  1.443  0.312  0.056 -0.035 -0.061 -0.061
 0.536  1.444  0.313  0.058 -0.033 -0.060 -0.060
 0.538  1.445  0.315  0.059 -0.032 -0.059 -0.059
 0.540  1.446  0.315  0.060 -0.032 -0.058 -0.058
 0.542  1.448  0.316  0.061 -0.030 -0.057 -0.057
 0.544  1.449  0.317  0.062 -0.029 -0.056 -0.056
 0.546  1.450  0.318  0.063 -0.029 -0.055 -0.055
 0.548  1.451  0.320  0.064 -0.028 -0.054 -0.054
 0.550  1.451  0.320  0.065 -0.026 -0.053 -0.053
 0.552  1.452  0.321  0.066 -0.026 -0.053 -0.053
 0.554  1.454  0.322  0.067 -0.025 -0.051 -0.051
 0.556  1.454  0.324  0.068 -0.024 -0.051 -0.051
 0.558  1.455  0.324  0.069 -0.023 -0.050 -0.050
 0.560  1.456  0.325  0.070 -0.023 -0.049 -0.049
 0.562  1.456  0.326  0.071 -0.022 -0.048 -0.048
 0.564  1.457  0.326  0.072 -0.022 -0.047 -0.047
 0.566  1.457  0.327  0.073 -0.021 -0.046 -0.046
 0.568  1.457  0.329  0.074 -0.021 -0.045 -0.045
 0.570  1.458  0.329  0.074 -0.020 -0.045 -0.045
 0.572  1.458  0.330  0.075 -0.019 -0.043 -0.043
 0.574  1.460  0.330  0.076 -0.019 -0.043 -0.043
 0.576  1.460  0.331  0.077 -0.019 -0.042 -0.042
 0.578  1.460  0.331  0.078 -0.019 -0.041 -0.041
 0.580  1.460  0.333  0.079 -0.018 -0.041 -0.041
 0.582  1.460  0.333  0.080 -0.018 -0.039 -0.039
 0.584  1.460  0.334  0.081 -0.017 -0.039 -0.039
 0.586  1.461  0.334  0.081 -0.017 -0.038 -0.038
 0.588  1.461  0.335  0.082 -0.017 -0.037 -0.037
 0.590  1.461  0.335  0.083 -0.016 -0.036 -0.036
 0.592  1.461  0.335  0.084 -0.016 -0.035 -0.035
 0.594  1.460  0.336  0.084 -0.015 -0.035 -0.035
 0.596  1.460  0.336  0.084 -0.015 -0.034 -0.034
 0.598  1.460  0.336  0.085 -0.015 -0.033 -0.033
 0.600  1.460  0.336  0.085 -0.015 -0.033 -0.033
 0.602  1.460  0.338  0.086 -0.015 -0.032 -0.032
 0.604  1.460  0.338  0.087 -0.014 -0.031 -0.031
 0.606  1.458  0.338  0.087 -0.014 -0.030 -0.030
 0.608  1.458  0.338  0.088 -0.013 -0.030 -0.030
 0.610  1.458  0.338  0.088 -0.013 -0.029 -0.029
 0.612  1.457  0.338  0.089 -0.012 -0.028 -0.028
 0.614  1.457  0.338  0.089 -0.012 -0.027 -0.027
 0.616  1.456  0.338  0.090 -0.012 -0.026 -0.026
 0.618  1.456  0.338  0.090 -0.012 -0.026 -0.026
 0.620  1.455  0.338  0.091 -0.012 -0.025 -0.025
 0.622  1.454  0.338  0.091 -0.011 -0.024 -0.024
 0.624  1.454  0.336  0.091 -0.011 -0.024 -0.024
 0.626  1.452  0.336  0.092 -0.011 -0.023 -0.023
 0.628  1.452  0.336  0.092 -0.010 -0.022 -0.022
 0.630  1.451  0.336  0.092 -0.010 -0.021 -0.021
 0.632  1.451  0.335  0.093 -0.010 -0.020 -0.020
 0.634  1.450  0.335  0.093 -0.009 -0.020 -0.020
 0.636  1.450  0.334  0.093 -0.009 -0.019 -0.019
 0.638  1.449  0.334  0.093 -0.009 -0.018 -0.018
 0.640  1.449  0.334  0.093 -0.009 -0.018 -0.018
 0.642  1.448  0.333  0.094 -0.009 -0.017 -0.017
 0.644  1.448  0.333  0.094 -0.008 -0.016 -0.016
 0.646  1.448  0.331  0.094 -0.008 -0.016 -0.016
 0.648  1.446  0.330  0.094 -0.008 -0.015 -0.015
 0.650  1.446  0.330  0.094 -0.007 -0.014 -0.014
 0.652  1.446  0.329  0.094 -0.007 -0.013 -0.013
 0.654  1.445  0.327  0.094 -0.007 -0.012 -0.012
 0.656  1.445  0.327  0.094 -0.007 -0.012 -0.012
 0.658  1.445  0.326  0.094 -0.006 -0.012 -0.012
 0.660  1.444  0.325  0.094 -0.006 -0.011 -0.011
 0.662  1.444  0.325  0.094 -0.006 -0.010 -0.010
 0.664  1.444  0.324  0.094 -0.006 -0.010 -0.010
 0.666  1.444  0.322  0.094 -0.006 -0.009 -0.009
 0.668  1.444  0.322  0.093 -0.005 -0.009 -0.009
 0.670  1.443  0.321  0.093 -0.005 -0.008 -0.008
 0.672  1.443  0.320  0.093 -0.005 -0.007 -0.007
 0.674  1.443  0.318  0.093 -0.005 -0.007 -0.007
 0.676  1.443  0.318  0.092 -0.005 -0.007 -0.007
 0.678  1.443  0.317  0.092 -0.005 -0.006 -0.006
 0.680  1.443  0.316  0.092 -0.005 -0.005 -0.005
 0.682  1.443  0.316  0.091 -0.005 -0.005 -0.005
 0.684  1.443  0.315  0.091 -0.005 -0.005 -0.005
 0.686  1.443  0.313  0.090 -0.005 -0.004 -0.004
 0.688  1.443  0.313  0.090 -0.005 -0.004 -0.004
 0.690  1.443  0.312  0.089 -0.005 -0.003 -0.003
 0.692  1.443  0.311  0.089 -0.005 -0.003 -0.003
 0.694  1.443  0.311  0.088 -0.005 -0.003 -0.003
 0.696  1.443  0.309  0.088 -0.006 -0.003 -0.003
 0.698  1.443  0.308  0.087 -0.006 -0.002 -0.002
 0.700  1.443  0.308  0.087 -0.006 -0.001 -0.001
 0.702  1.443  0.307  0.086 -0.006 -0.001 -0.001
 0.704  1.443  0.305  0.085 -0.006 -0.001 -0.001
 0.706  1.443  0.305  0.085 -0.007 -0.001 -0.001
 0.708  1.443  0.304  0.084 -0.007 -0.001 -0.001
 0.710  1.444  0.303  0.084 -0.007  0.000  0.000
 0.712  1.444  0.302  0.083 -0.008  0.000  0.000
 0.714  1.444  0.302  0.082 -0.008  0.001  0.001
 0.716  1.444  0.300  0.081 -0.008  0.001  0.001
 0.718  1.444  0.299  0.080 -0.009  0.001  0.001
 0.720  1.444  0.298  0.080 -0.009  0.001  0.001
 0.722  1.444  0.298  0.079 -0.009  0.002  0.002
 0.724  1.445  0.296  0.078 -0.009  0.002  0.002
 0.726  1.445  0.295  0.077 -0.009  0.003  0.003
 0.728  1.445  0.295  0.077 -0.009  0.003  0.003
 0.730  1.445  0.295  0.077 -0.009  0.004  0.004
 0.732  1.446  0.295  0.077 -0.009  0.005  0.005
 0.734  1.446  0.295  0.077 -0.009  0.006  0.006
 0.736  1.446  0.295  0.077 -0.008  0.007  0.007
 0.738  1.448  0.295  0.078 -0.007  0.008  0.008
 0.740  1.448  0.296  0.078 -0.007  0.009  0.009
 0.742  1.448  0.298  0.079 -0.006  0.010  0.010
 0.744  1.449  0.299  0.080 -0.005  0.011  0.011
 0.746  1.449  0.300  0.081 -0.005  0.013  0.013
 0.748  1.449  0.302  0.083 -0.004  0.014  0.014
 0.750  1.450  0.303  0.084 -0.002  0.016  0.016
 0.752  1.450  0.305  0.085 -0.002  0.018  0.018
 0.754  1.450  0.307  0.087 -0.000  0.019  0.019
 0.756  1.450  0.309  0.088  0.001  0.021  0.021
 0.758  1.451  0.312  0.090  0.002  0.023  0.023
 0.760  1.451  0.315  0.093  0.003  0.025  0.025
 0.762  1.452  0.318  0.095  0.005  0.027  0.027
 0.764  1.452  0.321  0.097  0.006  0.029  0.029
 0.766  1.454  0.325  0.099  0.008  0.031  0.031
 0.768  1.454  0.329  0.102  0.010  0.034  0.034
 0.770  1.455  0.333  0.105  0.012  0.035  0.035
 0.772  1.456  0.336  0.108  0.013  0.038  0.038
 0.774  1.457  0.342  0.112  0.015  0.041  0.041
 0.776  1.458  0.347  0.115  0.018  0.043  0.043
 0.778  1.461  0.352  0.119  0.020  0.046  0.046
 0.780  1.462  0.357  0.123  0.022  0.049  0.049
 0.782  1.464  0.362  0.126  0.025  0.052  0.052
 0.784  1.466  0.367  0.130  0.027  0.055  0.055
 0.786  1.468  0.374  0.135  0.029  0.058  0.058
 0.788  1.470  0.379  0.138  0.032  0.061  0.061
 0.790  1.473  0.385  0.143  0.035  0.064  0.064
 0.792  1.475  0.392  0.147  0.037  0.066  0.066
 0.794  1.478  0.398  0.151  0.039  0.070  0.070
 0.796  1.481  0.403  0.156  0.042  0.072  0.072
 0.798  1.484  0.410  0.159  0.045  0.075  0.075
 0.800  1.487  0.416  0.164  0.048  0.078  0.078
 0.802  1.491  0.421  0.168  0.051  0.081  0.081
 0.804  1.493  0.426  0.171  0.053  0.083  0.083
 0.806  1.497  0.432  0.176  0.056  0.086  0.086
 0.808  1.502  0.437  0.179  0.059  0.088  0.088
