# IsPeriodic    : True
# Period        : 0.571264 days
# Normalization : <g_mag>=0
# 
# Phase u_mag  g_mag  r_mag  i_mag  z_mag  y_mag
 0.000  0.606 -0.620 -0.532 -0.493 -0.420 -0.420
 0.002  0.606 -0.620 -0.532 -0.493 -0.420 -0.420
 0.004  0.606 -0.619 -0.531 -0.492 -0.420 -0.420
 0.006  0.607 -0.618 -0.531 -0.491 -0.419 -0.419
 0.008  0.608 -0.616 -0.531 -0.490 -0.419 -0.419
 0.010  0.609 -0.613 -0.530 -0.488 -0.417 -0.417
 0.012  0.610 -0.610 -0.529 -0.485 -0.417 -0.417
 0.014  0.612 -0.606 -0.529 -0.482 -0.416 -0.416
 0.016  0.613 -0.602 -0.528 -0.480 -0.414 -0.414
 0.018  0.615 -0.598 -0.527 -0.476 -0.413 -0.413
 0.020  0.617 -0.593 -0.526 -0.473 -0.412 -0.412
 0.022  0.620 -0.589 -0.525 -0.469 -0.410 -0.410
 0.024  0.622 -0.585 -0.524 -0.465 -0.408 -0.408
 0.026  0.626 -0.579 -0.523 -0.462 -0.406 -0.406
 0.028  0.628 -0.574 -0.522 -0.459 -0.404 -0.404
 0.030  0.632 -0.569 -0.521 -0.455 -0.402 -0.402
 0.032  0.636 -0.564 -0.519 -0.452 -0.399 -0.399
 0.034  0.640 -0.559 -0.518 -0.449 -0.396 -0.396
 0.036  0.644 -0.554 -0.516 -0.446 -0.394 -0.394
 0.038  0.648 -0.549 -0.514 -0.443 -0.391 -0.391
 0.040  0.654 -0.543 -0.513 -0.440 -0.388 -0.388
 0.042  0.658 -0.538 -0.511 -0.437 -0.386 -0.386
 0.044  0.663 -0.534 -0.510 -0.434 -0.383 -0.383
 0.046  0.669 -0.529 -0.508 -0.431 -0.381 -0.381
 0.048  0.674 -0.524 -0.506 -0.428 -0.378 -0.378
 0.050  0.680 -0.518 -0.504 -0.425 -0.376 -0.376
 0.052  0.685 -0.513 -0.502 -0.423 -0.373 -0.373
 0.054  0.691 -0.508 -0.499 -0.420 -0.371 -0.371
 0.056  0.696 -0.503 -0.497 -0.417 -0.369 -0.369
 0.058  0.703 -0.497 -0.494 -0.414 -0.367 -0.367
 0.060  0.708 -0.492 -0.492 -0.412 -0.364 -0.364
 0.062  0.714 -0.487 -0.490 -0.409 -0.362 -0.362
 0.064  0.719 -0.482 -0.487 -0.406 -0.360 -0.360
 0.066  0.725 -0.477 -0.484 -0.404 -0.359 -0.359
 0.068  0.731 -0.472 -0.481 -0.402 -0.357 -0.357
 0.070  0.736 -0.467 -0.479 -0.399 -0.355 -0.355
 0.072  0.741 -0.461 -0.476 -0.397 -0.353 -0.353
 0.074  0.746 -0.456 -0.473 -0.394 -0.351 -0.351
 0.076  0.752 -0.450 -0.471 -0.392 -0.349 -0.349
 0.078  0.756 -0.445 -0.467 -0.390 -0.348 -0.348
 0.080  0.761 -0.440 -0.465 -0.388 -0.346 -0.346
 0.082  0.766 -0.434 -0.462 -0.386 -0.345 -0.345
 0.084  0.771 -0.429 -0.459 -0.384 -0.343 -0.343
 0.086  0.775 -0.424 -0.456 -0.382 -0.342 -0.342
 0.088  0.779 -0.419 -0.453 -0.380 -0.341 -0.341
 0.090  0.784 -0.413 -0.450 -0.377 -0.339 -0.339
 0.092  0.789 -0.408 -0.447 -0.375 -0.338 -0.338
 0.094  0.793 -0.403 -0.444 -0.374 -0.337 -0.337
 0.096  0.798 -0.397 -0.442 -0.372 -0.336 -0.336
 0.098  0.802 -0.392 -0.438 -0.369 -0.335 -0.335
 0.100  0.807 -0.387 -0.436 -0.367 -0.335 -0.335
 0.102  0.811 -0.381 -0.433 -0.366 -0.334 -0.334
 0.104  0.814 -0.376 -0.430 -0.364 -0.333 -0.333
 0.106  0.819 -0.371 -0.427 -0.362 -0.332 -0.332
 0.108  0.823 -0.367 -0.424 -0.360 -0.331 -0.331
 0.110  0.827 -0.362 -0.421 -0.358 -0.331 -0.331
 0.112  0.830 -0.357 -0.419 -0.356 -0.330 -0.330
 0.114  0.835 -0.352 -0.415 -0.354 -0.329 -0.329
 0.116  0.838 -0.347 -0.413 -0.352 -0.328 -0.328
 0.118  0.842 -0.342 -0.410 -0.350 -0.328 -0.328
 0.120  0.845 -0.338 -0.407 -0.348 -0.327 -0.327
 0.122  0.849 -0.333 -0.404 -0.346 -0.326 -0.326
 0.124  0.852 -0.328 -0.401 -0.345 -0.325 -0.325
 0.126  0.856 -0.324 -0.399 -0.343 -0.324 -0.324
 0.128  0.859 -0.319 -0.395 -0.340 -0.323 -0.323
 0.130  0.863 -0.315 -0.393 -0.339 -0.322 -0.322
 0.132  0.866 -0.311 -0.390 -0.337 -0.321 -0.321
 0.134  0.870 -0.306 -0.387 -0.335 -0.320 -0.320
 0.136  0.874 -0.302 -0.384 -0.333 -0.319 -0.319
 0.138  0.877 -0.297 -0.381 -0.332 -0.318 -0.318
 0.140  0.881 -0.293 -0.378 -0.329 -0.317 -0.317
 0.142  0.884 -0.289 -0.375 -0.328 -0.316 -0.316
 0.144  0.888 -0.285 -0.372 -0.326 -0.315 -0.315
 0.146  0.891 -0.280 -0.370 -0.324 -0.313 -0.313
 0.148  0.895 -0.276 -0.367 -0.323 -0.312 -0.312
 0.150  0.898 -0.272 -0.364 -0.320 -0.311 -0.311
 0.152  0.902 -0.268 -0.362 -0.319 -0.310 -0.310
 0.154  0.905 -0.264 -0.359 -0.317 -0.308 -0.308
 0.156  0.909 -0.261 -0.356 -0.315 -0.307 -0.307
 0.158  0.912 -0.257 -0.353 -0.314 -0.306 -0.306
 0.160  0.916 -0.254 -0.351 -0.311 -0.304 -0.304
 0.162  0.919 -0.250 -0.348 -0.310 -0.303 -0.303
 0.164  0.923 -0.246 -0.345 -0.308 -0.301 -0.301
 0.166  0.926 -0.242 -0.343 -0.306 -0.300 -0.300
 0.168  0.931 -0.238 -0.341 -0.305 -0.298 -0.298
 0.170  0.934 -0.234 -0.338 -0.303 -0.297 -0.297
 0.172  0.938 -0.231 -0.335 -0.301 -0.295 -0.295
 0.174  0.941 -0.227 -0.333 -0.299 -0.293 -0.293
 0.176  0.945 -0.223 -0.331 -0.298 -0.292 -0.292
 0.178  0.948 -0.219 -0.329 -0.296 -0.290 -0.290
 0.180  0.952 -0.215 -0.326 -0.295 -0.288 -0.288
 0.182  0.955 -0.211 -0.324 -0.293 -0.287 -0.287
 0.184  0.959 -0.208 -0.321 -0.291 -0.285 -0.285
 0.186  0.962 -0.205 -0.319 -0.290 -0.283 -0.283
 0.188  0.966 -0.201 -0.317 -0.288 -0.282 -0.282
 0.190  0.970 -0.197 -0.315 -0.287 -0.280 -0.280
 0.192  0.973 -0.193 -0.312 -0.285 -0.278 -0.278
 0.194  0.977 -0.189 -0.310 -0.284 -0.277 -0.277
 0.196  0.980 -0.185 -0.308 -0.282 -0.275 -0.275
 0.198  0.984 -0.181 -0.306 -0.280 -0.273 -0.273
 0.200  0.987 -0.177 -0.304 -0.279 -0.272 -0.272
 0.202  0.991 -0.173 -0.302 -0.277 -0.271 -0.271
 0.204  0.994 -0.169 -0.300 -0.276 -0.269 -0.269
 0.206  0.998 -0.165 -0.298 -0.275 -0.268 -0.268
 0.208  1.001 -0.161 -0.297 -0.273 -0.266 -0.266
 0.210  1.005 -0.157 -0.295 -0.271 -0.265 -0.265
 0.212  1.008 -0.154 -0.293 -0.270 -0.263 -0.263
 0.214  1.012 -0.150 -0.291 -0.269 -0.262 -0.262
 0.216  1.015 -0.146 -0.289 -0.267 -0.261 -0.261
 0.218  1.018 -0.142 -0.287 -0.266 -0.259 -0.259
 0.220  1.022 -0.138 -0.285 -0.265 -0.258 -0.258
 0.222  1.025 -0.134 -0.284 -0.263 -0.257 -0.257
 0.224  1.029 -0.130 -0.282 -0.262 -0.255 -0.255
 0.226  1.031 -0.126 -0.280 -0.260 -0.254 -0.254
 0.228  1.035 -0.121 -0.279 -0.259 -0.253 -0.253
 0.230  1.038 -0.117 -0.277 -0.258 -0.252 -0.252
 0.232  1.041 -0.113 -0.275 -0.257 -0.250 -0.250
 0.234  1.044 -0.109 -0.273 -0.255 -0.249 -0.249
 0.236  1.048 -0.105 -0.271 -0.254 -0.248 -0.248
 0.238  1.050 -0.101 -0.269 -0.252 -0.247 -0.247
 0.240  1.054 -0.098 -0.267 -0.251 -0.246 -0.246
 0.242  1.056 -0.094 -0.266 -0.250 -0.245 -0.245
 0.244  1.060 -0.090 -0.264 -0.249 -0.244 -0.244
 0.246  1.063 -0.086 -0.262 -0.247 -0.243 -0.243
 0.248  1.066 -0.082 -0.260 -0.246 -0.241 -0.241
 0.250  1.069 -0.079 -0.258 -0.245 -0.240 -0.240
 0.252  1.071 -0.075 -0.256 -0.243 -0.239 -0.239
 0.254  1.075 -0.071 -0.254 -0.242 -0.238 -0.238
 0.256  1.077 -0.068 -0.252 -0.241 -0.237 -0.237
 0.258  1.080 -0.064 -0.250 -0.240 -0.236 -0.236
 0.260  1.084 -0.060 -0.248 -0.238 -0.235 -0.235
 0.262  1.086 -0.057 -0.246 -0.237 -0.234 -0.234
 0.264  1.089 -0.053 -0.244 -0.236 -0.233 -0.233
 0.266  1.091 -0.050 -0.243 -0.235 -0.232 -0.232
 0.268  1.095 -0.046 -0.241 -0.233 -0.231 -0.231
 0.270  1.098 -0.044 -0.239 -0.232 -0.230 -0.230
 0.272  1.100 -0.041 -0.237 -0.231 -0.229 -0.229
 0.274  1.103 -0.037 -0.235 -0.229 -0.228 -0.228
 0.276  1.106 -0.034 -0.233 -0.228 -0.226 -0.226
 0.278  1.109 -0.031 -0.231 -0.227 -0.225 -0.225
 0.280  1.112 -0.028 -0.229 -0.226 -0.224 -0.224
 0.282  1.114 -0.025 -0.227 -0.224 -0.223 -0.223
 0.284  1.117 -0.021 -0.225 -0.223 -0.222 -0.222
 0.286  1.120 -0.018 -0.223 -0.222 -0.221 -0.221
 0.288  1.123 -0.015 -0.221 -0.220 -0.220 -0.220
 0.290  1.126 -0.012 -0.219 -0.219 -0.218 -0.218
 0.292  1.128 -0.010 -0.217 -0.218 -0.217 -0.217
 0.294  1.131 -0.007 -0.215 -0.217 -0.216 -0.216
 0.296  1.134 -0.004 -0.213 -0.216 -0.215 -0.215
 0.298  1.137 -0.001 -0.211 -0.214 -0.214 -0.214
 0.300  1.140  0.002 -0.209 -0.213 -0.212 -0.212
 0.302  1.142  0.004 -0.207 -0.211 -0.211 -0.211
 0.304  1.145  0.007 -0.205 -0.210 -0.209 -0.209
 0.306  1.148  0.009 -0.203 -0.209 -0.208 -0.208
 0.308  1.151  0.012 -0.201 -0.208 -0.207 -0.207
 0.310  1.153  0.014 -0.199 -0.207 -0.206 -0.206
 0.312  1.156  0.017 -0.197 -0.205 -0.205 -0.205
 0.314  1.159  0.020 -0.195 -0.204 -0.203 -0.203
 0.316  1.161  0.022 -0.193 -0.202 -0.202 -0.202
 0.318  1.165  0.025 -0.192 -0.201 -0.201 -0.201
 0.320  1.167  0.028 -0.190 -0.200 -0.199 -0.199
 0.322  1.170  0.031 -0.188 -0.199 -0.198 -0.198
 0.324  1.173  0.033 -0.186 -0.198 -0.197 -0.197
 0.326  1.175  0.036 -0.184 -0.196 -0.196 -0.196
 0.328  1.178  0.039 -0.182 -0.195 -0.194 -0.194
 0.330  1.181  0.042 -0.180 -0.193 -0.193 -0.193
 0.332  1.184  0.045 -0.178 -0.192 -0.192 -0.192
 0.334  1.187  0.047 -0.176 -0.191 -0.190 -0.190
 0.336  1.189  0.050 -0.174 -0.190 -0.189 -0.189
 0.338  1.192  0.053 -0.172 -0.188 -0.188 -0.188
 0.340  1.195  0.056 -0.171 -0.187 -0.187 -0.187
 0.342  1.197  0.059 -0.169 -0.186 -0.185 -0.185
 0.344  1.200  0.062 -0.167 -0.184 -0.184 -0.184
 0.346  1.202  0.064 -0.165 -0.183 -0.183 -0.183
 0.348  1.206  0.067 -0.163 -0.182 -0.182 -0.182
 0.350  1.209  0.070 -0.161 -0.181 -0.180 -0.180
 0.352  1.211  0.073 -0.159 -0.179 -0.179 -0.179
 0.354  1.214  0.076 -0.157 -0.178 -0.178 -0.178
 0.356  1.216  0.079 -0.155 -0.177 -0.177 -0.177
 0.358  1.218  0.082 -0.154 -0.175 -0.175 -0.175
 0.360  1.221  0.085 -0.152 -0.174 -0.174 -0.174
 0.362  1.223  0.088 -0.150 -0.173 -0.173 -0.173
 0.364  1.226  0.091 -0.149 -0.171 -0.172 -0.172
 0.366  1.229  0.094 -0.147 -0.170 -0.171 -0.171
 0.368  1.231  0.097 -0.145 -0.169 -0.169 -0.169
 0.370  1.234  0.100 -0.143 -0.168 -0.168 -0.168
 0.372  1.236  0.103 -0.141 -0.166 -0.167 -0.167
 0.374  1.238  0.106 -0.139 -0.165 -0.166 -0.166
 0.376  1.241  0.109 -0.138 -0.163 -0.164 -0.164
 0.378  1.243  0.112 -0.136 -0.162 -0.163 -0.163
 0.380  1.245  0.115 -0.135 -0.161 -0.162 -0.162
 0.382  1.248  0.117 -0.133 -0.159 -0.161 -0.161
 0.384  1.250  0.120 -0.131 -0.158 -0.160 -0.160
 0.386  1.252  0.123 -0.129 -0.157 -0.158 -0.158
 0.388  1.255  0.126 -0.128 -0.155 -0.157 -0.157
 0.390  1.257  0.129 -0.126 -0.154 -0.156 -0.156
 0.392  1.259  0.132 -0.124 -0.153 -0.155 -0.155
 0.394  1.262  0.135 -0.122 -0.152 -0.154 -0.154
 0.396  1.264  0.138 -0.121 -0.150 -0.153 -0.153
 0.398  1.266  0.140 -0.119 -0.149 -0.151 -0.151
 0.400  1.268  0.143 -0.118 -0.148 -0.150 -0.150
 0.402  1.271  0.146 -0.116 -0.146 -0.149 -0.149
 0.404  1.272  0.148 -0.114 -0.145 -0.148 -0.148
 0.406  1.275  0.151 -0.113 -0.144 -0.147 -0.147
 0.408  1.277  0.153 -0.111 -0.143 -0.146 -0.146
 0.410  1.279  0.156 -0.110 -0.142 -0.144 -0.144
 0.412  1.281  0.158 -0.108 -0.140 -0.143 -0.143
 0.414  1.284  0.161 -0.107 -0.139 -0.142 -0.142
 0.416  1.285  0.163 -0.105 -0.138 -0.140 -0.140
 0.418  1.287  0.166 -0.104 -0.136 -0.139 -0.139
 0.420  1.290  0.168 -0.102 -0.135 -0.138 -0.138
 0.422  1.292  0.170 -0.100 -0.134 -0.137 -0.137
 0.424  1.293  0.171 -0.099 -0.133 -0.136 -0.136
 0.426  1.296  0.174 -0.097 -0.132 -0.135 -0.135
 0.428  1.298  0.176 -0.096 -0.131 -0.134 -0.134
 0.430  1.299  0.178 -0.095 -0.130 -0.133 -0.133
 0.432  1.301  0.180 -0.093 -0.128 -0.132 -0.132
 0.434  1.303  0.182 -0.091 -0.127 -0.131 -0.131
 0.436  1.306  0.184 -0.090 -0.126 -0.129 -0.129
 0.438  1.307  0.186 -0.089 -0.125 -0.128 -0.128
 0.440  1.309  0.188 -0.087 -0.123 -0.127 -0.127
 0.442  1.311  0.190 -0.086 -0.122 -0.126 -0.126
 0.444  1.313  0.192 -0.085 -0.121 -0.125 -0.125
 0.446  1.314  0.194 -0.083 -0.120 -0.124 -0.124
 0.448  1.316  0.196 -0.081 -0.119 -0.123 -0.123
 0.450  1.318  0.197 -0.080 -0.117 -0.122 -0.122
 0.452  1.320  0.199 -0.079 -0.116 -0.121 -0.121
 0.454  1.321  0.201 -0.077 -0.115 -0.120 -0.120
 0.456  1.324  0.202 -0.076 -0.114 -0.119 -0.119
 0.458  1.325  0.204 -0.075 -0.113 -0.118 -0.118
 0.460  1.326  0.206 -0.073 -0.112 -0.117 -0.117
 0.462  1.328  0.207 -0.072 -0.111 -0.116 -0.116
 0.464  1.330  0.209 -0.071 -0.110 -0.115 -0.115
 0.466  1.332  0.210 -0.069 -0.108 -0.114 -0.114
 0.468  1.333  0.212 -0.067 -0.107 -0.113 -0.113
 0.470  1.335  0.213 -0.066 -0.106 -0.112 -0.112
 0.472  1.337  0.215 -0.064 -0.105 -0.111 -0.111
 0.474  1.339  0.216 -0.063 -0.104 -0.110 -0.110
 0.476  1.340  0.218 -0.062 -0.103 -0.109 -0.109
 0.478  1.341  0.219 -0.060 -0.102 -0.108 -0.108
 0.480  1.343  0.221 -0.059 -0.101 -0.107 -0.107
 0.482  1.345  0.222 -0.058 -0.100 -0.106 -0.106
 0.484  1.347  0.223 -0.056 -0.098 -0.105 -0.105
 0.486  1.347  0.224 -0.055 -0.097 -0.104 -0.104
 0.488  1.349  0.225 -0.054 -0.096 -0.103 -0.103
 0.490  1.351  0.226 -0.052 -0.095 -0.102 -0.102
 0.492  1.352  0.227 -0.051 -0.094 -0.101 -0.101
 0.494  1.354  0.228 -0.050 -0.093 -0.100 -0.100
 0.496  1.354  0.229 -0.048 -0.092 -0.099 -0.099
 0.498  1.356  0.230 -0.047 -0.091 -0.098 -0.098
 0.500  1.357  0.231 -0.046 -0.090 -0.098 -0.098
 0.502  1.359  0.233 -0.045 -0.089 -0.097 -0.097
 0.504  1.360  0.234 -0.044 -0.088 -0.096 -0.096
 0.506  1.361  0.235 -0.042 -0.087 -0.095 -0.095
 0.508  1.362  0.236 -0.041 -0.086 -0.094 -0.094
 0.510  1.363  0.236 -0.040 -0.085 -0.093 -0.093
 0.512  1.365  0.237 -0.038 -0.084 -0.092 -0.092
 0.514  1.366  0.238 -0.037 -0.083 -0.092 -0.092
 0.516  1.367  0.239 -0.036 -0.082 -0.091 -0.091
 0.518  1.368  0.240 -0.035 -0.081 -0.090 -0.090
 0.520  1.369  0.241 -0.033 -0.079 -0.089 -0.089
 0.522  1.370  0.241 -0.032 -0.079 -0.088 -0.088
 0.524  1.371  0.242 -0.031 -0.078 -0.088 -0.088
 0.526  1.372  0.243 -0.030 -0.077 -0.087 -0.087
 0.528  1.373  0.244 -0.029 -0.076 -0.086 -0.086
 0.530  1.374  0.244 -0.028 -0.075 -0.085 -0.085
 0.532  1.375  0.245 -0.027 -0.074 -0.085 -0.085
 0.534  1.375  0.246 -0.025 -0.074 -0.084 -0.084
 0.536  1.376  0.246 -0.025 -0.073 -0.083 -0.083
 0.538  1.377  0.247 -0.023 -0.072 -0.082 -0.082
 0.540  1.378  0.247 -0.023 -0.072 -0.082 -0.082
 0.542  1.379  0.248 -0.021 -0.071 -0.081 -0.081
 0.544  1.380  0.248 -0.021 -0.070 -0.080 -0.080
 0.546  1.381  0.249 -0.019 -0.069 -0.079 -0.079
 0.548  1.382  0.249 -0.019 -0.069 -0.079 -0.079
 0.550  1.382  0.250 -0.017 -0.068 -0.078 -0.078
 0.552  1.382  0.250 -0.017 -0.068 -0.077 -0.077
 0.554  1.383  0.250 -0.015 -0.067 -0.077 -0.077
 0.556  1.383  0.251 -0.015 -0.067 -0.076 -0.076
 0.558  1.384  0.251 -0.014 -0.066 -0.075 -0.075
 0.560  1.385  0.252 -0.013 -0.066 -0.074 -0.074
 0.562  1.385  0.252 -0.012 -0.066 -0.073 -0.073
 0.564  1.386  0.252 -0.011 -0.065 -0.073 -0.073
 0.566  1.386  0.252 -0.010 -0.065 -0.072 -0.072
 0.568  1.386  0.253 -0.009 -0.065 -0.071 -0.071
 0.570  1.387  0.253 -0.009 -0.064 -0.071 -0.071
 0.572  1.387  0.253 -0.008 -0.064 -0.070 -0.070
 0.574  1.388  0.253 -0.007 -0.064 -0.069 -0.069
 0.576  1.388  0.253 -0.006 -0.064 -0.069 -0.069
 0.578  1.388  0.253 -0.005 -0.064 -0.068 -0.068
 0.580  1.388  0.253 -0.005 -0.064 -0.067 -0.067
 0.582  1.388  0.253 -0.004 -0.064 -0.067 -0.067
 0.584  1.388  0.253 -0.003 -0.064 -0.066 -0.066
 0.586  1.389  0.253 -0.003 -0.064 -0.066 -0.066
 0.588  1.389  0.253 -0.002 -0.064 -0.065 -0.065
 0.590  1.389  0.253 -0.001 -0.064 -0.064 -0.064
 0.592  1.389  0.253 -0.000 -0.064 -0.064 -0.064
 0.594  1.388  0.253  0.000 -0.064 -0.063 -0.063
 0.596  1.388  0.253  0.000 -0.064 -0.063 -0.063
 0.598  1.388  0.253  0.001 -0.063 -0.062 -0.062
 0.600  1.388  0.253  0.002 -0.063 -0.061 -0.061
 0.602  1.388  0.253  0.002 -0.063 -0.061 -0.061
 0.604  1.388  0.253  0.002 -0.063 -0.060 -0.060
 0.606  1.387  0.253  0.003 -0.063 -0.060 -0.060
 0.608  1.387  0.253  0.003 -0.063 -0.059 -0.059
 0.610  1.387  0.252  0.004 -0.063 -0.059 -0.059
 0.612  1.386  0.252  0.004 -0.063 -0.058 -0.058
 0.614  1.386  0.252  0.004 -0.063 -0.058 -0.058
 0.616  1.385  0.252  0.004 -0.063 -0.057 -0.057
 0.618  1.385  0.252  0.005 -0.063 -0.056 -0.056
 0.620  1.384  0.252  0.005 -0.062 -0.056 -0.056
 0.622  1.383  0.252  0.006 -0.062 -0.055 -0.055
 0.624  1.383  0.252  0.006 -0.062 -0.055 -0.055
 0.626  1.382  0.252  0.006 -0.062 -0.054 -0.054
 0.628  1.382  0.252  0.006 -0.062 -0.054 -0.054
 0.630  1.382  0.251  0.006 -0.061 -0.053 -0.053
 0.632  1.382  0.251  0.006 -0.061 -0.052 -0.052
 0.634  1.381  0.251  0.006 -0.061 -0.052 -0.052
 0.636  1.381  0.251  0.006 -0.061 -0.051 -0.051
 0.638  1.380  0.251  0.006 -0.060 -0.051 -0.051
 0.640  1.380  0.251  0.006 -0.059 -0.050 -0.050
 0.642  1.379  0.251  0.006 -0.059 -0.049 -0.049
 0.644  1.379  0.251  0.006 -0.059 -0.049 -0.049
 0.646  1.379  0.250  0.006 -0.059 -0.048 -0.048
 0.648  1.378  0.250  0.006 -0.058 -0.048 -0.048
 0.650  1.378  0.250  0.006 -0.058 -0.047 -0.047
 0.652  1.378  0.250  0.006 -0.057 -0.046 -0.046
 0.654  1.377  0.250  0.007 -0.057 -0.046 -0.046
 0.656  1.377  0.250  0.007 -0.057 -0.045 -0.045
 0.658  1.377  0.249  0.007 -0.056 -0.045 -0.045
 0.660  1.376  0.249  0.007 -0.056 -0.044 -0.044
 0.662  1.376  0.249  0.008 -0.056 -0.043 -0.043
 0.664  1.376  0.249  0.008 -0.055 -0.043 -0.043
 0.666  1.376  0.249  0.008 -0.055 -0.042 -0.042
 0.668  1.376  0.249  0.008 -0.055 -0.042 -0.042
 0.670  1.375  0.249  0.009 -0.054 -0.041 -0.041
 0.672  1.375  0.249  0.010 -0.054 -0.040 -0.040
 0.674  1.375  0.249  0.010 -0.054 -0.040 -0.040
 0.676  1.375  0.249  0.010 -0.054 -0.039 -0.039
 0.678  1.375  0.249  0.011 -0.053 -0.038 -0.038
 0.680  1.375  0.250  0.012 -0.053 -0.038 -0.038
 0.682  1.375  0.250  0.012 -0.053 -0.037 -0.037
 0.684  1.375  0.250  0.013 -0.053 -0.037 -0.037
 0.686  1.375  0.251  0.014 -0.053 -0.036 -0.036
 0.688  1.375  0.251  0.014 -0.053 -0.035 -0.035
 0.690  1.375  0.252  0.016 -0.053 -0.035 -0.035
 0.692  1.375  0.252  0.016 -0.053 -0.034 -0.034
 0.694  1.375  0.253  0.017 -0.053 -0.033 -0.033
 0.696  1.375  0.254  0.018 -0.053 -0.033 -0.033
 0.698  1.375  0.254  0.019 -0.053 -0.032 -0.032
 0.700  1.375  0.255  0.020 -0.053 -0.031 -0.031
 0.702  1.375  0.256  0.021 -0.053 -0.030 -0.030
 0.704  1.375  0.257  0.022 -0.053 -0.030 -0.030
 0.706  1.375  0.258  0.023 -0.053 -0.029 -0.029
 0.708  1.375  0.259  0.024 -0.053 -0.028 -0.028
 0.710  1.376  0.260  0.025 -0.054 -0.028 -0.028
 0.712  1.376  0.261  0.026 -0.054 -0.027 -0.027
 0.714  1.376  0.262  0.028 -0.054 -0.026 -0.026
 0.716  1.376  0.263  0.029 -0.055 -0.025 -0.025
 0.718  1.376  0.264  0.031 -0.055 -0.024 -0.024
 0.720  1.376  0.266  0.032 -0.055 -0.024 -0.024
 0.722  1.376  0.267  0.033 -0.056 -0.023 -0.023
 0.724  1.377  0.268  0.035 -0.056 -0.022 -0.022
 0.726  1.377  0.270  0.037 -0.057 -0.021 -0.021
 0.728  1.377  0.271  0.038 -0.057 -0.021 -0.021
 0.730  1.377  0.273  0.040 -0.057 -0.020 -0.020
 0.732  1.378  0.274  0.041 -0.057 -0.019 -0.019
 0.734  1.378  0.276  0.043 -0.058 -0.018 -0.018
 0.736  1.378  0.278  0.045 -0.058 -0.017 -0.017
 0.738  1.379  0.279  0.047 -0.058 -0.017 -0.017
 0.740  1.379  0.280  0.049 -0.058 -0.016 -0.016
 0.742  1.379  0.282  0.051 -0.058 -0.015 -0.015
 0.744  1.380  0.283  0.053 -0.058 -0.014 -0.014
 0.746  1.380  0.285  0.056 -0.057 -0.013 -0.013
 0.748  1.380  0.287  0.058 -0.057 -0.012 -0.012
 0.750  1.381  0.289  0.060 -0.057 -0.011 -0.011
 0.752  1.381  0.291  0.063 -0.056 -0.010 -0.010
 0.754  1.381  0.293  0.065 -0.055 -0.009 -0.009
 0.756  1.381  0.295  0.068 -0.054 -0.008 -0.008
 0.758  1.382  0.297  0.070 -0.053 -0.007 -0.007
 0.760  1.382  0.300  0.072 -0.052 -0.005 -0.005
 0.762  1.382  0.302  0.075 -0.050 -0.004 -0.004
 0.764  1.382  0.304  0.078 -0.048 -0.003 -0.003
 0.766  1.383  0.306  0.081 -0.047 -0.001 -0.001
 0.768  1.383  0.308  0.084 -0.045  0.000  0.000
 0.770  1.384  0.311  0.086 -0.044  0.002  0.002
 0.772  1.385  0.313  0.090 -0.042  0.003  0.003
 0.774  1.386  0.315  0.093 -0.039  0.005  0.005
 0.776  1.387  0.317  0.097 -0.037  0.007  0.007
 0.778  1.389  0.320  0.100 -0.035  0.009  0.009
 0.780  1.389  0.322  0.103 -0.033  0.011  0.011
 0.782  1.391  0.324  0.107 -0.030  0.013  0.013
 0.784  1.392  0.327  0.110 -0.027  0.015  0.015
 0.786  1.394  0.329  0.113 -0.025  0.018  0.018
 0.788  1.396  0.332  0.116 -0.021  0.020  0.020
 0.790  1.397  0.334  0.119 -0.019  0.022  0.022
 0.792  1.399  0.337  0.122 -0.015  0.025  0.025
 0.794  1.401  0.340  0.125 -0.012  0.027  0.027
 0.796  1.403  0.343  0.127 -0.008  0.030  0.030
 0.798  1.405  0.346  0.130 -0.005  0.032  0.032
 0.800  1.408  0.349  0.132 -0.001  0.035  0.035
 0.802  1.410  0.352  0.134  0.002  0.038  0.038
 0.804  1.412  0.355  0.136  0.006  0.041  0.041
 0.806  1.415  0.357  0.137  0.009  0.044  0.044
 0.808  1.418  0.359  0.138  0.012  0.047  0.047
