# IsPeriodic    : True
# Period        : 0.531060 days
# Normalization : <g_mag>=0
# 
# Phase u_mag  g_mag  r_mag  i_mag  z_mag  y_mag
 0.000  0.526 -0.591 -0.642 -0.517 -0.393 -0.393
 0.002  0.526 -0.591 -0.642 -0.517 -0.393 -0.393
 0.004  0.527 -0.590 -0.640 -0.516 -0.393 -0.393
 0.006  0.528 -0.589 -0.639 -0.516 -0.392 -0.392
 0.008  0.529 -0.588 -0.637 -0.515 -0.391 -0.391
 0.010  0.531 -0.586 -0.633 -0.514 -0.390 -0.390
 0.012  0.533 -0.583 -0.630 -0.513 -0.389 -0.389
 0.014  0.534 -0.580 -0.627 -0.511 -0.388 -0.388
 0.016  0.537 -0.577 -0.623 -0.510 -0.387 -0.387
 0.018  0.540 -0.575 -0.619 -0.508 -0.385 -0.385
 0.020  0.543 -0.571 -0.615 -0.506 -0.383 -0.383
 0.022  0.546 -0.567 -0.610 -0.504 -0.382 -0.382
 0.024  0.550 -0.564 -0.606 -0.501 -0.381 -0.381
 0.026  0.553 -0.560 -0.602 -0.500 -0.379 -0.379
 0.028  0.555 -0.556 -0.598 -0.498 -0.378 -0.378
 0.030  0.559 -0.551 -0.594 -0.495 -0.376 -0.376
 0.032  0.563 -0.548 -0.591 -0.493 -0.375 -0.375
 0.034  0.566 -0.544 -0.587 -0.492 -0.373 -0.373
 0.036  0.570 -0.539 -0.583 -0.489 -0.372 -0.372
 0.038  0.574 -0.536 -0.579 -0.487 -0.371 -0.371
 0.040  0.577 -0.531 -0.575 -0.485 -0.369 -0.369
 0.042  0.581 -0.527 -0.572 -0.482 -0.368 -0.368
 0.044  0.585 -0.523 -0.568 -0.480 -0.367 -0.367
 0.046  0.589 -0.519 -0.564 -0.477 -0.366 -0.366
 0.048  0.593 -0.514 -0.561 -0.475 -0.364 -0.364
 0.050  0.597 -0.510 -0.557 -0.472 -0.363 -0.363
 0.052  0.600 -0.505 -0.553 -0.469 -0.362 -0.362
 0.054  0.605 -0.501 -0.548 -0.467 -0.360 -0.360
 0.056  0.609 -0.497 -0.544 -0.463 -0.359 -0.359
 0.058  0.614 -0.492 -0.541 -0.460 -0.358 -0.358
 0.060  0.618 -0.487 -0.536 -0.457 -0.357 -0.357
 0.062  0.622 -0.483 -0.532 -0.454 -0.356 -0.356
 0.064  0.627 -0.477 -0.528 -0.451 -0.354 -0.354
 0.066  0.632 -0.473 -0.524 -0.448 -0.353 -0.353
 0.068  0.637 -0.468 -0.520 -0.444 -0.352 -0.352
 0.070  0.641 -0.463 -0.516 -0.441 -0.351 -0.351
 0.072  0.646 -0.458 -0.512 -0.437 -0.349 -0.349
 0.074  0.651 -0.453 -0.508 -0.434 -0.348 -0.348
 0.076  0.657 -0.448 -0.504 -0.430 -0.347 -0.347
 0.078  0.662 -0.443 -0.500 -0.427 -0.346 -0.346
 0.080  0.666 -0.437 -0.496 -0.424 -0.345 -0.345
 0.082  0.672 -0.433 -0.492 -0.420 -0.344 -0.344
 0.084  0.677 -0.427 -0.489 -0.417 -0.342 -0.342
 0.086  0.683 -0.422 -0.485 -0.413 -0.341 -0.341
 0.088  0.687 -0.416 -0.481 -0.410 -0.340 -0.340
 0.090  0.693 -0.411 -0.476 -0.407 -0.339 -0.339
 0.092  0.698 -0.406 -0.472 -0.404 -0.337 -0.337
 0.094  0.704 -0.400 -0.469 -0.401 -0.336 -0.336
 0.096  0.708 -0.396 -0.465 -0.397 -0.335 -0.335
 0.098  0.714 -0.390 -0.461 -0.394 -0.334 -0.334
 0.100  0.719 -0.385 -0.457 -0.392 -0.332 -0.332
 0.102  0.725 -0.380 -0.453 -0.389 -0.331 -0.331
 0.104  0.729 -0.374 -0.449 -0.386 -0.330 -0.330
 0.106  0.735 -0.370 -0.446 -0.383 -0.328 -0.328
 0.108  0.740 -0.364 -0.442 -0.381 -0.327 -0.327
 0.110  0.745 -0.359 -0.438 -0.378 -0.325 -0.325
 0.112  0.749 -0.355 -0.435 -0.375 -0.324 -0.324
 0.114  0.754 -0.350 -0.431 -0.373 -0.322 -0.322
 0.116  0.759 -0.346 -0.427 -0.370 -0.321 -0.321
 0.118  0.764 -0.341 -0.423 -0.368 -0.319 -0.319
 0.120  0.769 -0.336 -0.420 -0.366 -0.317 -0.317
 0.122  0.773 -0.332 -0.416 -0.363 -0.316 -0.316
 0.124  0.777 -0.327 -0.413 -0.361 -0.314 -0.314
 0.126  0.782 -0.322 -0.410 -0.359 -0.312 -0.312
 0.128  0.787 -0.318 -0.406 -0.357 -0.310 -0.310
 0.130  0.791 -0.314 -0.403 -0.355 -0.308 -0.308
 0.132  0.795 -0.309 -0.399 -0.353 -0.307 -0.307
 0.134  0.800 -0.305 -0.396 -0.351 -0.305 -0.305
 0.136  0.804 -0.301 -0.392 -0.349 -0.303 -0.303
 0.138  0.809 -0.296 -0.389 -0.348 -0.301 -0.301
 0.140  0.813 -0.293 -0.386 -0.346 -0.299 -0.299
 0.142  0.816 -0.289 -0.382 -0.344 -0.297 -0.297
 0.144  0.821 -0.284 -0.379 -0.343 -0.295 -0.295
 0.146  0.825 -0.281 -0.375 -0.341 -0.293 -0.293
 0.148  0.829 -0.277 -0.372 -0.339 -0.291 -0.291
 0.150  0.833 -0.273 -0.369 -0.338 -0.289 -0.289
 0.152  0.836 -0.269 -0.366 -0.336 -0.287 -0.287
 0.154  0.840 -0.266 -0.363 -0.335 -0.285 -0.285
 0.156  0.844 -0.262 -0.359 -0.333 -0.283 -0.283
 0.158  0.848 -0.258 -0.356 -0.331 -0.281 -0.281
 0.160  0.852 -0.255 -0.353 -0.330 -0.279 -0.279
 0.162  0.856 -0.252 -0.350 -0.328 -0.277 -0.277
 0.164  0.859 -0.248 -0.347 -0.327 -0.274 -0.274
 0.166  0.863 -0.244 -0.344 -0.325 -0.272 -0.272
 0.168  0.867 -0.241 -0.341 -0.324 -0.270 -0.270
 0.170  0.871 -0.237 -0.337 -0.322 -0.268 -0.268
 0.172  0.875 -0.233 -0.334 -0.321 -0.266 -0.266
 0.174  0.879 -0.230 -0.331 -0.319 -0.264 -0.264
 0.176  0.882 -0.226 -0.329 -0.318 -0.263 -0.263
 0.178  0.886 -0.222 -0.326 -0.316 -0.261 -0.261
 0.180  0.890 -0.218 -0.323 -0.314 -0.259 -0.259
 0.182  0.895 -0.215 -0.320 -0.313 -0.258 -0.258
 0.184  0.899 -0.211 -0.317 -0.311 -0.256 -0.256
 0.186  0.902 -0.207 -0.314 -0.309 -0.254 -0.254
 0.188  0.906 -0.204 -0.311 -0.308 -0.253 -0.253
 0.190  0.910 -0.200 -0.308 -0.306 -0.251 -0.251
 0.192  0.915 -0.196 -0.306 -0.305 -0.249 -0.249
 0.194  0.919 -0.192 -0.303 -0.303 -0.248 -0.248
 0.196  0.922 -0.188 -0.300 -0.301 -0.246 -0.246
 0.198  0.927 -0.184 -0.298 -0.299 -0.245 -0.245
 0.200  0.931 -0.180 -0.295 -0.298 -0.243 -0.243
 0.202  0.936 -0.176 -0.292 -0.296 -0.242 -0.242
 0.204  0.940 -0.172 -0.289 -0.294 -0.240 -0.240
 0.206  0.944 -0.168 -0.287 -0.293 -0.239 -0.239
 0.208  0.948 -0.164 -0.285 -0.291 -0.237 -0.237
 0.210  0.952 -0.160 -0.281 -0.289 -0.236 -0.236
 0.212  0.957 -0.155 -0.279 -0.287 -0.235 -0.235
 0.214  0.962 -0.152 -0.276 -0.285 -0.234 -0.234
 0.216  0.965 -0.147 -0.274 -0.284 -0.233 -0.233
 0.218  0.970 -0.143 -0.272 -0.282 -0.232 -0.232
 0.220  0.974 -0.139 -0.269 -0.280 -0.231 -0.231
 0.222  0.979 -0.134 -0.266 -0.278 -0.230 -0.230
 0.224  0.984 -0.130 -0.264 -0.277 -0.228 -0.228
 0.226  0.987 -0.126 -0.262 -0.275 -0.227 -0.227
 0.228  0.992 -0.121 -0.259 -0.273 -0.226 -0.226
 0.230  0.997 -0.117 -0.257 -0.272 -0.225 -0.225
 0.232  1.002 -0.113 -0.255 -0.270 -0.224 -0.224
 0.234  1.006 -0.108 -0.252 -0.268 -0.223 -0.223
 0.236  1.010 -0.103 -0.250 -0.267 -0.222 -0.222
 0.238  1.015 -0.100 -0.248 -0.265 -0.221 -0.221
 0.240  1.019 -0.095 -0.245 -0.263 -0.220 -0.220
 0.242  1.024 -0.090 -0.243 -0.262 -0.219 -0.219
 0.244  1.028 -0.087 -0.241 -0.260 -0.217 -0.217
 0.246  1.032 -0.082 -0.239 -0.258 -0.216 -0.216
 0.248  1.036 -0.078 -0.236 -0.257 -0.215 -0.215
 0.250  1.041 -0.074 -0.234 -0.255 -0.214 -0.214
 0.252  1.045 -0.070 -0.232 -0.253 -0.213 -0.213
 0.254  1.049 -0.066 -0.229 -0.252 -0.211 -0.211
 0.256  1.052 -0.062 -0.227 -0.250 -0.210 -0.210
 0.258  1.056 -0.058 -0.225 -0.249 -0.209 -0.209
 0.260  1.060 -0.054 -0.223 -0.247 -0.208 -0.208
 0.262  1.064 -0.051 -0.221 -0.245 -0.206 -0.206
 0.264  1.068 -0.047 -0.219 -0.244 -0.205 -0.205
 0.266  1.072 -0.043 -0.216 -0.242 -0.204 -0.204
 0.268  1.075 -0.039 -0.215 -0.240 -0.202 -0.202
 0.270  1.079 -0.036 -0.212 -0.239 -0.201 -0.201
 0.272  1.083 -0.032 -0.210 -0.237 -0.199 -0.199
 0.274  1.087 -0.028 -0.209 -0.236 -0.198 -0.198
 0.276  1.091 -0.025 -0.206 -0.234 -0.196 -0.196
 0.278  1.094 -0.022 -0.204 -0.233 -0.195 -0.195
 0.280  1.097 -0.018 -0.202 -0.231 -0.193 -0.193
 0.282  1.101 -0.014 -0.200 -0.230 -0.192 -0.192
 0.284  1.104 -0.011 -0.199 -0.228 -0.190 -0.190
 0.286  1.108 -0.008 -0.196 -0.227 -0.188 -0.188
 0.288  1.111 -0.004 -0.195 -0.225 -0.187 -0.187
 0.290  1.115 -0.001 -0.193 -0.224 -0.185 -0.185
 0.292  1.117  0.001 -0.191 -0.222 -0.183 -0.183
 0.294  1.120  0.005 -0.189 -0.221 -0.182 -0.182
 0.296  1.123  0.008 -0.187 -0.219 -0.180 -0.180
 0.298  1.127  0.011 -0.186 -0.218 -0.179 -0.179
 0.300  1.130  0.014 -0.183 -0.216 -0.177 -0.177
 0.302  1.133  0.017 -0.182 -0.215 -0.175 -0.175
 0.304  1.136  0.020 -0.179 -0.214 -0.174 -0.174
 0.306  1.138  0.023 -0.178 -0.212 -0.172 -0.172
 0.308  1.141  0.025 -0.176 -0.211 -0.170 -0.170
 0.310  1.144  0.029 -0.174 -0.209 -0.169 -0.169
 0.312  1.148  0.032 -0.172 -0.207 -0.167 -0.167
 0.314  1.151  0.035 -0.170 -0.206 -0.165 -0.165
 0.316  1.154  0.038 -0.168 -0.204 -0.164 -0.164
 0.318  1.157  0.040 -0.166 -0.203 -0.162 -0.162
 0.320  1.160  0.043 -0.164 -0.201 -0.161 -0.161
 0.322  1.162  0.047 -0.163 -0.200 -0.159 -0.159
 0.324  1.165  0.050 -0.160 -0.198 -0.158 -0.158
 0.326  1.168  0.052 -0.159 -0.197 -0.157 -0.157
 0.328  1.171  0.055 -0.156 -0.195 -0.155 -0.155
 0.330  1.175  0.058 -0.155 -0.194 -0.154 -0.154
 0.332  1.178  0.062 -0.153 -0.192 -0.152 -0.152
 0.334  1.181  0.064 -0.150 -0.191 -0.151 -0.151
 0.336  1.183  0.067 -0.149 -0.189 -0.149 -0.149
 0.338  1.186  0.070 -0.147 -0.187 -0.148 -0.148
 0.340  1.189  0.073 -0.145 -0.186 -0.147 -0.147
 0.342  1.192  0.077 -0.143 -0.184 -0.145 -0.145
 0.344  1.195  0.079 -0.140 -0.182 -0.144 -0.144
 0.346  1.199  0.082 -0.139 -0.181 -0.143 -0.143
 0.348  1.202  0.086 -0.137 -0.179 -0.141 -0.141
 0.350  1.204  0.089 -0.135 -0.178 -0.140 -0.140
 0.352  1.207  0.091 -0.133 -0.176 -0.139 -0.139
 0.354  1.210  0.094 -0.130 -0.174 -0.138 -0.138
 0.356  1.213  0.098 -0.128 -0.173 -0.136 -0.136
 0.358  1.216  0.101 -0.127 -0.171 -0.135 -0.135
 0.360  1.219  0.103 -0.124 -0.169 -0.134 -0.134
 0.362  1.222  0.107 -0.122 -0.168 -0.133 -0.133
 0.364  1.225  0.110 -0.120 -0.166 -0.132 -0.132
 0.366  1.228  0.113 -0.118 -0.165 -0.131 -0.131
 0.368  1.231  0.115 -0.116 -0.163 -0.130 -0.130
 0.370  1.234  0.119 -0.114 -0.161 -0.129 -0.129
 0.372  1.237  0.122 -0.112 -0.160 -0.128 -0.128
 0.374  1.240  0.125 -0.110 -0.158 -0.127 -0.127
 0.376  1.243  0.128 -0.107 -0.157 -0.126 -0.126
 0.378  1.246  0.131 -0.106 -0.155 -0.124 -0.124
 0.380  1.248  0.134 -0.104 -0.154 -0.123 -0.123
 0.382  1.251  0.138 -0.101 -0.152 -0.122 -0.122
 0.384  1.255  0.141 -0.100 -0.151 -0.121 -0.121
 0.386  1.258  0.143 -0.097 -0.149 -0.120 -0.120
 0.388  1.261  0.146 -0.095 -0.148 -0.119 -0.119
 0.390  1.264  0.149 -0.094 -0.146 -0.118 -0.118
 0.392  1.267  0.152 -0.091 -0.144 -0.116 -0.116
 0.394  1.268  0.154 -0.089 -0.143 -0.115 -0.115
 0.396  1.271  0.157 -0.087 -0.141 -0.114 -0.114
 0.398  1.274  0.160 -0.085 -0.140 -0.113 -0.113
 0.400  1.277  0.163 -0.083 -0.138 -0.111 -0.111
 0.402  1.280  0.165 -0.081 -0.137 -0.110 -0.110
 0.404  1.283  0.167 -0.079 -0.135 -0.109 -0.109
 0.406  1.286  0.170 -0.077 -0.134 -0.108 -0.108
 0.408  1.289  0.172 -0.075 -0.133 -0.106 -0.106
 0.410  1.291  0.175 -0.073 -0.131 -0.105 -0.105
 0.412  1.293  0.178 -0.071 -0.130 -0.104 -0.104
 0.414  1.296  0.179 -0.069 -0.128 -0.102 -0.102
 0.416  1.299  0.182 -0.067 -0.126 -0.101 -0.101
 0.418  1.302  0.184 -0.065 -0.125 -0.100 -0.100
 0.420  1.304  0.186 -0.063 -0.124 -0.098 -0.098
 0.422  1.307  0.189 -0.061 -0.122 -0.097 -0.097
 0.424  1.310  0.191 -0.059 -0.121 -0.095 -0.095
 0.426  1.312  0.192 -0.057 -0.120 -0.094 -0.094
 0.428  1.314  0.195 -0.055 -0.118 -0.092 -0.092
 0.430  1.317  0.197 -0.053 -0.116 -0.091 -0.091
 0.432  1.320  0.199 -0.051 -0.115 -0.089 -0.089
 0.434  1.322  0.201 -0.049 -0.114 -0.088 -0.088
 0.436  1.325  0.203 -0.047 -0.113 -0.086 -0.086
 0.438  1.327  0.205 -0.045 -0.111 -0.085 -0.085
 0.440  1.330  0.206 -0.043 -0.110 -0.083 -0.083
 0.442  1.333  0.208 -0.041 -0.108 -0.082 -0.082
 0.444  1.334  0.210 -0.039 -0.107 -0.081 -0.081
 0.446  1.337  0.212 -0.038 -0.105 -0.079 -0.079
 0.448  1.339  0.213 -0.036 -0.104 -0.078 -0.078
 0.450  1.341  0.215 -0.034 -0.103 -0.076 -0.076
 0.452  1.344  0.217 -0.032 -0.102 -0.075 -0.075
 0.454  1.346  0.218 -0.031 -0.100 -0.073 -0.073
 0.456  1.348  0.220 -0.028 -0.098 -0.072 -0.072
 0.458  1.351  0.221 -0.027 -0.097 -0.071 -0.071
 0.460  1.353  0.223 -0.025 -0.096 -0.069 -0.069
 0.462  1.354  0.225 -0.024 -0.095 -0.068 -0.068
 0.464  1.356  0.227 -0.022 -0.093 -0.066 -0.066
 0.466  1.358  0.228 -0.020 -0.092 -0.065 -0.065
 0.468  1.360  0.230 -0.018 -0.090 -0.064 -0.064
 0.470  1.362  0.231 -0.017 -0.089 -0.062 -0.062
 0.472  1.364  0.233 -0.015 -0.087 -0.061 -0.061
 0.474  1.366  0.234 -0.014 -0.086 -0.060 -0.060
 0.476  1.368  0.236 -0.012 -0.085 -0.059 -0.059
 0.478  1.370  0.238 -0.011 -0.083 -0.058 -0.058
 0.480  1.372  0.239 -0.009 -0.082 -0.057 -0.057
 0.482  1.373  0.241 -0.008 -0.080 -0.056 -0.056
 0.484  1.375  0.243 -0.007 -0.079 -0.054 -0.054
 0.486  1.376  0.244 -0.005 -0.078 -0.053 -0.053
 0.488  1.377  0.245 -0.004 -0.076 -0.052 -0.052
 0.490  1.379  0.247 -0.002 -0.075 -0.051 -0.051
 0.492  1.380  0.249 -0.001 -0.073 -0.050 -0.050
 0.494  1.381  0.250 -0.000 -0.072 -0.049 -0.049
 0.496  1.383  0.252  0.001 -0.070 -0.048 -0.048
 0.498  1.384  0.254  0.003 -0.069 -0.047 -0.047
 0.500  1.385  0.255  0.004 -0.068 -0.046 -0.046
 0.502  1.387  0.256  0.005 -0.066 -0.045 -0.045
 0.504  1.388  0.258  0.006 -0.065 -0.044 -0.044
 0.506  1.389  0.259  0.008 -0.063 -0.043 -0.043
 0.508  1.390  0.261  0.008 -0.062 -0.042 -0.042
 0.510  1.391  0.263  0.010 -0.061 -0.041 -0.041
 0.512  1.392  0.264  0.011 -0.060 -0.040 -0.040
 0.514  1.393  0.266  0.011 -0.059 -0.039 -0.039
 0.516  1.394  0.268  0.013 -0.057 -0.039 -0.039
 0.518  1.395  0.269  0.014 -0.056 -0.038 -0.038
 0.520  1.396  0.270  0.015 -0.055 -0.037 -0.037
 0.522  1.397  0.271  0.015 -0.054 -0.036 -0.036
 0.524  1.397  0.273  0.017 -0.052 -0.035 -0.035
 0.526  1.398  0.274  0.018 -0.051 -0.034 -0.034
 0.528  1.398  0.276  0.018 -0.050 -0.034 -0.034
 0.530  1.399  0.277  0.019 -0.049 -0.033 -0.033
 0.532  1.400  0.278  0.020 -0.048 -0.032 -0.032
 0.534  1.401  0.279  0.021 -0.047 -0.032 -0.032
 0.536  1.402  0.280  0.021 -0.046 -0.031 -0.031
 0.538  1.403  0.281  0.022 -0.045 -0.030 -0.030
 0.540  1.404  0.281  0.023 -0.045 -0.029 -0.029
 0.542  1.404  0.282  0.024 -0.044 -0.028 -0.028
 0.544  1.405  0.283  0.024 -0.043 -0.028 -0.028
 0.546  1.406  0.283  0.024 -0.042 -0.027 -0.027
 0.548  1.407  0.284  0.025 -0.042 -0.026 -0.026
 0.550  1.408  0.285  0.026 -0.040 -0.025 -0.025
 0.552  1.408  0.285  0.026 -0.040 -0.025 -0.025
 0.554  1.409  0.285  0.027 -0.039 -0.024 -0.024
 0.556  1.410  0.286  0.028 -0.039 -0.023 -0.023
 0.558  1.411  0.286  0.028 -0.038 -0.022 -0.022
 0.560  1.411  0.286  0.028 -0.038 -0.021 -0.021
 0.562  1.412  0.287  0.028 -0.037 -0.021 -0.021
 0.564  1.413  0.287  0.029 -0.037 -0.020 -0.020
 0.566  1.414  0.287  0.029 -0.036 -0.019 -0.019
 0.568  1.414  0.287  0.030 -0.036 -0.019 -0.019
 0.570  1.415  0.287  0.030 -0.035 -0.018 -0.018
 0.572  1.416  0.286  0.030 -0.035 -0.017 -0.017
 0.574  1.417  0.286  0.031 -0.035 -0.016 -0.016
 0.576  1.417  0.286  0.031 -0.034 -0.016 -0.016
 0.578  1.418  0.285  0.031 -0.034 -0.015 -0.015
 0.580  1.419  0.285  0.031 -0.034 -0.014 -0.014
 0.582  1.419  0.284  0.031 -0.034 -0.014 -0.014
 0.584  1.419  0.283  0.031 -0.033 -0.013 -0.013
 0.586  1.420  0.283  0.031 -0.033 -0.012 -0.012
 0.588  1.420  0.282  0.031 -0.033 -0.012 -0.012
 0.590  1.421  0.282  0.031 -0.032 -0.011 -0.011
 0.592  1.422  0.281  0.031 -0.032 -0.010 -0.010
 0.594  1.422  0.281  0.031 -0.032 -0.010 -0.010
 0.596  1.423  0.281  0.032 -0.032 -0.009 -0.009
 0.598  1.424  0.280  0.032 -0.031 -0.008 -0.008
 0.600  1.424  0.280  0.032 -0.031 -0.008 -0.008
 0.602  1.425  0.279  0.032 -0.031 -0.007 -0.007
 0.604  1.425  0.279  0.032 -0.030 -0.007 -0.007
 0.606  1.426  0.278  0.033 -0.030 -0.006 -0.006
 0.608  1.426  0.278  0.033 -0.030 -0.005 -0.005
 0.610  1.427  0.278  0.033 -0.030 -0.005 -0.005
 0.612  1.427  0.278  0.033 -0.029 -0.004 -0.004
 0.614  1.428  0.278  0.034 -0.029 -0.003 -0.003
 0.616  1.428  0.278  0.034 -0.029 -0.002 -0.002
 0.618  1.429  0.278  0.034 -0.029 -0.002 -0.002
 0.620  1.429  0.278  0.034 -0.029 -0.001 -0.001
 0.622  1.429  0.278  0.034 -0.028 -0.000 -0.000
 0.624  1.430  0.278  0.034 -0.028  0.000  0.000
 0.626  1.430  0.279  0.034 -0.028  0.001  0.001
 0.628  1.430  0.279  0.035 -0.027  0.002  0.002
 0.630  1.431  0.280  0.035 -0.027  0.003  0.003
 0.632  1.431  0.280  0.035 -0.027  0.003  0.003
 0.634  1.431  0.281  0.036 -0.027  0.004  0.004
 0.636  1.431  0.281  0.036 -0.027  0.005  0.005
 0.638  1.432  0.281  0.036 -0.026  0.005  0.005
 0.640  1.432  0.282  0.037 -0.026  0.006  0.006
 0.642  1.432  0.283  0.037 -0.026  0.007  0.007
 0.644  1.432  0.284  0.037 -0.025  0.008  0.008
 0.646  1.433  0.285  0.038 -0.025  0.008  0.008
 0.648  1.433  0.286  0.038 -0.025  0.009  0.009
 0.650  1.433  0.287  0.038 -0.025  0.010  0.010
 0.652  1.433  0.288  0.038 -0.025  0.011  0.011
 0.654  1.433  0.290  0.038 -0.025  0.011  0.011
 0.656  1.433  0.291  0.038 -0.025  0.012  0.012
 0.658  1.433  0.292  0.039 -0.024  0.013  0.013
 0.660  1.433  0.294  0.039 -0.024  0.014  0.014
 0.662  1.433  0.294  0.039 -0.024  0.014  0.014
 0.664  1.434  0.296  0.040 -0.024  0.015  0.015
 0.666  1.434  0.297  0.040 -0.024  0.016  0.016
 0.668  1.434  0.299  0.040 -0.024  0.016  0.016
 0.670  1.434  0.300  0.041 -0.024  0.017  0.017
 0.672  1.434  0.302  0.041 -0.024  0.018  0.018
 0.674  1.435  0.303  0.041 -0.024  0.019  0.019
 0.676  1.435  0.304  0.041 -0.024  0.019  0.019
 0.678  1.436  0.306  0.041 -0.024  0.020  0.020
 0.680  1.436  0.307  0.041 -0.024  0.021  0.021
 0.682  1.437  0.308  0.041 -0.024  0.022  0.022
 0.684  1.437  0.309  0.041 -0.024  0.023  0.023
 0.686  1.438  0.310  0.041 -0.024  0.023  0.023
 0.688  1.438  0.311  0.041 -0.024  0.024  0.024
 0.690  1.439  0.313  0.041 -0.024  0.025  0.025
 0.692  1.440  0.314  0.041 -0.024  0.026  0.026
 0.694  1.440  0.315  0.041 -0.024  0.027  0.027
 0.696  1.441  0.316  0.041 -0.024  0.028  0.028
 0.698  1.441  0.317  0.041 -0.024  0.028  0.028
 0.700  1.442  0.319  0.041 -0.024  0.029  0.029
 0.702  1.442  0.320  0.041 -0.024  0.030  0.030
 0.704  1.443  0.320  0.041 -0.024  0.031  0.031
 0.706  1.444  0.321  0.041 -0.025  0.032  0.032
 0.708  1.445  0.322  0.041 -0.025  0.033  0.033
 0.710  1.446  0.323  0.041 -0.025  0.034  0.034
 0.712  1.447  0.324  0.041 -0.025  0.035  0.035
 0.714  1.449  0.325  0.041 -0.025  0.035  0.035
 0.716  1.450  0.326  0.041 -0.025  0.036  0.036
 0.718  1.451  0.327  0.040 -0.026  0.037  0.037
 0.720  1.452  0.329  0.040 -0.026  0.038  0.038
 0.722  1.454  0.330  0.040 -0.026  0.039  0.039
 0.724  1.455  0.330  0.040 -0.026  0.040  0.040
 0.726  1.456  0.331  0.039 -0.026  0.041  0.041
 0.728  1.458  0.332  0.039 -0.026  0.041  0.041
 0.730  1.459  0.333  0.039 -0.026  0.042  0.042
 0.732  1.460  0.333  0.039 -0.026  0.043  0.043
 0.734  1.462  0.334  0.040 -0.026  0.044  0.044
 0.736  1.462  0.334  0.040 -0.025  0.046  0.046
 0.738  1.463  0.335  0.040 -0.025  0.047  0.047
 0.740  1.464  0.335  0.041 -0.025  0.048  0.048
 0.742  1.466  0.336  0.041 -0.024  0.049  0.049
 0.744  1.467  0.336  0.041 -0.024  0.050  0.050
 0.746  1.468  0.336  0.042 -0.023  0.051  0.051
 0.748  1.469  0.336  0.043 -0.022  0.052  0.052
 0.750  1.470  0.336  0.044 -0.021  0.054  0.054
 0.752  1.471  0.336  0.044 -0.021  0.055  0.055
 0.754  1.472  0.335  0.046 -0.019  0.056  0.056
 0.756  1.473  0.335  0.047 -0.019  0.057  0.057
 0.758  1.474  0.334  0.047 -0.017  0.059  0.059
 0.760  1.475  0.333  0.049 -0.017  0.060  0.060
 0.762  1.476  0.333  0.051 -0.016  0.062  0.062
 0.764  1.476  0.333  0.052 -0.014  0.063  0.063
 0.766  1.477  0.331  0.053 -0.013  0.064  0.064
 0.768  1.478  0.330  0.054 -0.011  0.066  0.066
 0.770  1.478  0.329  0.057 -0.010  0.067  0.067
 0.772  1.479  0.327  0.058 -0.009  0.068  0.068
 0.774  1.479  0.326  0.060 -0.007  0.070  0.070
 0.776  1.479  0.324  0.062 -0.005  0.072  0.072
 0.778  1.480  0.322  0.064 -0.003  0.073  0.073
 0.780  1.480  0.320  0.066 -0.001  0.075  0.075
 0.782  1.480  0.319  0.068  0.001  0.076  0.076
 0.784  1.481  0.317  0.070  0.003  0.078  0.078
 0.786  1.481  0.314  0.073  0.004  0.080  0.080
 0.788  1.481  0.312  0.075  0.006  0.082  0.082
 0.790  1.481  0.309  0.078  0.009  0.083  0.083
 0.792  1.482  0.307  0.080  0.011  0.085  0.085
 0.794  1.482  0.305  0.083  0.013  0.087  0.087
 0.796  1.482  0.302  0.085  0.015  0.089  0.089
 0.798  1.482  0.299  0.087  0.017  0.090  0.090
 0.800  1.482  0.296  0.090  0.019  0.092  0.092
 0.802  1.481  0.294  0.093  0.022  0.093  0.093
 0.804  1.481  0.290  0.095  0.024  0.094  0.094
 0.806  1.480  0.286  0.097  0.026  0.095  0.095
 0.808  1.478  0.282  0.100  0.029  0.096  0.096
