# IsPeriodic    : True
# Period        : 0.542761 days
# Normalization : <g_mag>=0
# 
# Phase u_mag  g_mag  r_mag  i_mag  z_mag  y_mag
 0.000  0.381 -0.851 -0.714 -0.618 -0.520 -0.520
 0.002  0.381 -0.850 -0.714 -0.618 -0.520 -0.520
 0.004  0.384 -0.849 -0.713 -0.617 -0.520 -0.520
 0.006  0.386 -0.846 -0.711 -0.616 -0.519 -0.519
 0.008  0.390 -0.844 -0.708 -0.615 -0.519 -0.519
 0.010  0.395 -0.840 -0.705 -0.614 -0.519 -0.519
 0.012  0.399 -0.835 -0.701 -0.612 -0.518 -0.518
 0.014  0.407 -0.829 -0.696 -0.610 -0.518 -0.518
 0.016  0.413 -0.822 -0.692 -0.608 -0.517 -0.517
 0.018  0.421 -0.816 -0.688 -0.606 -0.516 -0.516
 0.020  0.429 -0.810 -0.683 -0.604 -0.514 -0.514
 0.022  0.437 -0.804 -0.678 -0.602 -0.514 -0.514
 0.024  0.445 -0.796 -0.672 -0.599 -0.512 -0.512
 0.026  0.453 -0.790 -0.668 -0.596 -0.510 -0.510
 0.028  0.462 -0.782 -0.663 -0.594 -0.509 -0.509
 0.030  0.469 -0.776 -0.659 -0.591 -0.508 -0.508
 0.032  0.478 -0.770 -0.655 -0.589 -0.506 -0.506
 0.034  0.485 -0.763 -0.650 -0.586 -0.504 -0.504
 0.036  0.492 -0.757 -0.646 -0.583 -0.502 -0.502
 0.038  0.500 -0.751 -0.641 -0.581 -0.500 -0.500
 0.040  0.507 -0.745 -0.637 -0.578 -0.498 -0.498
 0.042  0.516 -0.738 -0.633 -0.575 -0.495 -0.495
 0.044  0.523 -0.732 -0.629 -0.572 -0.494 -0.494
 0.046  0.530 -0.726 -0.624 -0.569 -0.491 -0.491
 0.048  0.538 -0.720 -0.620 -0.566 -0.488 -0.488
 0.050  0.545 -0.712 -0.615 -0.563 -0.485 -0.485
 0.052  0.553 -0.706 -0.611 -0.559 -0.483 -0.483
 0.054  0.560 -0.698 -0.605 -0.556 -0.479 -0.479
 0.056  0.568 -0.691 -0.601 -0.552 -0.477 -0.477
 0.058  0.576 -0.684 -0.597 -0.548 -0.473 -0.473
 0.060  0.583 -0.677 -0.591 -0.545 -0.470 -0.470
 0.062  0.590 -0.669 -0.587 -0.541 -0.466 -0.466
 0.064  0.598 -0.662 -0.582 -0.537 -0.463 -0.463
 0.066  0.605 -0.654 -0.577 -0.533 -0.459 -0.459
 0.068  0.613 -0.647 -0.572 -0.529 -0.456 -0.456
 0.070  0.620 -0.639 -0.568 -0.525 -0.452 -0.452
 0.072  0.627 -0.632 -0.564 -0.520 -0.448 -0.448
 0.074  0.635 -0.624 -0.559 -0.516 -0.444 -0.444
 0.076  0.642 -0.617 -0.554 -0.512 -0.441 -0.441
 0.078  0.649 -0.609 -0.549 -0.507 -0.437 -0.437
 0.080  0.657 -0.602 -0.545 -0.503 -0.433 -0.433
 0.082  0.663 -0.594 -0.540 -0.499 -0.429 -0.429
 0.084  0.670 -0.587 -0.536 -0.495 -0.426 -0.426
 0.086  0.677 -0.579 -0.531 -0.491 -0.422 -0.422
 0.088  0.685 -0.572 -0.527 -0.487 -0.419 -0.419
 0.090  0.691 -0.564 -0.522 -0.483 -0.415 -0.415
 0.092  0.698 -0.557 -0.517 -0.479 -0.412 -0.412
 0.094  0.706 -0.550 -0.513 -0.475 -0.409 -0.409
 0.096  0.712 -0.543 -0.508 -0.472 -0.406 -0.406
 0.098  0.719 -0.535 -0.504 -0.468 -0.403 -0.403
 0.100  0.725 -0.528 -0.499 -0.465 -0.400 -0.400
 0.102  0.733 -0.521 -0.495 -0.461 -0.397 -0.397
 0.104  0.739 -0.514 -0.490 -0.458 -0.394 -0.394
 0.106  0.745 -0.506 -0.486 -0.454 -0.391 -0.391
 0.108  0.752 -0.500 -0.481 -0.451 -0.389 -0.389
 0.110  0.758 -0.494 -0.477 -0.448 -0.386 -0.386
 0.112  0.764 -0.486 -0.473 -0.444 -0.383 -0.383
 0.114  0.771 -0.480 -0.469 -0.441 -0.381 -0.381
 0.116  0.777 -0.474 -0.464 -0.438 -0.378 -0.378
 0.118  0.783 -0.468 -0.460 -0.436 -0.376 -0.376
 0.120  0.789 -0.461 -0.456 -0.433 -0.373 -0.373
 0.122  0.795 -0.455 -0.452 -0.430 -0.371 -0.371
 0.124  0.800 -0.449 -0.448 -0.427 -0.369 -0.369
 0.126  0.806 -0.442 -0.444 -0.424 -0.367 -0.367
 0.128  0.812 -0.436 -0.439 -0.422 -0.365 -0.365
 0.130  0.817 -0.430 -0.436 -0.420 -0.363 -0.363
 0.132  0.823 -0.424 -0.431 -0.417 -0.361 -0.361
 0.134  0.828 -0.419 -0.428 -0.415 -0.359 -0.359
 0.136  0.834 -0.412 -0.423 -0.413 -0.358 -0.358
 0.138  0.839 -0.406 -0.420 -0.411 -0.356 -0.356
 0.140  0.845 -0.401 -0.416 -0.408 -0.354 -0.354
 0.142  0.850 -0.395 -0.412 -0.406 -0.352 -0.352
 0.144  0.855 -0.390 -0.408 -0.405 -0.351 -0.351
 0.146  0.860 -0.384 -0.404 -0.402 -0.349 -0.349
 0.148  0.865 -0.379 -0.400 -0.400 -0.348 -0.348
 0.150  0.870 -0.374 -0.397 -0.398 -0.346 -0.346
 0.152  0.875 -0.369 -0.393 -0.396 -0.345 -0.345
 0.154  0.879 -0.362 -0.390 -0.395 -0.343 -0.343
 0.156  0.884 -0.357 -0.385 -0.393 -0.341 -0.341
 0.158  0.889 -0.352 -0.381 -0.391 -0.340 -0.340
 0.160  0.894 -0.347 -0.378 -0.389 -0.338 -0.338
 0.162  0.898 -0.342 -0.374 -0.387 -0.337 -0.337
 0.164  0.903 -0.337 -0.371 -0.386 -0.336 -0.336
 0.166  0.908 -0.332 -0.367 -0.383 -0.334 -0.334
 0.168  0.913 -0.327 -0.364 -0.382 -0.332 -0.332
 0.170  0.916 -0.322 -0.360 -0.379 -0.330 -0.330
 0.172  0.921 -0.317 -0.356 -0.378 -0.329 -0.329
 0.174  0.926 -0.311 -0.353 -0.376 -0.327 -0.327
 0.176  0.931 -0.306 -0.350 -0.374 -0.326 -0.326
 0.178  0.935 -0.301 -0.347 -0.372 -0.324 -0.324
 0.180  0.940 -0.296 -0.343 -0.370 -0.323 -0.323
 0.182  0.944 -0.291 -0.340 -0.368 -0.321 -0.321
 0.184  0.948 -0.286 -0.336 -0.366 -0.319 -0.319
 0.186  0.953 -0.281 -0.333 -0.363 -0.317 -0.317
 0.188  0.958 -0.276 -0.330 -0.362 -0.315 -0.315
 0.190  0.962 -0.271 -0.326 -0.360 -0.314 -0.314
 0.192  0.966 -0.266 -0.323 -0.358 -0.312 -0.312
 0.194  0.970 -0.261 -0.320 -0.356 -0.310 -0.310
 0.196  0.975 -0.256 -0.316 -0.354 -0.309 -0.309
 0.198  0.980 -0.251 -0.314 -0.351 -0.307 -0.307
 0.200  0.984 -0.246 -0.310 -0.350 -0.306 -0.306
 0.202  0.988 -0.241 -0.307 -0.347 -0.304 -0.304
 0.204  0.992 -0.236 -0.304 -0.345 -0.302 -0.302
 0.206  0.997 -0.231 -0.301 -0.344 -0.301 -0.301
 0.208  1.002 -0.226 -0.298 -0.341 -0.299 -0.299
 0.210  1.006 -0.221 -0.295 -0.339 -0.297 -0.297
 0.212  1.011 -0.216 -0.292 -0.337 -0.295 -0.295
 0.214  1.014 -0.212 -0.289 -0.335 -0.293 -0.293
 0.216  1.019 -0.207 -0.286 -0.333 -0.292 -0.292
 0.218  1.023 -0.202 -0.283 -0.331 -0.290 -0.290
 0.220  1.028 -0.197 -0.281 -0.328 -0.288 -0.288
 0.222  1.031 -0.192 -0.277 -0.326 -0.286 -0.286
 0.224  1.036 -0.187 -0.274 -0.324 -0.284 -0.284
 0.226  1.040 -0.182 -0.272 -0.322 -0.282 -0.282
 0.228  1.045 -0.177 -0.269 -0.320 -0.281 -0.281
 0.230  1.049 -0.173 -0.266 -0.318 -0.279 -0.279
 0.232  1.053 -0.168 -0.264 -0.316 -0.277 -0.277
 0.234  1.057 -0.163 -0.261 -0.313 -0.276 -0.276
 0.236  1.061 -0.158 -0.258 -0.312 -0.274 -0.274
 0.238  1.066 -0.154 -0.256 -0.309 -0.272 -0.272
 0.240  1.069 -0.149 -0.253 -0.307 -0.271 -0.271
 0.242  1.073 -0.144 -0.250 -0.306 -0.269 -0.269
 0.244  1.078 -0.140 -0.248 -0.303 -0.268 -0.268
 0.246  1.082 -0.135 -0.245 -0.301 -0.266 -0.266
 0.248  1.085 -0.132 -0.242 -0.300 -0.264 -0.264
 0.250  1.089 -0.127 -0.240 -0.297 -0.262 -0.262
 0.252  1.093 -0.122 -0.237 -0.295 -0.260 -0.260
 0.254  1.096 -0.118 -0.234 -0.293 -0.259 -0.259
 0.256  1.100 -0.114 -0.232 -0.291 -0.257 -0.257
 0.258  1.104 -0.109 -0.230 -0.290 -0.256 -0.256
 0.260  1.107 -0.105 -0.227 -0.287 -0.254 -0.254
 0.262  1.111 -0.100 -0.224 -0.286 -0.252 -0.252
 0.264  1.115 -0.096 -0.222 -0.284 -0.251 -0.251
 0.266  1.118 -0.093 -0.219 -0.281 -0.249 -0.249
 0.268  1.122 -0.089 -0.217 -0.280 -0.248 -0.248
 0.270  1.124 -0.084 -0.215 -0.278 -0.246 -0.246
 0.272  1.128 -0.080 -0.212 -0.276 -0.244 -0.244
 0.274  1.132 -0.076 -0.210 -0.274 -0.242 -0.242
 0.276  1.135 -0.073 -0.207 -0.272 -0.241 -0.241
 0.278  1.138 -0.069 -0.205 -0.271 -0.239 -0.239
 0.280  1.142 -0.065 -0.203 -0.268 -0.238 -0.238
 0.282  1.144 -0.060 -0.200 -0.267 -0.236 -0.236
 0.284  1.148 -0.056 -0.199 -0.265 -0.235 -0.235
 0.286  1.151 -0.053 -0.196 -0.263 -0.233 -0.233
 0.288  1.154 -0.049 -0.194 -0.261 -0.231 -0.231
 0.290  1.156 -0.045 -0.191 -0.259 -0.230 -0.230
 0.292  1.160 -0.043 -0.190 -0.258 -0.228 -0.228
 0.294  1.162 -0.039 -0.187 -0.256 -0.227 -0.227
 0.296  1.165 -0.035 -0.185 -0.254 -0.225 -0.225
 0.298  1.169 -0.031 -0.183 -0.252 -0.224 -0.224
 0.300  1.171 -0.027 -0.181 -0.250 -0.222 -0.222
 0.302  1.173 -0.024 -0.179 -0.249 -0.220 -0.220
 0.304  1.177 -0.020 -0.176 -0.247 -0.219 -0.219
 0.306  1.180 -0.016 -0.174 -0.245 -0.217 -0.217
 0.308  1.182 -0.014 -0.172 -0.243 -0.216 -0.216
 0.310  1.184 -0.010 -0.170 -0.241 -0.214 -0.214
 0.312  1.188 -0.006 -0.167 -0.239 -0.213 -0.213
 0.314  1.191 -0.002 -0.166 -0.238 -0.211 -0.211
 0.316  1.193  0.001 -0.163 -0.236 -0.210 -0.210
 0.318  1.197  0.005 -0.161 -0.234 -0.208 -0.208
 0.320  1.199  0.008 -0.158 -0.232 -0.207 -0.207
 0.322  1.202  0.011 -0.157 -0.230 -0.205 -0.205
 0.324  1.205  0.015 -0.154 -0.228 -0.203 -0.203
 0.326  1.208  0.019 -0.152 -0.226 -0.202 -0.202
 0.328  1.211  0.023 -0.149 -0.224 -0.201 -0.201
 0.330  1.214  0.025 -0.148 -0.223 -0.199 -0.199
 0.332  1.218  0.029 -0.145 -0.220 -0.198 -0.198
 0.334  1.220  0.033 -0.142 -0.219 -0.196 -0.196
 0.336  1.222  0.036 -0.141 -0.217 -0.194 -0.194
 0.338  1.226  0.040 -0.138 -0.215 -0.193 -0.193
 0.340  1.230  0.043 -0.136 -0.213 -0.192 -0.192
 0.342  1.232  0.047 -0.133 -0.211 -0.191 -0.191
 0.344  1.236  0.050 -0.131 -0.209 -0.189 -0.189
 0.346  1.238  0.054 -0.129 -0.207 -0.187 -0.187
 0.348  1.242  0.057 -0.126 -0.205 -0.186 -0.186
 0.350  1.244  0.060 -0.124 -0.203 -0.185 -0.185
 0.352  1.248  0.064 -0.122 -0.201 -0.183 -0.183
 0.354  1.252  0.068 -0.119 -0.199 -0.181 -0.181
 0.356  1.254  0.070 -0.116 -0.198 -0.180 -0.180
 0.358  1.258  0.074 -0.115 -0.195 -0.179 -0.179
 0.360  1.262  0.078 -0.112 -0.193 -0.177 -0.177
 0.362  1.265  0.080 -0.109 -0.191 -0.176 -0.176
 0.364  1.268  0.084 -0.108 -0.189 -0.174 -0.174
 0.366  1.271  0.088 -0.105 -0.188 -0.173 -0.173
 0.368  1.275  0.092 -0.102 -0.185 -0.171 -0.171
 0.370  1.279  0.094 -0.100 -0.183 -0.170 -0.170
 0.372  1.281  0.098 -0.098 -0.182 -0.169 -0.169
 0.374  1.285  0.102 -0.095 -0.179 -0.167 -0.167
 0.376  1.289  0.104 -0.092 -0.178 -0.165 -0.165
 0.378  1.292  0.108 -0.091 -0.175 -0.164 -0.164
 0.380  1.296  0.112 -0.088 -0.174 -0.163 -0.163
 0.382  1.298  0.115 -0.085 -0.172 -0.161 -0.161
 0.384  1.302  0.118 -0.083 -0.170 -0.159 -0.159
 0.386  1.306  0.122 -0.081 -0.168 -0.158 -0.158
 0.388  1.308  0.125 -0.078 -0.166 -0.156 -0.156
 0.390  1.312  0.129 -0.076 -0.164 -0.155 -0.155
 0.392  1.315  0.132 -0.074 -0.163 -0.154 -0.154
 0.394  1.318  0.136 -0.071 -0.160 -0.152 -0.152
 0.396  1.322  0.139 -0.069 -0.159 -0.150 -0.150
 0.398  1.324  0.143 -0.066 -0.156 -0.149 -0.149
 0.400  1.328  0.146 -0.064 -0.155 -0.147 -0.147
 0.402  1.330  0.149 -0.062 -0.153 -0.146 -0.146
 0.404  1.334  0.153 -0.059 -0.151 -0.144 -0.144
 0.406  1.336  0.157 -0.057 -0.150 -0.143 -0.143
 0.408  1.340  0.161 -0.055 -0.148 -0.141 -0.141
 0.410  1.342  0.163 -0.052 -0.146 -0.139 -0.139
 0.412  1.346  0.167 -0.050 -0.144 -0.138 -0.138
 0.414  1.349  0.171 -0.048 -0.142 -0.136 -0.136
 0.416  1.351  0.174 -0.045 -0.140 -0.135 -0.135
 0.418  1.355  0.178 -0.043 -0.139 -0.134 -0.134
 0.420  1.357  0.181 -0.041 -0.137 -0.132 -0.132
 0.422  1.360  0.184 -0.039 -0.135 -0.130 -0.130
 0.424  1.362  0.188 -0.036 -0.134 -0.128 -0.128
 0.426  1.366  0.192 -0.033 -0.132 -0.127 -0.127
 0.428  1.368  0.196 -0.032 -0.130 -0.125 -0.125
 0.430  1.371  0.199 -0.029 -0.128 -0.124 -0.124
 0.432  1.373  0.202 -0.027 -0.127 -0.122 -0.122
 0.434  1.375  0.206 -0.025 -0.125 -0.121 -0.121
 0.436  1.378  0.209 -0.022 -0.124 -0.119 -0.119
 0.438  1.380  0.213 -0.020 -0.121 -0.117 -0.117
 0.440  1.383  0.217 -0.017 -0.120 -0.116 -0.116
 0.442  1.385  0.221 -0.016 -0.118 -0.114 -0.114
 0.444  1.388  0.223 -0.013 -0.117 -0.113 -0.113
 0.446  1.390  0.227 -0.011 -0.115 -0.112 -0.112
 0.448  1.393  0.231 -0.009 -0.113 -0.110 -0.110
 0.450  1.395  0.233 -0.007 -0.112 -0.108 -0.108
 0.452  1.398  0.237 -0.005 -0.110 -0.107 -0.107
 0.454  1.400  0.240 -0.003 -0.109 -0.105 -0.105
 0.456  1.402  0.242 -0.000 -0.106 -0.104 -0.104
 0.458  1.405  0.246  0.001 -0.105 -0.102 -0.102
 0.460  1.407  0.248  0.003 -0.103 -0.101 -0.101
 0.462  1.410  0.251  0.005 -0.102 -0.099 -0.099
 0.464  1.411  0.253  0.008 -0.099 -0.098 -0.098
 0.466  1.413  0.256  0.009 -0.098 -0.097 -0.097
 0.468  1.416  0.258  0.011 -0.096 -0.095 -0.095
 0.470  1.418  0.261  0.013 -0.095 -0.093 -0.093
 0.472  1.420  0.263  0.015 -0.093 -0.092 -0.092
 0.474  1.422  0.266  0.017 -0.091 -0.091 -0.091
 0.476  1.424  0.268  0.018 -0.089 -0.089 -0.089
 0.478  1.427  0.271  0.020 -0.088 -0.088 -0.088
 0.480  1.428  0.272  0.022 -0.086 -0.086 -0.086
 0.482  1.431  0.275  0.024 -0.084 -0.085 -0.085
 0.484  1.433  0.277  0.025 -0.083 -0.084 -0.084
 0.486  1.434  0.278  0.026 -0.081 -0.082 -0.082
 0.488  1.437  0.281  0.028 -0.079 -0.080 -0.080
 0.490  1.438  0.282  0.030 -0.077 -0.079 -0.079
 0.492  1.440  0.283  0.032 -0.076 -0.078 -0.078
 0.494  1.442  0.286  0.033 -0.074 -0.077 -0.077
 0.496  1.444  0.287  0.034 -0.072 -0.075 -0.075
 0.498  1.447  0.288  0.036 -0.070 -0.074 -0.074
 0.500  1.448  0.290  0.037 -0.069 -0.073 -0.073
 0.502  1.450  0.291  0.039 -0.067 -0.071 -0.071
 0.504  1.451  0.292  0.040 -0.065 -0.070 -0.070
 0.506  1.453  0.294  0.042 -0.064 -0.069 -0.069
 0.508  1.455  0.295  0.042 -0.062 -0.068 -0.068
 0.510  1.456  0.296  0.044 -0.061 -0.066 -0.066
 0.512  1.459  0.297  0.045 -0.059 -0.065 -0.065
 0.514  1.460  0.299  0.046 -0.058 -0.064 -0.064
 0.516  1.461  0.299  0.048 -0.056 -0.062 -0.062
 0.518  1.464  0.300  0.049 -0.054 -0.061 -0.061
 0.520  1.465  0.301  0.050 -0.053 -0.060 -0.060
 0.522  1.466  0.301  0.050 -0.051 -0.059 -0.059
 0.524  1.467  0.302  0.052 -0.050 -0.058 -0.058
 0.526  1.470  0.304  0.053 -0.048 -0.057 -0.057
 0.528  1.471  0.305  0.054 -0.048 -0.055 -0.055
 0.530  1.472  0.305  0.055 -0.046 -0.055 -0.055
 0.532  1.473  0.306  0.056 -0.045 -0.053 -0.053
 0.534  1.475  0.306  0.057 -0.044 -0.052 -0.052
 0.536  1.475  0.307  0.058 -0.042 -0.051 -0.051
 0.538  1.476  0.309  0.058 -0.042 -0.050 -0.050
 0.540  1.477  0.309  0.059 -0.041 -0.049 -0.049
 0.542  1.478  0.310  0.060 -0.039 -0.048 -0.048
 0.544  1.478  0.311  0.061 -0.039 -0.047 -0.047
 0.546  1.480  0.311  0.061 -0.038 -0.046 -0.046
 0.548  1.481  0.312  0.062 -0.037 -0.045 -0.045
 0.550  1.481  0.312  0.063 -0.035 -0.044 -0.044
 0.552  1.482  0.314  0.063 -0.035 -0.044 -0.044
 0.554  1.482  0.314  0.064 -0.034 -0.042 -0.042
 0.556  1.482  0.315  0.065 -0.033 -0.042 -0.042
 0.558  1.483  0.315  0.065 -0.032 -0.041 -0.041
 0.560  1.483  0.316  0.066 -0.032 -0.040 -0.040
 0.562  1.483  0.316  0.066 -0.032 -0.039 -0.039
 0.564  1.484  0.317  0.067 -0.031 -0.038 -0.038
 0.566  1.484  0.317  0.067 -0.030 -0.038 -0.038
 0.568  1.484  0.317  0.067 -0.030 -0.036 -0.036
 0.570  1.484  0.319  0.067 -0.029 -0.036 -0.036
 0.572  1.484  0.319  0.067 -0.029 -0.035 -0.035
 0.574  1.484  0.320  0.068 -0.029 -0.034 -0.034
 0.576  1.484  0.320  0.068 -0.028 -0.034 -0.034
 0.578  1.483  0.320  0.068 -0.028 -0.033 -0.033
 0.580  1.483  0.321  0.068 -0.027 -0.032 -0.032
 0.582  1.483  0.321  0.068 -0.027 -0.031 -0.031
 0.584  1.483  0.321  0.069 -0.026 -0.031 -0.031
 0.586  1.482  0.322  0.069 -0.026 -0.030 -0.030
 0.588  1.482  0.322  0.069 -0.026 -0.029 -0.029
 0.590  1.482  0.322  0.069 -0.026 -0.029 -0.029
 0.592  1.481  0.322  0.069 -0.026 -0.028 -0.028
 0.594  1.481  0.324  0.069 -0.025 -0.027 -0.027
 0.596  1.481  0.324  0.070 -0.025 -0.027 -0.027
 0.598  1.480  0.324  0.070 -0.024 -0.026 -0.026
 0.600  1.480  0.324  0.070 -0.024 -0.025 -0.025
 0.602  1.480  0.325  0.070 -0.024 -0.025 -0.025
 0.604  1.478  0.325  0.070 -0.023 -0.025 -0.025
 0.606  1.478  0.325  0.071 -0.023 -0.024 -0.024
 0.608  1.478  0.325  0.071 -0.023 -0.023 -0.023
 0.610  1.477  0.325  0.071 -0.023 -0.023 -0.023
 0.612  1.477  0.326  0.071 -0.022 -0.022 -0.022
 0.614  1.477  0.326  0.072 -0.022 -0.022 -0.022
 0.616  1.477  0.326  0.072 -0.022 -0.022 -0.022
 0.618  1.476  0.326  0.072 -0.021 -0.021 -0.021
 0.620  1.476  0.326  0.072 -0.021 -0.020 -0.020
 0.622  1.476  0.326  0.073 -0.020 -0.020 -0.020
 0.624  1.476  0.326  0.073 -0.020 -0.020 -0.020
 0.626  1.476  0.327  0.073 -0.020 -0.019 -0.019
 0.628  1.475  0.327  0.074 -0.019 -0.019 -0.019
 0.630  1.475  0.327  0.074 -0.019 -0.018 -0.018
 0.632  1.475  0.327  0.074 -0.019 -0.018 -0.018
 0.634  1.475  0.327  0.075 -0.019 -0.018 -0.018
 0.636  1.475  0.327  0.075 -0.019 -0.017 -0.017
 0.638  1.475  0.327  0.075 -0.018 -0.017 -0.017
 0.640  1.475  0.327  0.075 -0.018 -0.016 -0.016
 0.642  1.475  0.327  0.075 -0.018 -0.016 -0.016
 0.644  1.475  0.327  0.075 -0.017 -0.016 -0.016
 0.646  1.473  0.327  0.076 -0.017 -0.016 -0.016
 0.648  1.473  0.327  0.076 -0.017 -0.015 -0.015
 0.650  1.473  0.327  0.076 -0.016 -0.015 -0.015
 0.652  1.473  0.327  0.077 -0.016 -0.014 -0.014
 0.654  1.473  0.327  0.077 -0.016 -0.014 -0.014
 0.656  1.473  0.327  0.077 -0.016 -0.014 -0.014
 0.658  1.473  0.327  0.078 -0.016 -0.013 -0.013
 0.660  1.473  0.327  0.078 -0.016 -0.013 -0.013
 0.662  1.473  0.326  0.078 -0.016 -0.012 -0.012
 0.664  1.475  0.326  0.079 -0.016 -0.012 -0.012
 0.666  1.475  0.326  0.079 -0.016 -0.012 -0.012
 0.668  1.475  0.326  0.079 -0.015 -0.011 -0.011
 0.670  1.473  0.326  0.080 -0.015 -0.011 -0.011
 0.672  1.473  0.325  0.080 -0.015 -0.011 -0.011
 0.674  1.473  0.325  0.080 -0.015 -0.010 -0.010
 0.676  1.473  0.325  0.080 -0.015 -0.010 -0.010
 0.678  1.473  0.324  0.080 -0.015 -0.009 -0.009
 0.680  1.473  0.324  0.080 -0.015 -0.009 -0.009
 0.682  1.473  0.322  0.080 -0.015 -0.009 -0.009
 0.684  1.473  0.322  0.081 -0.015 -0.008 -0.008
 0.686  1.473  0.322  0.081 -0.015 -0.007 -0.007
 0.688  1.472  0.321  0.081 -0.015 -0.007 -0.007
 0.690  1.472  0.321  0.081 -0.015 -0.007 -0.007
 0.692  1.472  0.320  0.081 -0.015 -0.006 -0.006
 0.694  1.472  0.320  0.081 -0.015 -0.005 -0.005
 0.696  1.472  0.319  0.081 -0.016 -0.005 -0.005
 0.698  1.472  0.317  0.081 -0.016 -0.005 -0.005
 0.700  1.471  0.317  0.081 -0.016 -0.004 -0.004
 0.702  1.471  0.316  0.081 -0.016 -0.003 -0.003
 0.704  1.471  0.315  0.081 -0.016 -0.003 -0.003
 0.706  1.471  0.315  0.081 -0.016 -0.003 -0.003
 0.708  1.470  0.314  0.080 -0.016 -0.002 -0.002
 0.710  1.470  0.312  0.080 -0.016 -0.001 -0.001
 0.712  1.470  0.311  0.080 -0.017 -0.001 -0.001
 0.714  1.469  0.310  0.080 -0.017 -0.001 -0.001
 0.716  1.469  0.310  0.080 -0.017 -0.000 -0.000
 0.718  1.467  0.309  0.079 -0.018  0.000  0.000
 0.720  1.467  0.307  0.079 -0.018  0.001  0.001
 0.722  1.467  0.306  0.079 -0.018  0.002  0.002
 0.724  1.466  0.305  0.079 -0.018  0.002  0.002
 0.726  1.466  0.304  0.078 -0.018  0.003  0.003
 0.728  1.466  0.302  0.078 -0.018  0.004  0.004
 0.730  1.465  0.302  0.078 -0.018  0.004  0.004
 0.732  1.465  0.301  0.078 -0.018  0.005  0.005
 0.734  1.465  0.300  0.079 -0.018  0.006  0.006
 0.736  1.465  0.300  0.079 -0.017  0.006  0.006
 0.738  1.465  0.300  0.079 -0.016  0.007  0.007
 0.740  1.465  0.299  0.080 -0.016  0.008  0.008
 0.742  1.465  0.299  0.081 -0.016  0.009  0.009
 0.744  1.466  0.299  0.081 -0.015  0.010  0.010
 0.746  1.467  0.299  0.082 -0.014  0.010  0.010
 0.748  1.467  0.299  0.083 -0.013  0.011  0.011
 0.750  1.469  0.299  0.083 -0.012  0.012  0.012
 0.752  1.470  0.300  0.084 -0.011  0.013  0.013
 0.754  1.472  0.300  0.086 -0.010  0.014  0.014
 0.756  1.473  0.300  0.087 -0.009  0.015  0.015
 0.758  1.476  0.301  0.088 -0.007  0.016  0.016
 0.760  1.478  0.301  0.090 -0.007  0.017  0.017
 0.762  1.481  0.302  0.091 -0.005  0.018  0.018
 0.764  1.483  0.304  0.093 -0.004  0.019  0.019
 0.766  1.486  0.305  0.094 -0.002  0.020  0.020
 0.768  1.489  0.306  0.096  0.000  0.021  0.021
 0.770  1.493  0.307  0.099  0.002  0.022  0.022
 0.772  1.496  0.309  0.100  0.003  0.023  0.023
 0.774  1.499  0.311  0.102  0.006  0.024  0.024
 0.776  1.503  0.312  0.105  0.008  0.025  0.025
 0.778  1.507  0.315  0.108  0.010  0.026  0.026
 0.780  1.510  0.316  0.109  0.012  0.028  0.028
 0.782  1.515  0.319  0.112  0.015  0.028  0.028
 0.784  1.520  0.321  0.115  0.017  0.030  0.030
 0.786  1.524  0.324  0.117  0.019  0.031  0.031
 0.788  1.529  0.325  0.120  0.022  0.032  0.032
 0.790  1.535  0.327  0.124  0.025  0.033  0.033
 0.792  1.540  0.330  0.126  0.027  0.035  0.035
 0.794  1.546  0.332  0.129  0.029  0.037  0.037
 0.796  1.552  0.336  0.132  0.032  0.038  0.038
 0.798  1.558  0.339  0.134  0.035  0.039  0.039
 0.800  1.563  0.341  0.138  0.038  0.041  0.041
 0.802  1.569  0.344  0.141  0.041  0.043  0.043
 0.804  1.575  0.346  0.143  0.043  0.044  0.044
 0.806  1.580  0.349  0.146  0.046  0.046  0.046
 0.808  1.585  0.351  0.149  0.049  0.048  0.048
