# IsPeriodic    : True
# Period        : 0.690963 days
# Normalization : <g_mag>=0
# 
# Phase u_mag  g_mag  r_mag  i_mag  z_mag  y_mag
 0.000  0.600 -0.553 -0.554 -0.508 -0.465 -0.465
 0.002  0.600 -0.553 -0.554 -0.508 -0.465 -0.465
 0.004  0.601 -0.552 -0.554 -0.508 -0.465 -0.465
 0.006  0.602 -0.551 -0.553 -0.507 -0.465 -0.465
 0.008  0.604 -0.550 -0.552 -0.507 -0.465 -0.465
 0.010  0.606 -0.549 -0.551 -0.506 -0.464 -0.464
 0.012  0.608 -0.547 -0.549 -0.505 -0.464 -0.464
 0.014  0.611 -0.545 -0.548 -0.504 -0.463 -0.463
 0.016  0.613 -0.543 -0.546 -0.502 -0.463 -0.463
 0.018  0.617 -0.541 -0.544 -0.501 -0.462 -0.462
 0.020  0.619 -0.539 -0.542 -0.499 -0.462 -0.462
 0.022  0.623 -0.536 -0.540 -0.498 -0.461 -0.461
 0.024  0.626 -0.533 -0.538 -0.496 -0.460 -0.460
 0.026  0.630 -0.531 -0.536 -0.495 -0.460 -0.460
 0.028  0.633 -0.529 -0.534 -0.493 -0.459 -0.459
 0.030  0.637 -0.525 -0.532 -0.492 -0.458 -0.458
 0.032  0.639 -0.522 -0.530 -0.490 -0.457 -0.457
 0.034  0.643 -0.519 -0.528 -0.488 -0.457 -0.457
 0.036  0.647 -0.517 -0.526 -0.487 -0.456 -0.456
 0.038  0.650 -0.513 -0.524 -0.485 -0.455 -0.455
 0.040  0.654 -0.509 -0.522 -0.484 -0.454 -0.454
 0.042  0.657 -0.507 -0.520 -0.482 -0.453 -0.453
 0.044  0.661 -0.503 -0.518 -0.480 -0.452 -0.452
 0.046  0.665 -0.499 -0.516 -0.479 -0.451 -0.451
 0.048  0.669 -0.496 -0.513 -0.477 -0.450 -0.450
 0.050  0.673 -0.491 -0.511 -0.476 -0.449 -0.449
 0.052  0.678 -0.487 -0.508 -0.474 -0.447 -0.447
 0.054  0.682 -0.483 -0.506 -0.472 -0.446 -0.446
 0.056  0.686 -0.478 -0.504 -0.470 -0.445 -0.445
 0.058  0.691 -0.475 -0.501 -0.469 -0.443 -0.443
 0.060  0.696 -0.469 -0.498 -0.467 -0.442 -0.442
 0.062  0.701 -0.465 -0.495 -0.465 -0.440 -0.440
 0.064  0.706 -0.460 -0.492 -0.463 -0.439 -0.439
 0.066  0.710 -0.455 -0.490 -0.461 -0.438 -0.438
 0.068  0.716 -0.450 -0.487 -0.459 -0.436 -0.436
 0.070  0.722 -0.444 -0.484 -0.457 -0.434 -0.434
 0.072  0.727 -0.440 -0.481 -0.455 -0.433 -0.433
 0.074  0.732 -0.434 -0.478 -0.453 -0.431 -0.431
 0.076  0.737 -0.429 -0.475 -0.452 -0.429 -0.429
 0.078  0.742 -0.423 -0.473 -0.450 -0.428 -0.428
 0.080  0.748 -0.418 -0.469 -0.448 -0.426 -0.426
 0.082  0.753 -0.412 -0.467 -0.446 -0.425 -0.425
 0.084  0.758 -0.407 -0.463 -0.444 -0.423 -0.423
 0.086  0.764 -0.402 -0.461 -0.442 -0.421 -0.421
 0.088  0.769 -0.397 -0.457 -0.440 -0.420 -0.420
 0.090  0.774 -0.391 -0.455 -0.438 -0.418 -0.418
 0.092  0.779 -0.387 -0.451 -0.436 -0.417 -0.417
 0.094  0.784 -0.381 -0.449 -0.434 -0.415 -0.415
 0.096  0.789 -0.377 -0.446 -0.432 -0.414 -0.414
 0.098  0.794 -0.372 -0.443 -0.430 -0.412 -0.412
 0.100  0.799 -0.367 -0.440 -0.428 -0.411 -0.411
 0.102  0.803 -0.362 -0.437 -0.426 -0.409 -0.409
 0.104  0.808 -0.358 -0.434 -0.425 -0.408 -0.408
 0.106  0.812 -0.353 -0.431 -0.423 -0.407 -0.407
 0.108  0.817 -0.349 -0.429 -0.421 -0.405 -0.405
 0.110  0.822 -0.344 -0.426 -0.419 -0.404 -0.404
 0.112  0.826 -0.339 -0.424 -0.417 -0.402 -0.402
 0.114  0.831 -0.335 -0.421 -0.416 -0.401 -0.401
 0.116  0.835 -0.331 -0.418 -0.414 -0.400 -0.400
 0.118  0.838 -0.327 -0.416 -0.412 -0.398 -0.398
 0.120  0.843 -0.323 -0.413 -0.410 -0.397 -0.397
 0.122  0.847 -0.318 -0.410 -0.409 -0.396 -0.396
 0.124  0.850 -0.315 -0.408 -0.407 -0.395 -0.395
 0.126  0.855 -0.310 -0.405 -0.405 -0.393 -0.393
 0.128  0.858 -0.307 -0.402 -0.404 -0.392 -0.392
 0.130  0.862 -0.303 -0.400 -0.402 -0.391 -0.391
 0.132  0.866 -0.299 -0.397 -0.400 -0.390 -0.390
 0.134  0.869 -0.296 -0.394 -0.399 -0.388 -0.388
 0.136  0.873 -0.292 -0.392 -0.397 -0.388 -0.388
 0.138  0.876 -0.288 -0.390 -0.396 -0.386 -0.386
 0.140  0.879 -0.285 -0.387 -0.394 -0.385 -0.385
 0.142  0.883 -0.281 -0.385 -0.392 -0.384 -0.384
 0.144  0.885 -0.277 -0.382 -0.391 -0.383 -0.383
 0.146  0.889 -0.275 -0.380 -0.389 -0.382 -0.382
 0.148  0.892 -0.271 -0.378 -0.388 -0.381 -0.381
 0.150  0.895 -0.267 -0.375 -0.387 -0.379 -0.379
 0.152  0.898 -0.264 -0.373 -0.385 -0.378 -0.378
 0.154  0.902 -0.261 -0.371 -0.383 -0.378 -0.378
 0.156  0.904 -0.257 -0.368 -0.382 -0.376 -0.376
 0.158  0.908 -0.254 -0.366 -0.381 -0.375 -0.375
 0.160  0.910 -0.251 -0.363 -0.379 -0.374 -0.374
 0.162  0.914 -0.247 -0.361 -0.378 -0.373 -0.373
 0.164  0.916 -0.244 -0.359 -0.377 -0.372 -0.372
 0.166  0.920 -0.241 -0.357 -0.375 -0.371 -0.371
 0.168  0.922 -0.237 -0.355 -0.374 -0.369 -0.369
 0.170  0.926 -0.233 -0.352 -0.372 -0.368 -0.368
 0.172  0.928 -0.231 -0.350 -0.371 -0.367 -0.367
 0.174  0.932 -0.227 -0.348 -0.370 -0.366 -0.366
 0.176  0.935 -0.223 -0.345 -0.368 -0.365 -0.365
 0.178  0.938 -0.220 -0.343 -0.367 -0.364 -0.364
 0.180  0.941 -0.216 -0.341 -0.365 -0.363 -0.363
 0.182  0.945 -0.213 -0.339 -0.364 -0.362 -0.362
 0.184  0.947 -0.210 -0.337 -0.363 -0.360 -0.360
 0.186  0.951 -0.206 -0.335 -0.361 -0.359 -0.359
 0.188  0.954 -0.202 -0.333 -0.360 -0.358 -0.358
 0.190  0.957 -0.199 -0.330 -0.359 -0.357 -0.357
 0.192  0.960 -0.195 -0.328 -0.357 -0.356 -0.356
 0.194  0.964 -0.191 -0.326 -0.356 -0.355 -0.355
 0.196  0.966 -0.189 -0.324 -0.355 -0.353 -0.353
 0.198  0.970 -0.185 -0.322 -0.353 -0.352 -0.352
 0.200  0.973 -0.181 -0.320 -0.352 -0.351 -0.351
 0.202  0.976 -0.178 -0.318 -0.351 -0.350 -0.350
 0.204  0.979 -0.174 -0.316 -0.350 -0.348 -0.348
 0.206  0.982 -0.170 -0.314 -0.348 -0.347 -0.347
 0.208  0.986 -0.167 -0.312 -0.347 -0.346 -0.346
 0.210  0.988 -0.163 -0.310 -0.346 -0.345 -0.345
 0.212  0.992 -0.159 -0.308 -0.345 -0.344 -0.344
 0.214  0.995 -0.156 -0.306 -0.343 -0.343 -0.343
 0.216  0.999 -0.152 -0.304 -0.342 -0.341 -0.341
 0.218  1.002 -0.148 -0.302 -0.341 -0.340 -0.340
 0.220  1.005 -0.145 -0.300 -0.339 -0.339 -0.339
 0.222  1.008 -0.141 -0.298 -0.338 -0.338 -0.338
 0.224  1.012 -0.137 -0.296 -0.337 -0.336 -0.336
 0.226  1.015 -0.134 -0.294 -0.336 -0.335 -0.335
 0.228  1.018 -0.130 -0.292 -0.335 -0.334 -0.334
 0.230  1.021 -0.127 -0.290 -0.334 -0.333 -0.333
 0.232  1.024 -0.124 -0.288 -0.332 -0.332 -0.332
 0.234  1.028 -0.120 -0.286 -0.331 -0.330 -0.330
 0.236  1.031 -0.116 -0.284 -0.330 -0.329 -0.329
 0.238  1.034 -0.113 -0.282 -0.328 -0.328 -0.328
 0.240  1.037 -0.110 -0.280 -0.327 -0.327 -0.327
 0.242  1.040 -0.106 -0.278 -0.326 -0.326 -0.326
 0.244  1.043 -0.104 -0.276 -0.325 -0.325 -0.325
 0.246  1.046 -0.100 -0.274 -0.324 -0.324 -0.324
 0.248  1.049 -0.096 -0.272 -0.322 -0.322 -0.322
 0.250  1.053 -0.094 -0.270 -0.321 -0.321 -0.321
 0.252  1.055 -0.090 -0.268 -0.319 -0.320 -0.320
 0.254  1.059 -0.087 -0.266 -0.318 -0.319 -0.319
 0.256  1.061 -0.085 -0.264 -0.317 -0.318 -0.318
 0.258  1.065 -0.081 -0.263 -0.315 -0.316 -0.316
 0.260  1.067 -0.078 -0.261 -0.314 -0.316 -0.316
 0.262  1.070 -0.075 -0.259 -0.312 -0.315 -0.315
 0.264  1.073 -0.072 -0.257 -0.311 -0.313 -0.313
 0.266  1.076 -0.069 -0.255 -0.310 -0.312 -0.312
 0.268  1.079 -0.066 -0.253 -0.308 -0.311 -0.311
 0.270  1.082 -0.063 -0.251 -0.307 -0.310 -0.310
 0.272  1.085 -0.061 -0.249 -0.306 -0.309 -0.309
 0.274  1.088 -0.058 -0.247 -0.304 -0.308 -0.308
 0.276  1.091 -0.055 -0.245 -0.302 -0.306 -0.306
 0.278  1.093 -0.053 -0.243 -0.301 -0.305 -0.305
 0.280  1.097 -0.050 -0.241 -0.299 -0.305 -0.305
 0.282  1.099 -0.047 -0.239 -0.298 -0.304 -0.304
 0.284  1.102 -0.044 -0.237 -0.297 -0.302 -0.302
 0.286  1.104 -0.042 -0.235 -0.295 -0.301 -0.301
 0.288  1.108 -0.039 -0.233 -0.293 -0.300 -0.300
 0.290  1.110 -0.036 -0.231 -0.292 -0.299 -0.299
 0.292  1.113 -0.034 -0.229 -0.290 -0.298 -0.298
 0.294  1.115 -0.032 -0.227 -0.289 -0.297 -0.297
 0.296  1.118 -0.029 -0.225 -0.287 -0.296 -0.296
 0.298  1.121 -0.026 -0.223 -0.285 -0.295 -0.295
 0.300  1.124 -0.023 -0.221 -0.284 -0.294 -0.294
 0.302  1.127 -0.021 -0.219 -0.282 -0.293 -0.293
 0.304  1.129 -0.019 -0.217 -0.281 -0.292 -0.292
 0.306  1.132 -0.016 -0.215 -0.279 -0.290 -0.290
 0.308  1.134 -0.013 -0.214 -0.277 -0.289 -0.289
 0.310  1.137 -0.011 -0.212 -0.276 -0.288 -0.288
 0.312  1.140 -0.008 -0.210 -0.275 -0.287 -0.287
 0.314  1.142 -0.005 -0.208 -0.273 -0.286 -0.286
 0.316  1.145 -0.003 -0.206 -0.272 -0.285 -0.285
 0.318  1.146 -0.000 -0.205 -0.270 -0.284 -0.284
 0.320  1.149  0.002 -0.203 -0.268 -0.282 -0.282
 0.322  1.152  0.005 -0.201 -0.267 -0.281 -0.281
 0.324  1.154  0.008 -0.199 -0.266 -0.280 -0.280
 0.326  1.157  0.011 -0.198 -0.264 -0.279 -0.279
 0.328  1.159  0.013 -0.196 -0.263 -0.278 -0.278
 0.330  1.161  0.016 -0.194 -0.262 -0.276 -0.276
 0.332  1.164  0.019 -0.192 -0.260 -0.275 -0.275
 0.334  1.166  0.021 -0.190 -0.259 -0.274 -0.274
 0.336  1.169  0.024 -0.188 -0.257 -0.273 -0.273
 0.338  1.170  0.027 -0.187 -0.256 -0.272 -0.272
 0.340  1.173  0.030 -0.185 -0.255 -0.270 -0.270
 0.342  1.176  0.032 -0.183 -0.254 -0.269 -0.269
 0.344  1.177  0.035 -0.182 -0.252 -0.268 -0.268
 0.346  1.180  0.038 -0.180 -0.251 -0.266 -0.266
 0.348  1.182  0.041 -0.178 -0.249 -0.265 -0.265
 0.350  1.184  0.043 -0.176 -0.248 -0.264 -0.264
 0.352  1.187  0.046 -0.175 -0.247 -0.263 -0.263
 0.354  1.188  0.049 -0.173 -0.246 -0.262 -0.262
 0.356  1.191  0.052 -0.172 -0.245 -0.260 -0.260
 0.358  1.193  0.054 -0.170 -0.244 -0.259 -0.259
 0.360  1.195  0.057 -0.168 -0.242 -0.258 -0.258
 0.362  1.197  0.060 -0.167 -0.241 -0.256 -0.256
 0.364  1.200  0.063 -0.165 -0.240 -0.255 -0.255
 0.366  1.201  0.065 -0.164 -0.239 -0.254 -0.254
 0.368  1.204  0.068 -0.162 -0.238 -0.253 -0.253
 0.370  1.206  0.071 -0.160 -0.237 -0.251 -0.251
 0.372  1.207  0.074 -0.159 -0.236 -0.250 -0.250
 0.374  1.210  0.076 -0.157 -0.235 -0.249 -0.249
 0.376  1.212  0.079 -0.156 -0.233 -0.247 -0.247
 0.378  1.214  0.081 -0.154 -0.232 -0.246 -0.246
 0.380  1.216  0.084 -0.153 -0.231 -0.245 -0.245
 0.382  1.218  0.086 -0.151 -0.230 -0.244 -0.244
 0.384  1.220  0.089 -0.149 -0.228 -0.243 -0.243
 0.386  1.223  0.092 -0.148 -0.227 -0.242 -0.242
 0.388  1.224  0.094 -0.147 -0.226 -0.240 -0.240
 0.390  1.227  0.096 -0.145 -0.225 -0.239 -0.239
 0.392  1.229  0.099 -0.143 -0.223 -0.238 -0.238
 0.394  1.231  0.101 -0.142 -0.222 -0.236 -0.236
 0.396  1.233  0.104 -0.140 -0.221 -0.235 -0.235
 0.398  1.236  0.106 -0.139 -0.220 -0.234 -0.234
 0.400  1.237  0.108 -0.137 -0.218 -0.233 -0.233
 0.402  1.240  0.111 -0.135 -0.217 -0.232 -0.232
 0.404  1.242  0.113 -0.134 -0.215 -0.231 -0.231
 0.406  1.244  0.116 -0.132 -0.214 -0.230 -0.230
 0.408  1.246  0.117 -0.131 -0.213 -0.228 -0.228
 0.410  1.249  0.120 -0.129 -0.212 -0.227 -0.227
 0.412  1.250  0.122 -0.127 -0.210 -0.226 -0.226
 0.414  1.253  0.124 -0.126 -0.209 -0.225 -0.225
 0.416  1.255  0.127 -0.125 -0.208 -0.224 -0.224
 0.418  1.257  0.128 -0.123 -0.206 -0.222 -0.222
 0.420  1.259  0.130 -0.121 -0.204 -0.222 -0.222
 0.422  1.261  0.133 -0.120 -0.203 -0.221 -0.221
 0.424  1.263  0.135 -0.118 -0.202 -0.219 -0.219
 0.426  1.266  0.137 -0.117 -0.200 -0.218 -0.218
 0.428  1.267  0.138 -0.115 -0.199 -0.217 -0.217
 0.430  1.270  0.141 -0.114 -0.197 -0.216 -0.216
 0.432  1.272  0.143 -0.112 -0.196 -0.215 -0.215
 0.434  1.274  0.145 -0.111 -0.194 -0.214 -0.214
 0.436  1.276  0.147 -0.109 -0.193 -0.213 -0.213
 0.438  1.279  0.148 -0.107 -0.191 -0.212 -0.212
 0.440  1.280  0.150 -0.106 -0.190 -0.211 -0.211
 0.442  1.283  0.152 -0.105 -0.188 -0.210 -0.210
 0.444  1.285  0.154 -0.103 -0.186 -0.209 -0.209
 0.446  1.286  0.156 -0.101 -0.185 -0.207 -0.207
 0.448  1.289  0.158 -0.100 -0.183 -0.206 -0.206
 0.450  1.291  0.159 -0.099 -0.182 -0.205 -0.205
 0.452  1.292  0.161 -0.098 -0.181 -0.204 -0.204
 0.454  1.294  0.163 -0.096 -0.179 -0.203 -0.203
 0.456  1.296  0.165 -0.094 -0.178 -0.202 -0.202
 0.458  1.297  0.167 -0.093 -0.176 -0.201 -0.201
 0.460  1.299  0.168 -0.092 -0.175 -0.200 -0.200
 0.462  1.301  0.169 -0.090 -0.174 -0.199 -0.199
 0.464  1.303  0.171 -0.089 -0.173 -0.198 -0.198
 0.466  1.304  0.173 -0.088 -0.171 -0.197 -0.197
 0.468  1.306  0.175 -0.086 -0.170 -0.196 -0.196
 0.470  1.308  0.176 -0.085 -0.169 -0.195 -0.195
 0.472  1.309  0.178 -0.084 -0.168 -0.193 -0.193
 0.474  1.310  0.180 -0.082 -0.167 -0.192 -0.192
 0.476  1.312  0.180 -0.081 -0.166 -0.191 -0.191
 0.478  1.313  0.182 -0.080 -0.165 -0.191 -0.191
 0.480  1.315  0.184 -0.078 -0.164 -0.190 -0.190
 0.482  1.316  0.185 -0.077 -0.162 -0.188 -0.188
 0.484  1.317  0.187 -0.076 -0.161 -0.187 -0.187
 0.486  1.318  0.188 -0.074 -0.161 -0.186 -0.186
 0.488  1.320  0.190 -0.073 -0.160 -0.185 -0.185
 0.490  1.321  0.190 -0.072 -0.159 -0.184 -0.184
 0.492  1.321  0.192 -0.070 -0.158 -0.183 -0.183
 0.494  1.323  0.193 -0.070 -0.157 -0.182 -0.182
 0.496  1.324  0.195 -0.068 -0.157 -0.181 -0.181
 0.498  1.325  0.196 -0.067 -0.156 -0.180 -0.180
 0.500  1.326  0.197 -0.066 -0.155 -0.179 -0.179
 0.502  1.327  0.199 -0.064 -0.155 -0.178 -0.178
 0.504  1.327  0.200 -0.064 -0.153 -0.177 -0.177
 0.506  1.328  0.201 -0.062 -0.153 -0.176 -0.176
 0.508  1.329  0.202 -0.061 -0.152 -0.175 -0.175
 0.510  1.330  0.203 -0.060 -0.152 -0.174 -0.174
 0.512  1.331  0.204 -0.059 -0.151 -0.173 -0.173
 0.514  1.332  0.205 -0.058 -0.151 -0.172 -0.172
 0.516  1.333  0.207 -0.056 -0.150 -0.171 -0.171
 0.518  1.333  0.208 -0.056 -0.149 -0.170 -0.170
 0.520  1.334  0.209 -0.054 -0.149 -0.169 -0.169
 0.522  1.335  0.210 -0.054 -0.148 -0.168 -0.168
 0.524  1.335  0.211 -0.052 -0.148 -0.167 -0.167
 0.526  1.336  0.211 -0.051 -0.147 -0.166 -0.166
 0.528  1.337  0.212 -0.050 -0.147 -0.165 -0.165
 0.530  1.338  0.213 -0.050 -0.146 -0.165 -0.165
 0.532  1.339  0.214 -0.048 -0.146 -0.164 -0.164
 0.534  1.339  0.216 -0.048 -0.144 -0.163 -0.163
 0.536  1.339  0.217 -0.046 -0.144 -0.162 -0.162
 0.538  1.340  0.217 -0.046 -0.143 -0.161 -0.161
 0.540  1.341  0.218 -0.045 -0.143 -0.160 -0.160
 0.542  1.341  0.219 -0.044 -0.142 -0.160 -0.160
 0.544  1.342  0.220 -0.043 -0.141 -0.159 -0.159
 0.546  1.343  0.221 -0.043 -0.141 -0.158 -0.158
 0.548  1.344  0.222 -0.041 -0.140 -0.157 -0.157
 0.550  1.344  0.222 -0.041 -0.139 -0.156 -0.156
 0.552  1.345  0.223 -0.040 -0.139 -0.156 -0.156
 0.554  1.346  0.224 -0.039 -0.138 -0.155 -0.155
 0.556  1.346  0.224 -0.039 -0.137 -0.154 -0.154
 0.558  1.346  0.225 -0.038 -0.137 -0.153 -0.153
 0.560  1.346  0.226 -0.037 -0.136 -0.153 -0.153
 0.562  1.347  0.227 -0.036 -0.135 -0.152 -0.152
 0.564  1.348  0.227 -0.035 -0.134 -0.151 -0.151
 0.566  1.348  0.228 -0.035 -0.133 -0.150 -0.150
 0.568  1.349  0.229 -0.034 -0.133 -0.150 -0.150
 0.570  1.349  0.229 -0.033 -0.132 -0.149 -0.149
 0.572  1.350  0.230 -0.033 -0.131 -0.149 -0.149
 0.574  1.350  0.231 -0.032 -0.130 -0.148 -0.148
 0.576  1.351  0.231 -0.032 -0.130 -0.147 -0.147
 0.578  1.351  0.232 -0.031 -0.129 -0.147 -0.147
 0.580  1.352  0.232 -0.031 -0.128 -0.146 -0.146
 0.582  1.352  0.233 -0.030 -0.127 -0.145 -0.145
 0.584  1.352  0.233 -0.029 -0.126 -0.145 -0.145
 0.586  1.352  0.233 -0.029 -0.125 -0.144 -0.144
 0.588  1.353  0.233 -0.029 -0.125 -0.143 -0.143
 0.590  1.353  0.234 -0.028 -0.124 -0.143 -0.143
 0.592  1.353  0.234 -0.027 -0.123 -0.142 -0.142
 0.594  1.354  0.234 -0.027 -0.122 -0.141 -0.141
 0.596  1.354  0.235 -0.027 -0.122 -0.141 -0.141
 0.598  1.354  0.235 -0.027 -0.121 -0.140 -0.140
 0.600  1.355  0.235 -0.026 -0.120 -0.140 -0.140
 0.602  1.355  0.236 -0.026 -0.119 -0.139 -0.139
 0.604  1.355  0.236 -0.025 -0.119 -0.138 -0.138
 0.606  1.356  0.236 -0.025 -0.118 -0.138 -0.138
 0.608  1.356  0.236 -0.025 -0.117 -0.137 -0.137
 0.610  1.356  0.237 -0.025 -0.116 -0.136 -0.136
 0.612  1.356  0.237 -0.025 -0.116 -0.136 -0.136
 0.614  1.357  0.237 -0.024 -0.115 -0.135 -0.135
 0.616  1.357  0.237 -0.024 -0.114 -0.134 -0.134
 0.618  1.357  0.237 -0.024 -0.114 -0.134 -0.134
 0.620  1.357  0.237 -0.023 -0.113 -0.133 -0.133
 0.622  1.357  0.237 -0.023 -0.113 -0.132 -0.132
 0.624  1.357  0.238 -0.023 -0.112 -0.132 -0.132
 0.626  1.358  0.238 -0.023 -0.112 -0.131 -0.131
 0.628  1.358  0.238 -0.023 -0.111 -0.130 -0.130
 0.630  1.358  0.237 -0.023 -0.111 -0.129 -0.129
 0.632  1.358  0.237 -0.023 -0.110 -0.129 -0.129
 0.634  1.358  0.237 -0.023 -0.110 -0.129 -0.129
 0.636  1.358  0.237 -0.023 -0.109 -0.128 -0.128
 0.638  1.358  0.237 -0.023 -0.108 -0.127 -0.127
 0.640  1.358  0.237 -0.023 -0.108 -0.126 -0.126
 0.642  1.358  0.237 -0.023 -0.107 -0.126 -0.126
 0.644  1.358  0.236 -0.023 -0.107 -0.125 -0.125
 0.646  1.358  0.236 -0.023 -0.106 -0.124 -0.124
 0.648  1.358  0.236 -0.024 -0.106 -0.124 -0.124
 0.650  1.358  0.236 -0.024 -0.106 -0.123 -0.123
 0.652  1.358  0.236 -0.024 -0.105 -0.122 -0.122
 0.654  1.358  0.236 -0.024 -0.105 -0.121 -0.121
 0.656  1.357  0.236 -0.024 -0.104 -0.121 -0.121
 0.658  1.357  0.236 -0.024 -0.104 -0.120 -0.120
 0.660  1.357  0.236 -0.024 -0.104 -0.119 -0.119
 0.662  1.357  0.236 -0.024 -0.103 -0.119 -0.119
 0.664  1.357  0.236 -0.024 -0.103 -0.118 -0.118
 0.666  1.357  0.236 -0.024 -0.102 -0.117 -0.117
 0.668  1.356  0.236 -0.024 -0.102 -0.116 -0.116
 0.670  1.356  0.236 -0.023 -0.101 -0.116 -0.116
 0.672  1.356  0.237 -0.023 -0.101 -0.115 -0.115
 0.674  1.356  0.237 -0.023 -0.100 -0.114 -0.114
 0.676  1.355  0.237 -0.023 -0.099 -0.113 -0.113
 0.678  1.355  0.238 -0.023 -0.098 -0.112 -0.112
 0.680  1.355  0.238 -0.023 -0.098 -0.111 -0.111
 0.682  1.354  0.239 -0.022 -0.097 -0.110 -0.110
 0.684  1.354  0.239 -0.022 -0.096 -0.109 -0.109
 0.686  1.354  0.240 -0.021 -0.095 -0.109 -0.109
 0.688  1.353  0.240 -0.021 -0.095 -0.108 -0.108
 0.690  1.353  0.241 -0.021 -0.094 -0.107 -0.107
 0.692  1.353  0.242 -0.020 -0.093 -0.106 -0.106
 0.694  1.352  0.242 -0.019 -0.092 -0.105 -0.105
 0.696  1.352  0.243 -0.019 -0.091 -0.104 -0.104
 0.698  1.352  0.243 -0.018 -0.090 -0.103 -0.103
 0.700  1.352  0.244 -0.017 -0.089 -0.102 -0.102
 0.702  1.352  0.245 -0.017 -0.088 -0.101 -0.101
 0.704  1.351  0.246 -0.016 -0.087 -0.100 -0.100
 0.706  1.351  0.247 -0.015 -0.086 -0.099 -0.099
 0.708  1.350  0.248 -0.015 -0.085 -0.098 -0.098
 0.710  1.350  0.249 -0.014 -0.084 -0.098 -0.098
 0.712  1.349  0.250 -0.013 -0.082 -0.097 -0.097
 0.714  1.348  0.251 -0.013 -0.081 -0.096 -0.096
 0.716  1.348  0.252 -0.012 -0.080 -0.095 -0.095
 0.718  1.347  0.253 -0.011 -0.079 -0.093 -0.093
 0.720  1.347  0.254 -0.010 -0.078 -0.092 -0.092
 0.722  1.346  0.255 -0.009 -0.077 -0.091 -0.091
 0.724  1.346  0.256 -0.008 -0.076 -0.090 -0.090
 0.726  1.346  0.258 -0.007 -0.074 -0.088 -0.088
 0.728  1.346  0.259 -0.005 -0.072 -0.087 -0.087
 0.730  1.346  0.261 -0.004 -0.071 -0.086 -0.086
 0.732  1.346  0.263 -0.003 -0.070 -0.084 -0.084
 0.734  1.346  0.264 -0.001 -0.068 -0.083 -0.083
 0.736  1.347  0.266 -0.000 -0.067 -0.081 -0.081
 0.738  1.348  0.268  0.002 -0.065 -0.079 -0.079
 0.740  1.349  0.270  0.003 -0.063 -0.077 -0.077
 0.742  1.350  0.272  0.005 -0.062 -0.075 -0.075
 0.744  1.352  0.274  0.007 -0.060 -0.073 -0.073
 0.746  1.352  0.276  0.009 -0.058 -0.071 -0.071
 0.748  1.354  0.278  0.011 -0.056 -0.069 -0.069
 0.750  1.355  0.281  0.013 -0.054 -0.067 -0.067
 0.752  1.357  0.283  0.015 -0.052 -0.065 -0.065
 0.754  1.358  0.285  0.018 -0.050 -0.062 -0.062
 0.756  1.361  0.287  0.020 -0.048 -0.060 -0.060
 0.758  1.363  0.290  0.022 -0.046 -0.058 -0.058
 0.760  1.364  0.293  0.024 -0.044 -0.056 -0.056
 0.762  1.367  0.295  0.027 -0.042 -0.053 -0.053
 0.764  1.370  0.297  0.030 -0.040 -0.050 -0.050
 0.766  1.372  0.300  0.032 -0.037 -0.047 -0.047
 0.768  1.375  0.304  0.035 -0.035 -0.045 -0.045
 0.770  1.378  0.307  0.038 -0.032 -0.042 -0.042
 0.772  1.382  0.310  0.042 -0.030 -0.039 -0.039
 0.774  1.385  0.313  0.045 -0.027 -0.036 -0.036
 0.776  1.388  0.317  0.048 -0.025 -0.032 -0.032
 0.778  1.393  0.320  0.052 -0.022 -0.029 -0.029
 0.780  1.396  0.324  0.055 -0.019 -0.026 -0.026
 0.782  1.400  0.328  0.058 -0.016 -0.022 -0.022
 0.784  1.404  0.331  0.062 -0.014 -0.019 -0.019
 0.786  1.408  0.335  0.065 -0.010 -0.016 -0.016
 0.788  1.412  0.338  0.069 -0.008 -0.013 -0.013
 0.790  1.417  0.341  0.073 -0.005 -0.009 -0.009
 0.792  1.421  0.344  0.076 -0.002 -0.006 -0.006
 0.794  1.424  0.347  0.079  0.001 -0.004 -0.004
 0.796  1.429  0.349  0.083  0.004 -0.001 -0.001
 0.798  1.432  0.352  0.086  0.007  0.001  0.001
 0.800  1.436  0.354  0.089  0.010  0.004  0.004
 0.802  1.439  0.356  0.092  0.012  0.005  0.005
 0.804  1.442  0.358  0.095  0.015  0.007  0.007
 0.806  1.446  0.359  0.097  0.017  0.008  0.008
 0.808  1.448  0.359  0.099  0.019  0.010  0.010
