# IsPeriodic    : True
# Period        : 0.436911 days
# Normalization : <g_mag>=0
# 
# Phase u_mag  g_mag  r_mag  i_mag  z_mag  y_mag
 0.000  0.818 -0.296 -0.279 -0.266 -0.267 -0.267
 0.002  0.818 -0.296 -0.279 -0.266 -0.267 -0.267
 0.004  0.818 -0.295 -0.279 -0.266 -0.267 -0.267
 0.006  0.819 -0.295 -0.279 -0.266 -0.267 -0.267
 0.008  0.819 -0.295 -0.279 -0.266 -0.267 -0.267
 0.010  0.820 -0.294 -0.278 -0.265 -0.266 -0.266
 0.012  0.821 -0.294 -0.278 -0.265 -0.266 -0.266
 0.014  0.822 -0.293 -0.278 -0.264 -0.266 -0.266
 0.016  0.823 -0.293 -0.277 -0.264 -0.265 -0.265
 0.018  0.824 -0.292 -0.277 -0.263 -0.265 -0.265
 0.020  0.825 -0.291 -0.276 -0.263 -0.264 -0.264
 0.022  0.827 -0.291 -0.276 -0.262 -0.264 -0.264
 0.024  0.828 -0.290 -0.275 -0.261 -0.263 -0.263
 0.026  0.829 -0.289 -0.275 -0.261 -0.263 -0.263
 0.028  0.830 -0.288 -0.274 -0.260 -0.262 -0.262
 0.030  0.832 -0.287 -0.273 -0.259 -0.262 -0.262
 0.032  0.833 -0.286 -0.272 -0.259 -0.261 -0.261
 0.034  0.835 -0.285 -0.271 -0.258 -0.261 -0.261
 0.036  0.836 -0.283 -0.270 -0.257 -0.260 -0.260
 0.038  0.838 -0.282 -0.269 -0.257 -0.260 -0.260
 0.040  0.839 -0.281 -0.268 -0.256 -0.259 -0.259
 0.042  0.841 -0.280 -0.267 -0.255 -0.258 -0.258
 0.044  0.842 -0.278 -0.266 -0.255 -0.257 -0.257
 0.046  0.844 -0.276 -0.265 -0.254 -0.256 -0.256
 0.048  0.846 -0.275 -0.263 -0.253 -0.256 -0.256
 0.050  0.848 -0.273 -0.262 -0.253 -0.255 -0.255
 0.052  0.849 -0.271 -0.260 -0.252 -0.254 -0.254
 0.054  0.851 -0.270 -0.259 -0.251 -0.253 -0.253
 0.056  0.853 -0.268 -0.257 -0.251 -0.253 -0.253
 0.058  0.855 -0.266 -0.256 -0.250 -0.252 -0.252
 0.060  0.857 -0.264 -0.254 -0.249 -0.251 -0.251
 0.062  0.859 -0.262 -0.252 -0.248 -0.250 -0.250
 0.064  0.861 -0.260 -0.251 -0.248 -0.249 -0.249
 0.066  0.864 -0.258 -0.249 -0.247 -0.248 -0.248
 0.068  0.866 -0.256 -0.248 -0.247 -0.247 -0.247
 0.070  0.868 -0.254 -0.246 -0.246 -0.246 -0.246
 0.072  0.871 -0.251 -0.245 -0.245 -0.245 -0.245
 0.074  0.873 -0.249 -0.243 -0.244 -0.244 -0.244
 0.076  0.875 -0.246 -0.241 -0.244 -0.243 -0.243
 0.078  0.878 -0.244 -0.240 -0.243 -0.241 -0.241
 0.080  0.880 -0.242 -0.238 -0.242 -0.241 -0.241
 0.082  0.883 -0.239 -0.237 -0.241 -0.239 -0.239
 0.084  0.885 -0.237 -0.235 -0.241 -0.238 -0.238
 0.086  0.888 -0.235 -0.234 -0.240 -0.237 -0.237
 0.088  0.890 -0.232 -0.233 -0.239 -0.236 -0.236
 0.090  0.893 -0.230 -0.231 -0.239 -0.235 -0.235
 0.092  0.895 -0.228 -0.230 -0.238 -0.234 -0.234
 0.094  0.897 -0.226 -0.229 -0.237 -0.233 -0.233
 0.096  0.899 -0.223 -0.227 -0.236 -0.232 -0.232
 0.098  0.902 -0.221 -0.226 -0.236 -0.231 -0.231
 0.100  0.904 -0.218 -0.225 -0.235 -0.230 -0.230
 0.102  0.907 -0.216 -0.224 -0.234 -0.229 -0.229
 0.104  0.909 -0.214 -0.223 -0.233 -0.228 -0.228
 0.106  0.911 -0.212 -0.221 -0.232 -0.228 -0.228
 0.108  0.913 -0.210 -0.220 -0.232 -0.227 -0.227
 0.110  0.915 -0.207 -0.219 -0.231 -0.226 -0.226
 0.112  0.917 -0.205 -0.218 -0.230 -0.225 -0.225
 0.114  0.919 -0.203 -0.217 -0.229 -0.224 -0.224
 0.116  0.922 -0.201 -0.216 -0.228 -0.223 -0.223
 0.118  0.924 -0.199 -0.215 -0.227 -0.222 -0.222
 0.120  0.925 -0.197 -0.214 -0.226 -0.221 -0.221
 0.122  0.927 -0.195 -0.213 -0.225 -0.221 -0.221
 0.124  0.929 -0.193 -0.212 -0.224 -0.220 -0.220
 0.126  0.931 -0.190 -0.211 -0.224 -0.219 -0.219
 0.128  0.933 -0.188 -0.210 -0.222 -0.218 -0.218
 0.130  0.935 -0.186 -0.210 -0.222 -0.217 -0.217
 0.132  0.937 -0.184 -0.209 -0.221 -0.216 -0.216
 0.134  0.938 -0.182 -0.208 -0.220 -0.216 -0.216
 0.136  0.940 -0.180 -0.207 -0.219 -0.215 -0.215
 0.138  0.942 -0.178 -0.206 -0.218 -0.214 -0.214
 0.140  0.944 -0.176 -0.205 -0.217 -0.213 -0.213
 0.142  0.945 -0.174 -0.205 -0.216 -0.212 -0.212
 0.144  0.947 -0.172 -0.204 -0.215 -0.212 -0.212
 0.146  0.948 -0.170 -0.203 -0.214 -0.211 -0.211
 0.148  0.950 -0.168 -0.202 -0.212 -0.210 -0.210
 0.150  0.951 -0.166 -0.201 -0.211 -0.210 -0.210
 0.152  0.953 -0.164 -0.200 -0.210 -0.209 -0.209
 0.154  0.954 -0.162 -0.200 -0.209 -0.208 -0.208
 0.156  0.956 -0.160 -0.199 -0.208 -0.207 -0.207
 0.158  0.957 -0.158 -0.198 -0.207 -0.207 -0.207
 0.160  0.959 -0.156 -0.197 -0.206 -0.206 -0.206
 0.162  0.960 -0.154 -0.196 -0.205 -0.205 -0.205
 0.164  0.961 -0.152 -0.195 -0.204 -0.205 -0.205
 0.166  0.963 -0.150 -0.194 -0.202 -0.204 -0.204
 0.168  0.964 -0.148 -0.193 -0.201 -0.203 -0.203
 0.170  0.966 -0.146 -0.192 -0.200 -0.203 -0.203
 0.172  0.967 -0.143 -0.191 -0.199 -0.202 -0.202
 0.174  0.969 -0.141 -0.190 -0.198 -0.201 -0.201
 0.176  0.970 -0.139 -0.189 -0.197 -0.200 -0.200
 0.178  0.972 -0.137 -0.188 -0.196 -0.200 -0.200
 0.180  0.973 -0.135 -0.187 -0.195 -0.199 -0.199
 0.182  0.975 -0.132 -0.186 -0.194 -0.198 -0.198
 0.184  0.977 -0.130 -0.185 -0.193 -0.197 -0.197
 0.186  0.978 -0.128 -0.184 -0.192 -0.197 -0.197
 0.188  0.980 -0.126 -0.183 -0.191 -0.196 -0.196
 0.190  0.981 -0.124 -0.182 -0.190 -0.195 -0.195
 0.192  0.983 -0.122 -0.181 -0.190 -0.194 -0.194
 0.194  0.984 -0.120 -0.180 -0.188 -0.194 -0.194
 0.196  0.986 -0.117 -0.179 -0.188 -0.193 -0.193
 0.198  0.987 -0.115 -0.178 -0.187 -0.192 -0.192
 0.200  0.989 -0.113 -0.177 -0.186 -0.192 -0.192
 0.202  0.990 -0.111 -0.176 -0.185 -0.191 -0.191
 0.204  0.992 -0.109 -0.175 -0.184 -0.190 -0.190
 0.206  0.993 -0.106 -0.174 -0.184 -0.189 -0.189
 0.208  0.995 -0.104 -0.173 -0.183 -0.189 -0.189
 0.210  0.997 -0.101 -0.172 -0.182 -0.188 -0.188
 0.212  0.998 -0.099 -0.171 -0.181 -0.187 -0.187
 0.214  1.000 -0.097 -0.170 -0.180 -0.187 -0.187
 0.216  1.001 -0.094 -0.169 -0.180 -0.186 -0.186
 0.218  1.003 -0.092 -0.167 -0.179 -0.185 -0.185
 0.220  1.004 -0.090 -0.166 -0.178 -0.184 -0.184
 0.222  1.006 -0.088 -0.165 -0.177 -0.184 -0.184
 0.224  1.008 -0.085 -0.164 -0.177 -0.183 -0.183
 0.226  1.009 -0.083 -0.163 -0.176 -0.182 -0.182
 0.228  1.011 -0.081 -0.162 -0.175 -0.181 -0.181
 0.230  1.012 -0.078 -0.161 -0.175 -0.181 -0.181
 0.232  1.014 -0.076 -0.160 -0.174 -0.180 -0.180
 0.234  1.015 -0.073 -0.159 -0.173 -0.179 -0.179
 0.236  1.017 -0.071 -0.158 -0.173 -0.178 -0.178
 0.238  1.019 -0.069 -0.157 -0.172 -0.178 -0.178
 0.240  1.020 -0.067 -0.156 -0.171 -0.177 -0.177
 0.242  1.022 -0.064 -0.155 -0.171 -0.176 -0.176
 0.244  1.023 -0.062 -0.154 -0.170 -0.175 -0.175
 0.246  1.025 -0.060 -0.153 -0.169 -0.175 -0.175
 0.248  1.026 -0.058 -0.152 -0.169 -0.174 -0.174
 0.250  1.028 -0.055 -0.151 -0.168 -0.173 -0.173
 0.252  1.029 -0.053 -0.150 -0.167 -0.173 -0.173
 0.254  1.031 -0.050 -0.149 -0.166 -0.172 -0.172
 0.256  1.032 -0.048 -0.148 -0.165 -0.171 -0.171
 0.258  1.034 -0.046 -0.147 -0.165 -0.170 -0.170
 0.260  1.035 -0.044 -0.145 -0.164 -0.170 -0.170
 0.262  1.036 -0.041 -0.145 -0.163 -0.169 -0.169
 0.264  1.038 -0.039 -0.144 -0.162 -0.168 -0.168
 0.266  1.039 -0.037 -0.142 -0.161 -0.168 -0.168
 0.268  1.041 -0.035 -0.141 -0.161 -0.167 -0.167
 0.270  1.042 -0.032 -0.140 -0.160 -0.166 -0.166
 0.272  1.043 -0.030 -0.140 -0.159 -0.165 -0.165
 0.274  1.045 -0.028 -0.138 -0.158 -0.165 -0.165
 0.276  1.046 -0.026 -0.137 -0.157 -0.164 -0.164
 0.278  1.048 -0.024 -0.136 -0.156 -0.163 -0.163
 0.280  1.049 -0.021 -0.135 -0.155 -0.162 -0.162
 0.282  1.050 -0.019 -0.134 -0.154 -0.162 -0.162
 0.284  1.052 -0.016 -0.133 -0.153 -0.161 -0.161
 0.286  1.053 -0.014 -0.132 -0.152 -0.160 -0.160
 0.288  1.054 -0.012 -0.131 -0.151 -0.159 -0.159
 0.290  1.056 -0.010 -0.130 -0.151 -0.159 -0.159
 0.292  1.057 -0.008 -0.129 -0.150 -0.158 -0.158
 0.294  1.058 -0.006 -0.128 -0.148 -0.157 -0.157
 0.296  1.059 -0.004 -0.127 -0.147 -0.156 -0.156
 0.298  1.061 -0.001 -0.125 -0.146 -0.156 -0.156
 0.300  1.062  0.001 -0.124 -0.145 -0.155 -0.155
 0.302  1.063  0.003 -0.123 -0.144 -0.154 -0.154
 0.304  1.064  0.005 -0.122 -0.143 -0.153 -0.153
 0.306  1.066  0.007 -0.121 -0.142 -0.153 -0.153
 0.308  1.067  0.009 -0.120 -0.141 -0.152 -0.152
 0.310  1.068  0.011 -0.118 -0.140 -0.151 -0.151
 0.312  1.070  0.013 -0.117 -0.139 -0.150 -0.150
 0.314  1.071  0.015 -0.116 -0.138 -0.149 -0.149
 0.316  1.072  0.017 -0.115 -0.137 -0.149 -0.149
 0.318  1.073  0.019 -0.114 -0.136 -0.148 -0.148
 0.320  1.075  0.020 -0.112 -0.135 -0.147 -0.147
 0.322  1.076  0.022 -0.111 -0.134 -0.146 -0.146
 0.324  1.077  0.024 -0.110 -0.133 -0.146 -0.146
 0.326  1.078  0.026 -0.108 -0.132 -0.145 -0.145
 0.328  1.079  0.027 -0.107 -0.131 -0.144 -0.144
 0.330  1.081  0.029 -0.106 -0.130 -0.143 -0.143
 0.332  1.081  0.031 -0.105 -0.129 -0.143 -0.143
 0.334  1.083  0.032 -0.103 -0.128 -0.142 -0.142
 0.336  1.084  0.035 -0.102 -0.127 -0.141 -0.141
 0.338  1.085  0.036 -0.100 -0.126 -0.140 -0.140
 0.340  1.086  0.038 -0.099 -0.125 -0.140 -0.140
 0.342  1.087  0.039 -0.098 -0.124 -0.139 -0.139
 0.344  1.088  0.041 -0.096 -0.123 -0.138 -0.138
 0.346  1.090  0.042 -0.095 -0.122 -0.137 -0.137
 0.348  1.091  0.044 -0.093 -0.121 -0.137 -0.137
 0.350  1.092  0.045 -0.092 -0.120 -0.136 -0.136
 0.352  1.093  0.047 -0.091 -0.119 -0.135 -0.135
 0.354  1.094  0.048 -0.089 -0.118 -0.134 -0.134
 0.356  1.095  0.049 -0.088 -0.117 -0.134 -0.134
 0.358  1.096  0.051 -0.087 -0.116 -0.133 -0.133
 0.360  1.097  0.052 -0.085 -0.115 -0.132 -0.132
 0.362  1.098  0.053 -0.084 -0.114 -0.131 -0.131
 0.364  1.099  0.055 -0.083 -0.113 -0.130 -0.130
 0.366  1.100  0.056 -0.082 -0.112 -0.130 -0.130
 0.368  1.101  0.057 -0.080 -0.112 -0.129 -0.129
 0.370  1.102  0.059 -0.079 -0.111 -0.128 -0.128
 0.372  1.104  0.060 -0.078 -0.110 -0.127 -0.127
 0.374  1.104  0.062 -0.077 -0.109 -0.126 -0.126
 0.376  1.106  0.063 -0.076 -0.108 -0.126 -0.126
 0.378  1.106  0.065 -0.075 -0.107 -0.125 -0.125
 0.380  1.108  0.066 -0.074 -0.106 -0.124 -0.124
 0.382  1.109  0.067 -0.072 -0.105 -0.123 -0.123
 0.384  1.110  0.069 -0.071 -0.104 -0.122 -0.122
 0.386  1.111  0.070 -0.070 -0.104 -0.122 -0.122
 0.388  1.112  0.072 -0.069 -0.102 -0.121 -0.121
 0.390  1.113  0.073 -0.068 -0.102 -0.120 -0.120
 0.392  1.114  0.074 -0.067 -0.101 -0.119 -0.119
 0.394  1.115  0.076 -0.066 -0.100 -0.118 -0.118
 0.396  1.116  0.077 -0.065 -0.099 -0.118 -0.118
 0.398  1.117  0.079 -0.065 -0.098 -0.117 -0.117
 0.400  1.118  0.080 -0.064 -0.097 -0.116 -0.116
 0.402  1.120  0.082 -0.063 -0.097 -0.115 -0.115
 0.404  1.120  0.083 -0.062 -0.096 -0.115 -0.115
 0.406  1.122  0.085 -0.061 -0.095 -0.114 -0.114
 0.408  1.123  0.086 -0.060 -0.094 -0.113 -0.113
 0.410  1.124  0.088 -0.059 -0.093 -0.112 -0.112
 0.412  1.125  0.090 -0.059 -0.092 -0.112 -0.112
 0.414  1.126  0.091 -0.058 -0.092 -0.111 -0.111
 0.416  1.127  0.093 -0.057 -0.091 -0.110 -0.110
 0.418  1.129  0.095 -0.056 -0.090 -0.109 -0.109
 0.420  1.129  0.096 -0.055 -0.089 -0.108 -0.108
 0.422  1.131  0.098 -0.055 -0.088 -0.108 -0.108
 0.424  1.132  0.099 -0.054 -0.088 -0.107 -0.107
 0.426  1.133  0.101 -0.053 -0.087 -0.106 -0.106
 0.428  1.134  0.103 -0.053 -0.086 -0.105 -0.105
 0.430  1.135  0.104 -0.052 -0.085 -0.105 -0.105
 0.432  1.137  0.106 -0.051 -0.084 -0.104 -0.104
 0.434  1.137  0.108 -0.051 -0.084 -0.103 -0.103
 0.436  1.139  0.109 -0.050 -0.083 -0.102 -0.102
 0.438  1.140  0.111 -0.049 -0.082 -0.102 -0.102
 0.440  1.141  0.112 -0.048 -0.081 -0.101 -0.101
 0.442  1.142  0.114 -0.048 -0.081 -0.100 -0.100
 0.444  1.143  0.115 -0.047 -0.080 -0.099 -0.099
 0.446  1.144  0.117 -0.046 -0.079 -0.099 -0.099
 0.448  1.146  0.119 -0.046 -0.078 -0.098 -0.098
 0.450  1.147  0.120 -0.045 -0.077 -0.097 -0.097
 0.452  1.148  0.122 -0.044 -0.077 -0.097 -0.097
 0.454  1.148  0.123 -0.043 -0.076 -0.096 -0.096
 0.456  1.150  0.125 -0.043 -0.075 -0.095 -0.095
 0.458  1.151  0.126 -0.042 -0.074 -0.095 -0.095
 0.460  1.151  0.127 -0.041 -0.074 -0.094 -0.094
 0.462  1.153  0.129 -0.041 -0.073 -0.093 -0.093
 0.464  1.154  0.130 -0.040 -0.072 -0.093 -0.093
 0.466  1.154  0.131 -0.039 -0.071 -0.092 -0.092
 0.468  1.155  0.132 -0.038 -0.071 -0.091 -0.091
 0.470  1.156  0.133 -0.038 -0.070 -0.091 -0.091
 0.472  1.157  0.135 -0.037 -0.069 -0.090 -0.090
 0.474  1.158  0.136 -0.036 -0.069 -0.089 -0.089
 0.476  1.159  0.137 -0.036 -0.068 -0.089 -0.089
 0.478  1.159  0.138 -0.035 -0.067 -0.088 -0.088
 0.480  1.160  0.139 -0.034 -0.066 -0.088 -0.088
 0.482  1.161  0.140 -0.033 -0.066 -0.087 -0.087
 0.484  1.162  0.141 -0.033 -0.065 -0.086 -0.086
 0.486  1.162  0.142 -0.032 -0.064 -0.086 -0.086
 0.488  1.163  0.143 -0.031 -0.064 -0.085 -0.085
 0.490  1.164  0.144 -0.031 -0.063 -0.085 -0.085
 0.492  1.165  0.145 -0.030 -0.062 -0.084 -0.084
 0.494  1.165  0.146 -0.029 -0.061 -0.084 -0.084
 0.496  1.166  0.147 -0.029 -0.061 -0.083 -0.083
 0.498  1.166  0.148 -0.028 -0.060 -0.083 -0.083
 0.500  1.167  0.149 -0.027 -0.059 -0.082 -0.082
 0.502  1.168  0.150 -0.027 -0.058 -0.081 -0.081
 0.504  1.168  0.151 -0.026 -0.058 -0.081 -0.081
 0.506  1.168  0.151 -0.026 -0.057 -0.080 -0.080
 0.508  1.169  0.152 -0.025 -0.056 -0.080 -0.080
 0.510  1.170  0.153 -0.024 -0.055 -0.079 -0.079
 0.512  1.170  0.154 -0.024 -0.055 -0.079 -0.079
 0.514  1.171  0.154 -0.023 -0.054 -0.078 -0.078
 0.516  1.171  0.155 -0.023 -0.053 -0.078 -0.078
 0.518  1.171  0.156 -0.022 -0.053 -0.077 -0.077
 0.520  1.172  0.157 -0.022 -0.052 -0.077 -0.077
 0.522  1.172  0.157 -0.021 -0.051 -0.076 -0.076
 0.524  1.173  0.158 -0.021 -0.051 -0.076 -0.076
 0.526  1.173  0.159 -0.021 -0.050 -0.075 -0.075
 0.528  1.173  0.159 -0.020 -0.049 -0.074 -0.074
 0.530  1.174  0.160 -0.020 -0.048 -0.074 -0.074
 0.532  1.174  0.161 -0.019 -0.048 -0.074 -0.074
 0.534  1.175  0.161 -0.019 -0.047 -0.073 -0.073
 0.536  1.175  0.162 -0.018 -0.047 -0.072 -0.072
 0.538  1.176  0.163 -0.018 -0.046 -0.072 -0.072
 0.540  1.176  0.163 -0.018 -0.045 -0.071 -0.071
 0.542  1.176  0.164 -0.017 -0.045 -0.071 -0.071
 0.544  1.176  0.165 -0.017 -0.044 -0.070 -0.070
 0.546  1.177  0.165 -0.017 -0.043 -0.070 -0.070
 0.548  1.177  0.166 -0.016 -0.043 -0.069 -0.069
 0.550  1.177  0.167 -0.016 -0.042 -0.068 -0.068
 0.552  1.178  0.167 -0.016 -0.041 -0.068 -0.068
 0.554  1.178  0.168 -0.016 -0.041 -0.067 -0.067
 0.556  1.178  0.168 -0.016 -0.040 -0.067 -0.067
 0.558  1.179  0.169 -0.015 -0.040 -0.066 -0.066
 0.560  1.179  0.170 -0.015 -0.039 -0.065 -0.065
 0.562  1.179  0.170 -0.015 -0.039 -0.065 -0.065
 0.564  1.179  0.171 -0.015 -0.038 -0.064 -0.064
 0.566  1.179  0.171 -0.014 -0.038 -0.064 -0.064
 0.568  1.180  0.172 -0.014 -0.037 -0.063 -0.063
 0.570  1.180  0.172 -0.014 -0.036 -0.063 -0.063
 0.572  1.180  0.173 -0.014 -0.036 -0.062 -0.062
 0.574  1.180  0.173 -0.014 -0.035 -0.061 -0.061
 0.576  1.181  0.174 -0.013 -0.035 -0.061 -0.061
 0.578  1.181  0.175 -0.013 -0.034 -0.060 -0.060
 0.580  1.181  0.175 -0.013 -0.034 -0.060 -0.060
 0.582  1.181  0.176 -0.013 -0.033 -0.059 -0.059
 0.584  1.181  0.176 -0.012 -0.033 -0.059 -0.059
 0.586  1.182  0.177 -0.012 -0.032 -0.058 -0.058
 0.588  1.182  0.177 -0.012 -0.032 -0.058 -0.058
 0.590  1.182  0.178 -0.011 -0.031 -0.057 -0.057
 0.592  1.182  0.178 -0.011 -0.031 -0.057 -0.057
 0.594  1.182  0.179 -0.011 -0.030 -0.056 -0.056
 0.596  1.182  0.179 -0.011 -0.030 -0.055 -0.055
 0.598  1.182  0.179 -0.011 -0.030 -0.055 -0.055
 0.600  1.182  0.180 -0.010 -0.029 -0.055 -0.055
 0.602  1.183  0.180 -0.010 -0.028 -0.054 -0.054
 0.604  1.183  0.180 -0.010 -0.028 -0.054 -0.054
 0.606  1.183  0.181 -0.009 -0.028 -0.053 -0.053
 0.608  1.183  0.181 -0.009 -0.027 -0.053 -0.053
 0.610  1.183  0.181 -0.009 -0.027 -0.052 -0.052
 0.612  1.184  0.181 -0.008 -0.026 -0.052 -0.052
 0.614  1.184  0.182 -0.008 -0.026 -0.052 -0.052
 0.616  1.184  0.182 -0.008 -0.025 -0.051 -0.051
 0.618  1.184  0.182 -0.007 -0.025 -0.051 -0.051
 0.620  1.185  0.182 -0.007 -0.025 -0.050 -0.050
 0.622  1.185  0.183 -0.006 -0.024 -0.050 -0.050
 0.624  1.185  0.183 -0.006 -0.024 -0.049 -0.049
 0.626  1.185  0.183 -0.006 -0.024 -0.049 -0.049
 0.628  1.185  0.183 -0.006 -0.023 -0.049 -0.049
 0.630  1.185  0.183 -0.005 -0.023 -0.049 -0.049
 0.632  1.185  0.183 -0.005 -0.022 -0.048 -0.048
 0.634  1.186  0.183 -0.004 -0.022 -0.048 -0.048
 0.636  1.186  0.183 -0.004 -0.022 -0.048 -0.048
 0.638  1.186  0.183 -0.004 -0.021 -0.047 -0.047
 0.640  1.186  0.184 -0.003 -0.021 -0.047 -0.047
 0.642  1.187  0.184 -0.003 -0.021 -0.047 -0.047
 0.644  1.187  0.184 -0.002 -0.020 -0.046 -0.046
 0.646  1.187  0.184 -0.002 -0.020 -0.046 -0.046
 0.648  1.187  0.184 -0.001 -0.020 -0.046 -0.046
 0.650  1.187  0.184 -0.001 -0.019 -0.045 -0.045
 0.652  1.187  0.184 -0.000 -0.019 -0.045 -0.045
 0.654  1.187  0.184  0.000 -0.018 -0.045 -0.045
 0.656  1.188  0.184  0.001 -0.018 -0.044 -0.044
 0.658  1.188  0.184  0.002 -0.018 -0.044 -0.044
 0.660  1.188  0.184  0.002 -0.018 -0.044 -0.044
 0.662  1.189  0.185  0.003 -0.017 -0.043 -0.043
 0.664  1.189  0.185  0.003 -0.017 -0.043 -0.043
 0.666  1.189  0.185  0.004 -0.017 -0.042 -0.042
 0.668  1.189  0.186  0.005 -0.016 -0.042 -0.042
 0.670  1.190  0.186  0.005 -0.016 -0.042 -0.042
 0.672  1.190  0.186  0.006 -0.015 -0.041 -0.041
 0.674  1.190  0.187  0.007 -0.015 -0.040 -0.040
 0.676  1.190  0.187  0.007 -0.015 -0.040 -0.040
 0.678  1.190  0.188  0.008 -0.014 -0.039 -0.039
 0.680  1.191  0.188  0.009 -0.014 -0.039 -0.039
 0.682  1.191  0.189  0.009 -0.013 -0.039 -0.039
 0.684  1.191  0.190  0.010 -0.013 -0.038 -0.038
 0.686  1.192  0.190  0.011 -0.012 -0.037 -0.037
 0.688  1.192  0.191  0.012 -0.012 -0.037 -0.037
 0.690  1.192  0.192  0.013 -0.011 -0.036 -0.036
 0.692  1.193  0.192  0.014 -0.011 -0.036 -0.036
 0.694  1.193  0.193  0.014 -0.011 -0.035 -0.035
 0.696  1.193  0.194  0.015 -0.010 -0.034 -0.034
 0.698  1.193  0.195  0.016 -0.010 -0.033 -0.033
 0.700  1.194  0.196  0.017 -0.009 -0.033 -0.033
 0.702  1.194  0.197  0.018 -0.008 -0.032 -0.032
 0.704  1.195  0.198  0.019 -0.008 -0.032 -0.032
 0.706  1.195  0.199  0.020 -0.007 -0.031 -0.031
 0.708  1.195  0.200  0.021 -0.007 -0.030 -0.030
 0.710  1.196  0.201  0.021 -0.006 -0.029 -0.029
 0.712  1.196  0.203  0.022 -0.005 -0.029 -0.029
 0.714  1.196  0.204  0.023 -0.005 -0.028 -0.028
 0.716  1.196  0.205  0.024 -0.004 -0.027 -0.027
 0.718  1.197  0.206  0.024 -0.003 -0.026 -0.026
 0.720  1.197  0.207  0.025 -0.003 -0.025 -0.025
 0.722  1.198  0.208  0.026 -0.002 -0.024 -0.024
 0.724  1.198  0.209  0.027 -0.001 -0.024 -0.024
 0.726  1.199  0.210  0.027 -0.001 -0.023 -0.023
 0.728  1.199  0.211  0.028  0.000 -0.022 -0.022
 0.730  1.199  0.212  0.028  0.001 -0.021 -0.021
 0.732  1.200  0.212  0.029  0.001 -0.020 -0.020
 0.734  1.201  0.213  0.029  0.002 -0.019 -0.019
 0.736  1.201  0.213  0.030  0.002 -0.018 -0.018
 0.738  1.202  0.213  0.030  0.003 -0.017 -0.017
 0.740  1.202  0.213  0.031  0.003 -0.016 -0.016
 0.742  1.203  0.213  0.031  0.003 -0.014 -0.014
 0.744  1.204  0.213  0.031  0.004 -0.013 -0.013
 0.746  1.205  0.213  0.032  0.004 -0.012 -0.012
 0.748  1.206  0.212  0.032  0.004 -0.011 -0.011
 0.750  1.207  0.212  0.032  0.004 -0.010 -0.010
 0.752  1.207  0.211  0.033  0.004 -0.009 -0.009
 0.754  1.208  0.211  0.033  0.003 -0.008 -0.008
 0.756  1.209  0.210  0.033  0.003 -0.006 -0.006
 0.758  1.210  0.209  0.033  0.003 -0.005 -0.005
 0.760  1.211  0.208  0.033  0.002 -0.004 -0.004
 0.762  1.212  0.207  0.034  0.002 -0.002 -0.002
 0.764  1.213  0.206  0.034  0.001 -0.001 -0.001
 0.766  1.215  0.204  0.034 -0.000  0.001  0.001
 0.768  1.215  0.203  0.034 -0.001  0.002  0.002
 0.770  1.217  0.201  0.034 -0.002  0.003  0.003
 0.772  1.218  0.199  0.034 -0.003  0.005  0.005
 0.774  1.220  0.198  0.033 -0.004  0.007  0.007
 0.776  1.221  0.196  0.033 -0.005  0.008  0.008
 0.778  1.222  0.194  0.033 -0.007  0.010  0.010
 0.780  1.224  0.192  0.032 -0.008  0.011  0.011
 0.782  1.225  0.189  0.032 -0.010  0.013  0.013
 0.784  1.227  0.187  0.031 -0.011  0.015  0.015
 0.786  1.229  0.185  0.030 -0.013  0.016  0.016
 0.788  1.230  0.182  0.029 -0.015  0.018  0.018
 0.790  1.232  0.179  0.028 -0.017  0.019  0.019
 0.792  1.233  0.177  0.027 -0.018  0.021  0.021
 0.794  1.235  0.173  0.025 -0.021  0.022  0.022
 0.796  1.236  0.170  0.024 -0.023  0.024  0.024
 0.798  1.238  0.167  0.021 -0.025  0.025  0.025
 0.800  1.239  0.163  0.019 -0.027  0.026  0.026
 0.802  1.240  0.160  0.017 -0.030  0.027  0.027
 0.804  1.241  0.156  0.015 -0.032  0.028  0.028
 0.806  1.242  0.153  0.012 -0.035  0.029  0.029
 0.808  1.242  0.149  0.009 -0.037  0.030  0.030
