# IsPeriodic    : True
# Period        : 0.574252 days
# Normalization : <g_mag>=0
# 
# Phase u_mag  g_mag  r_mag  i_mag  z_mag  y_mag
 0.000  0.574 -0.625 -0.571 -0.493 -0.451 -0.451
 0.002  0.574 -0.625 -0.571 -0.493 -0.450 -0.450
 0.004  0.574 -0.625 -0.571 -0.493 -0.450 -0.450
 0.006  0.575 -0.624 -0.570 -0.492 -0.450 -0.450
 0.008  0.576 -0.623 -0.569 -0.492 -0.449 -0.449
 0.010  0.578 -0.621 -0.568 -0.492 -0.449 -0.449
 0.012  0.580 -0.620 -0.566 -0.491 -0.448 -0.448
 0.014  0.582 -0.619 -0.565 -0.490 -0.447 -0.447
 0.016  0.583 -0.617 -0.563 -0.489 -0.446 -0.446
 0.018  0.586 -0.615 -0.561 -0.489 -0.445 -0.445
 0.020  0.589 -0.612 -0.559 -0.488 -0.444 -0.444
 0.022  0.592 -0.610 -0.557 -0.487 -0.443 -0.443
 0.024  0.595 -0.607 -0.554 -0.486 -0.441 -0.441
 0.026  0.597 -0.604 -0.552 -0.484 -0.440 -0.440
 0.028  0.600 -0.601 -0.550 -0.483 -0.439 -0.439
 0.030  0.604 -0.598 -0.548 -0.482 -0.438 -0.438
 0.032  0.607 -0.595 -0.546 -0.480 -0.437 -0.437
 0.034  0.609 -0.592 -0.544 -0.478 -0.436 -0.436
 0.036  0.613 -0.589 -0.542 -0.477 -0.434 -0.434
 0.038  0.616 -0.585 -0.540 -0.475 -0.433 -0.433
 0.040  0.620 -0.582 -0.538 -0.473 -0.432 -0.432
 0.042  0.622 -0.578 -0.536 -0.471 -0.430 -0.430
 0.044  0.626 -0.574 -0.533 -0.468 -0.429 -0.429
 0.046  0.630 -0.570 -0.531 -0.466 -0.428 -0.428
 0.048  0.634 -0.566 -0.528 -0.464 -0.426 -0.426
 0.050  0.638 -0.561 -0.526 -0.461 -0.425 -0.425
 0.052  0.642 -0.557 -0.523 -0.458 -0.423 -0.423
 0.054  0.646 -0.552 -0.520 -0.456 -0.421 -0.421
 0.056  0.650 -0.547 -0.518 -0.453 -0.420 -0.420
 0.058  0.655 -0.542 -0.515 -0.451 -0.418 -0.418
 0.060  0.659 -0.536 -0.512 -0.448 -0.416 -0.416
 0.062  0.663 -0.531 -0.509 -0.445 -0.415 -0.415
 0.064  0.668 -0.526 -0.506 -0.442 -0.413 -0.413
 0.066  0.673 -0.520 -0.503 -0.439 -0.411 -0.411
 0.068  0.678 -0.514 -0.500 -0.437 -0.409 -0.409
 0.070  0.683 -0.508 -0.497 -0.434 -0.407 -0.407
 0.072  0.688 -0.502 -0.494 -0.431 -0.405 -0.405
 0.074  0.694 -0.496 -0.491 -0.428 -0.403 -0.403
 0.076  0.698 -0.490 -0.488 -0.426 -0.401 -0.401
 0.078  0.704 -0.484 -0.485 -0.423 -0.400 -0.400
 0.080  0.709 -0.478 -0.482 -0.421 -0.397 -0.397
 0.082  0.715 -0.472 -0.479 -0.418 -0.395 -0.395
 0.084  0.720 -0.466 -0.475 -0.416 -0.393 -0.393
 0.086  0.725 -0.460 -0.472 -0.414 -0.392 -0.392
 0.088  0.731 -0.454 -0.469 -0.411 -0.390 -0.390
 0.090  0.736 -0.448 -0.466 -0.409 -0.388 -0.388
 0.092  0.741 -0.442 -0.463 -0.407 -0.386 -0.386
 0.094  0.746 -0.436 -0.460 -0.404 -0.384 -0.384
 0.096  0.751 -0.432 -0.457 -0.402 -0.382 -0.382
 0.098  0.757 -0.426 -0.454 -0.400 -0.381 -0.381
 0.100  0.761 -0.421 -0.451 -0.398 -0.379 -0.379
 0.102  0.767 -0.415 -0.448 -0.396 -0.377 -0.377
 0.104  0.771 -0.410 -0.444 -0.394 -0.376 -0.376
 0.106  0.776 -0.404 -0.442 -0.392 -0.374 -0.374
 0.108  0.781 -0.399 -0.439 -0.390 -0.372 -0.372
 0.110  0.785 -0.394 -0.436 -0.388 -0.371 -0.371
 0.112  0.790 -0.388 -0.433 -0.386 -0.369 -0.369
 0.114  0.795 -0.383 -0.430 -0.385 -0.368 -0.368
 0.116  0.799 -0.378 -0.428 -0.382 -0.366 -0.366
 0.118  0.804 -0.373 -0.425 -0.381 -0.365 -0.365
 0.120  0.808 -0.368 -0.422 -0.379 -0.364 -0.364
 0.122  0.812 -0.363 -0.419 -0.377 -0.362 -0.362
 0.124  0.816 -0.358 -0.416 -0.376 -0.361 -0.361
 0.126  0.821 -0.353 -0.414 -0.374 -0.359 -0.359
 0.128  0.824 -0.349 -0.411 -0.372 -0.358 -0.358
 0.130  0.828 -0.344 -0.408 -0.371 -0.357 -0.357
 0.132  0.833 -0.339 -0.405 -0.369 -0.356 -0.356
 0.134  0.836 -0.335 -0.402 -0.367 -0.354 -0.354
 0.136  0.840 -0.330 -0.400 -0.366 -0.353 -0.353
 0.138  0.844 -0.326 -0.397 -0.365 -0.352 -0.352
 0.140  0.847 -0.321 -0.395 -0.363 -0.351 -0.351
 0.142  0.850 -0.317 -0.392 -0.361 -0.350 -0.350
 0.144  0.854 -0.313 -0.390 -0.360 -0.349 -0.349
 0.146  0.858 -0.308 -0.387 -0.358 -0.347 -0.347
 0.148  0.861 -0.304 -0.385 -0.357 -0.346 -0.346
 0.150  0.864 -0.300 -0.382 -0.355 -0.345 -0.345
 0.152  0.868 -0.296 -0.379 -0.353 -0.344 -0.344
 0.154  0.871 -0.292 -0.377 -0.352 -0.343 -0.343
 0.156  0.874 -0.287 -0.374 -0.350 -0.342 -0.342
 0.158  0.877 -0.283 -0.372 -0.349 -0.341 -0.341
 0.160  0.881 -0.279 -0.369 -0.347 -0.340 -0.340
 0.162  0.884 -0.275 -0.367 -0.346 -0.339 -0.339
 0.164  0.886 -0.271 -0.365 -0.344 -0.338 -0.338
 0.166  0.890 -0.267 -0.362 -0.342 -0.337 -0.337
 0.168  0.893 -0.263 -0.360 -0.341 -0.335 -0.335
 0.170  0.897 -0.259 -0.357 -0.340 -0.334 -0.334
 0.172  0.899 -0.255 -0.355 -0.338 -0.333 -0.333
 0.174  0.903 -0.251 -0.353 -0.336 -0.332 -0.332
 0.176  0.906 -0.247 -0.350 -0.335 -0.331 -0.331
 0.178  0.909 -0.243 -0.348 -0.333 -0.329 -0.329
 0.180  0.912 -0.239 -0.346 -0.332 -0.328 -0.328
 0.182  0.916 -0.235 -0.343 -0.330 -0.327 -0.327
 0.184  0.920 -0.231 -0.341 -0.328 -0.326 -0.326
 0.186  0.922 -0.227 -0.339 -0.327 -0.324 -0.324
 0.188  0.926 -0.223 -0.337 -0.326 -0.323 -0.323
 0.190  0.929 -0.220 -0.334 -0.324 -0.321 -0.321
 0.192  0.933 -0.216 -0.332 -0.322 -0.320 -0.320
 0.194  0.936 -0.212 -0.330 -0.321 -0.319 -0.319
 0.196  0.939 -0.208 -0.328 -0.320 -0.317 -0.317
 0.198  0.943 -0.204 -0.326 -0.318 -0.316 -0.316
 0.200  0.946 -0.200 -0.324 -0.316 -0.315 -0.315
 0.202  0.949 -0.196 -0.321 -0.315 -0.313 -0.313
 0.204  0.953 -0.192 -0.319 -0.313 -0.312 -0.312
 0.206  0.956 -0.189 -0.317 -0.312 -0.310 -0.310
 0.208  0.959 -0.185 -0.315 -0.310 -0.309 -0.309
 0.210  0.963 -0.181 -0.313 -0.308 -0.307 -0.307
 0.212  0.966 -0.177 -0.310 -0.307 -0.306 -0.306
 0.214  0.970 -0.173 -0.308 -0.306 -0.304 -0.304
 0.216  0.973 -0.170 -0.306 -0.304 -0.303 -0.303
 0.218  0.977 -0.166 -0.304 -0.303 -0.302 -0.302
 0.220  0.980 -0.162 -0.302 -0.301 -0.300 -0.300
 0.222  0.984 -0.158 -0.300 -0.300 -0.298 -0.298
 0.224  0.987 -0.155 -0.298 -0.298 -0.297 -0.297
 0.226  0.991 -0.151 -0.296 -0.297 -0.295 -0.295
 0.228  0.994 -0.147 -0.294 -0.295 -0.294 -0.294
 0.230  0.997 -0.144 -0.292 -0.294 -0.292 -0.292
 0.232  1.001 -0.140 -0.290 -0.292 -0.291 -0.291
 0.234  1.004 -0.137 -0.288 -0.291 -0.290 -0.290
 0.236  1.008 -0.133 -0.286 -0.290 -0.288 -0.288
 0.238  1.011 -0.130 -0.284 -0.288 -0.287 -0.287
 0.240  1.014 -0.126 -0.282 -0.286 -0.285 -0.285
 0.242  1.018 -0.123 -0.280 -0.285 -0.284 -0.284
 0.244  1.021 -0.119 -0.277 -0.283 -0.282 -0.282
 0.246  1.024 -0.116 -0.275 -0.282 -0.281 -0.281
 0.248  1.027 -0.112 -0.273 -0.281 -0.280 -0.280
 0.250  1.031 -0.109 -0.271 -0.279 -0.278 -0.278
 0.252  1.034 -0.105 -0.269 -0.278 -0.277 -0.277
 0.254  1.037 -0.102 -0.267 -0.276 -0.276 -0.276
 0.256  1.040 -0.099 -0.265 -0.275 -0.275 -0.275
 0.258  1.044 -0.095 -0.263 -0.273 -0.273 -0.273
 0.260  1.047 -0.092 -0.261 -0.272 -0.272 -0.272
 0.262  1.050 -0.089 -0.259 -0.271 -0.270 -0.270
 0.264  1.053 -0.086 -0.256 -0.269 -0.269 -0.269
 0.266  1.056 -0.082 -0.255 -0.268 -0.268 -0.268
 0.268  1.059 -0.079 -0.253 -0.266 -0.267 -0.267
 0.270  1.062 -0.076 -0.251 -0.265 -0.266 -0.266
 0.272  1.065 -0.073 -0.249 -0.263 -0.265 -0.265
 0.274  1.069 -0.070 -0.247 -0.262 -0.263 -0.263
 0.276  1.072 -0.066 -0.245 -0.261 -0.262 -0.262
 0.278  1.074 -0.064 -0.242 -0.259 -0.261 -0.261
 0.280  1.077 -0.061 -0.240 -0.258 -0.260 -0.260
 0.282  1.080 -0.058 -0.238 -0.256 -0.258 -0.258
 0.284  1.084 -0.055 -0.236 -0.255 -0.257 -0.257
 0.286  1.086 -0.052 -0.234 -0.253 -0.256 -0.256
 0.288  1.089 -0.049 -0.232 -0.252 -0.255 -0.255
 0.290  1.092 -0.046 -0.230 -0.251 -0.254 -0.254
 0.292  1.095 -0.043 -0.228 -0.250 -0.253 -0.253
 0.294  1.097 -0.040 -0.226 -0.248 -0.252 -0.252
 0.296  1.100 -0.037 -0.223 -0.246 -0.251 -0.251
 0.298  1.103 -0.034 -0.221 -0.245 -0.250 -0.250
 0.300  1.106 -0.031 -0.219 -0.243 -0.248 -0.248
 0.302  1.109 -0.028 -0.217 -0.242 -0.247 -0.247
 0.304  1.111 -0.025 -0.215 -0.241 -0.246 -0.246
 0.306  1.114 -0.022 -0.213 -0.240 -0.245 -0.245
 0.308  1.117 -0.019 -0.212 -0.238 -0.244 -0.244
 0.310  1.120 -0.016 -0.209 -0.236 -0.243 -0.243
 0.312  1.122 -0.013 -0.207 -0.235 -0.242 -0.242
 0.314  1.125 -0.010 -0.205 -0.233 -0.240 -0.240
 0.316  1.128 -0.007 -0.203 -0.232 -0.239 -0.239
 0.318  1.131 -0.004 -0.202 -0.231 -0.238 -0.238
 0.320  1.134  0.000 -0.200 -0.229 -0.236 -0.236
 0.322  1.135  0.003 -0.198 -0.228 -0.235 -0.235
 0.324  1.138  0.006 -0.195 -0.226 -0.234 -0.234
 0.326  1.141  0.009 -0.194 -0.225 -0.232 -0.232
 0.328  1.144  0.012 -0.192 -0.223 -0.231 -0.231
 0.330  1.147  0.015 -0.190 -0.222 -0.230 -0.230
 0.332  1.148  0.018 -0.188 -0.220 -0.228 -0.228
 0.334  1.151  0.021 -0.186 -0.219 -0.227 -0.227
 0.336  1.154  0.025 -0.184 -0.217 -0.226 -0.226
 0.338  1.156  0.028 -0.183 -0.216 -0.225 -0.225
 0.340  1.159  0.031 -0.181 -0.215 -0.223 -0.223
 0.342  1.161  0.034 -0.179 -0.213 -0.221 -0.221
 0.344  1.163  0.037 -0.177 -0.212 -0.220 -0.220
 0.346  1.166  0.040 -0.175 -0.210 -0.218 -0.218
 0.348  1.169  0.044 -0.174 -0.208 -0.217 -0.217
 0.350  1.171  0.047 -0.172 -0.207 -0.216 -0.216
 0.352  1.173  0.050 -0.170 -0.206 -0.214 -0.214
 0.354  1.175  0.053 -0.168 -0.204 -0.213 -0.213
 0.356  1.178  0.056 -0.167 -0.202 -0.211 -0.211
 0.358  1.180  0.060 -0.165 -0.201 -0.209 -0.209
 0.360  1.183  0.063 -0.163 -0.200 -0.208 -0.208
 0.362  1.185  0.066 -0.162 -0.198 -0.206 -0.206
 0.364  1.187  0.069 -0.160 -0.197 -0.205 -0.205
 0.366  1.189  0.072 -0.158 -0.195 -0.203 -0.203
 0.368  1.192  0.075 -0.156 -0.193 -0.202 -0.202
 0.370  1.194  0.078 -0.155 -0.192 -0.200 -0.200
 0.372  1.197  0.081 -0.153 -0.191 -0.198 -0.198
 0.374  1.198  0.084 -0.151 -0.189 -0.197 -0.197
 0.376  1.201  0.087 -0.150 -0.187 -0.196 -0.196
 0.378  1.203  0.090 -0.148 -0.186 -0.194 -0.194
 0.380  1.206  0.093 -0.146 -0.185 -0.193 -0.193
 0.382  1.208  0.096 -0.145 -0.183 -0.191 -0.191
 0.384  1.210  0.099 -0.143 -0.181 -0.190 -0.190
 0.386  1.212  0.101 -0.141 -0.180 -0.189 -0.189
 0.388  1.215  0.104 -0.140 -0.178 -0.187 -0.187
 0.390  1.217  0.107 -0.138 -0.177 -0.185 -0.185
 0.392  1.220  0.109 -0.137 -0.176 -0.184 -0.184
 0.394  1.222  0.112 -0.135 -0.174 -0.183 -0.183
 0.396  1.224  0.115 -0.133 -0.172 -0.181 -0.181
 0.398  1.226  0.117 -0.132 -0.171 -0.180 -0.180
 0.400  1.229  0.119 -0.130 -0.169 -0.179 -0.179
 0.402  1.232  0.121 -0.128 -0.168 -0.177 -0.177
 0.404  1.234  0.124 -0.127 -0.166 -0.176 -0.176
 0.406  1.236  0.126 -0.125 -0.165 -0.174 -0.174
 0.408  1.238  0.128 -0.123 -0.163 -0.173 -0.173
 0.410  1.241  0.131 -0.122 -0.162 -0.172 -0.172
 0.412  1.244  0.133 -0.120 -0.160 -0.171 -0.171
 0.414  1.246  0.135 -0.118 -0.158 -0.170 -0.170
 0.416  1.248  0.137 -0.117 -0.157 -0.168 -0.168
 0.418  1.251  0.139 -0.115 -0.156 -0.167 -0.167
 0.420  1.253  0.141 -0.113 -0.154 -0.166 -0.166
 0.422  1.256  0.144 -0.112 -0.152 -0.165 -0.165
 0.424  1.259  0.146 -0.110 -0.151 -0.164 -0.164
 0.426  1.260  0.148 -0.108 -0.150 -0.162 -0.162
 0.428  1.263  0.150 -0.107 -0.148 -0.161 -0.161
 0.430  1.266  0.151 -0.106 -0.147 -0.160 -0.160
 0.432  1.269  0.153 -0.104 -0.145 -0.159 -0.159
 0.434  1.271  0.155 -0.102 -0.144 -0.158 -0.158
 0.436  1.273  0.157 -0.101 -0.142 -0.156 -0.156
 0.438  1.276  0.159 -0.099 -0.141 -0.155 -0.155
 0.440  1.278  0.161 -0.097 -0.140 -0.154 -0.154
 0.442  1.281  0.162 -0.096 -0.138 -0.153 -0.153
 0.444  1.284  0.164 -0.094 -0.137 -0.152 -0.152
 0.446  1.285  0.166 -0.092 -0.136 -0.151 -0.151
 0.448  1.288  0.168 -0.091 -0.135 -0.149 -0.149
 0.450  1.291  0.169 -0.090 -0.133 -0.148 -0.148
 0.452  1.293  0.171 -0.088 -0.132 -0.147 -0.147
 0.454  1.295  0.173 -0.087 -0.131 -0.146 -0.146
 0.456  1.297  0.174 -0.085 -0.130 -0.145 -0.145
 0.458  1.299  0.176 -0.083 -0.128 -0.144 -0.144
 0.460  1.301  0.177 -0.082 -0.127 -0.143 -0.143
 0.462  1.304  0.179 -0.080 -0.126 -0.141 -0.141
 0.464  1.306  0.181 -0.079 -0.125 -0.140 -0.140
 0.466  1.308  0.182 -0.078 -0.124 -0.139 -0.139
 0.468  1.310  0.184 -0.076 -0.123 -0.137 -0.137
 0.470  1.311  0.185 -0.075 -0.122 -0.136 -0.136
 0.472  1.313  0.186 -0.073 -0.121 -0.135 -0.135
 0.474  1.315  0.188 -0.072 -0.120 -0.134 -0.134
 0.476  1.317  0.189 -0.071 -0.119 -0.133 -0.133
 0.478  1.319  0.191 -0.069 -0.118 -0.132 -0.132
 0.480  1.321  0.192 -0.068 -0.117 -0.131 -0.131
 0.482  1.323  0.193 -0.066 -0.116 -0.129 -0.129
 0.484  1.323  0.195 -0.065 -0.115 -0.128 -0.128
 0.486  1.325  0.196 -0.064 -0.114 -0.127 -0.127
 0.488  1.327  0.197 -0.062 -0.113 -0.126 -0.126
 0.490  1.328  0.199 -0.061 -0.112 -0.124 -0.124
 0.492  1.330  0.200 -0.059 -0.111 -0.123 -0.123
 0.494  1.331  0.201 -0.059 -0.111 -0.122 -0.122
 0.496  1.333  0.202 -0.057 -0.110 -0.121 -0.121
 0.498  1.334  0.203 -0.056 -0.108 -0.120 -0.120
 0.500  1.335  0.204 -0.054 -0.108 -0.118 -0.118
 0.502  1.336  0.206 -0.053 -0.107 -0.117 -0.117
 0.504  1.337  0.207 -0.052 -0.106 -0.116 -0.116
 0.506  1.338  0.208 -0.051 -0.105 -0.115 -0.115
 0.508  1.340  0.209 -0.050 -0.105 -0.114 -0.114
 0.510  1.341  0.210 -0.048 -0.103 -0.112 -0.112
 0.512  1.342  0.211 -0.047 -0.103 -0.111 -0.111
 0.514  1.343  0.212 -0.046 -0.102 -0.110 -0.110
 0.516  1.344  0.213 -0.045 -0.101 -0.109 -0.109
 0.518  1.345  0.214 -0.044 -0.100 -0.108 -0.108
 0.520  1.346  0.215 -0.043 -0.099 -0.107 -0.107
 0.522  1.347  0.216 -0.042 -0.098 -0.106 -0.106
 0.524  1.348  0.217 -0.040 -0.098 -0.105 -0.105
 0.526  1.348  0.218 -0.039 -0.097 -0.104 -0.104
 0.528  1.349  0.219 -0.038 -0.096 -0.103 -0.103
 0.530  1.350  0.220 -0.038 -0.095 -0.102 -0.102
 0.532  1.351  0.221 -0.036 -0.095 -0.100 -0.100
 0.534  1.352  0.222 -0.036 -0.093 -0.099 -0.099
 0.536  1.353  0.223 -0.034 -0.093 -0.098 -0.098
 0.538  1.354  0.224 -0.033 -0.092 -0.097 -0.097
 0.540  1.354  0.225 -0.033 -0.091 -0.096 -0.096
 0.542  1.355  0.226 -0.031 -0.091 -0.096 -0.096
 0.544  1.356  0.227 -0.031 -0.090 -0.095 -0.095
 0.546  1.357  0.228 -0.030 -0.089 -0.094 -0.094
 0.548  1.357  0.229 -0.029 -0.088 -0.093 -0.093
 0.550  1.358  0.230 -0.028 -0.087 -0.092 -0.092
 0.552  1.359  0.231 -0.027 -0.087 -0.091 -0.091
 0.554  1.360  0.232 -0.026 -0.086 -0.091 -0.091
 0.556  1.360  0.233 -0.026 -0.085 -0.090 -0.090
 0.558  1.360  0.234 -0.025 -0.085 -0.089 -0.089
 0.560  1.360  0.235 -0.024 -0.084 -0.089 -0.089
 0.562  1.361  0.236 -0.023 -0.083 -0.087 -0.087
 0.564  1.362  0.236 -0.022 -0.082 -0.087 -0.087
 0.566  1.362  0.237 -0.022 -0.082 -0.086 -0.086
 0.568  1.363  0.238 -0.021 -0.081 -0.085 -0.085
 0.570  1.363  0.239 -0.020 -0.080 -0.085 -0.085
 0.572  1.364  0.240 -0.019 -0.080 -0.084 -0.084
 0.574  1.364  0.241 -0.019 -0.079 -0.083 -0.083
 0.576  1.365  0.241 -0.019 -0.078 -0.083 -0.083
 0.578  1.365  0.242 -0.018 -0.078 -0.082 -0.082
 0.580  1.365  0.243 -0.017 -0.077 -0.082 -0.082
 0.582  1.366  0.244 -0.017 -0.076 -0.081 -0.081
 0.584  1.366  0.244 -0.016 -0.076 -0.081 -0.081
 0.586  1.367  0.245 -0.015 -0.075 -0.080 -0.080
 0.588  1.367  0.246 -0.015 -0.075 -0.079 -0.079
 0.590  1.367  0.246 -0.014 -0.074 -0.079 -0.079
 0.592  1.368  0.247 -0.014 -0.073 -0.078 -0.078
 0.594  1.368  0.248 -0.014 -0.073 -0.078 -0.078
 0.596  1.369  0.248 -0.013 -0.072 -0.077 -0.077
 0.598  1.369  0.249 -0.013 -0.072 -0.076 -0.076
 0.600  1.369  0.249 -0.012 -0.071 -0.075 -0.075
 0.602  1.370  0.250 -0.012 -0.071 -0.075 -0.075
 0.604  1.370  0.250 -0.012 -0.070 -0.074 -0.074
 0.606  1.371  0.250 -0.012 -0.070 -0.073 -0.073
 0.608  1.371  0.251 -0.011 -0.069 -0.073 -0.073
 0.610  1.371  0.251 -0.011 -0.068 -0.072 -0.072
 0.612  1.372  0.251 -0.011 -0.068 -0.072 -0.072
 0.614  1.372  0.252 -0.010 -0.068 -0.071 -0.071
 0.616  1.373  0.252 -0.010 -0.067 -0.070 -0.070
 0.618  1.373  0.252 -0.010 -0.067 -0.070 -0.070
 0.620  1.373  0.252 -0.010 -0.066 -0.069 -0.069
 0.622  1.373  0.253 -0.010 -0.066 -0.068 -0.068
 0.624  1.374  0.253 -0.010 -0.066 -0.068 -0.068
 0.626  1.374  0.253 -0.010 -0.065 -0.067 -0.067
 0.628  1.374  0.253 -0.010 -0.065 -0.066 -0.066
 0.630  1.375  0.253 -0.010 -0.065 -0.066 -0.066
 0.632  1.375  0.253 -0.010 -0.064 -0.065 -0.065
 0.634  1.376  0.253 -0.010 -0.063 -0.065 -0.065
 0.636  1.376  0.253 -0.010 -0.063 -0.063 -0.063
 0.638  1.377  0.253 -0.010 -0.063 -0.063 -0.063
 0.640  1.377  0.253 -0.010 -0.062 -0.062 -0.062
 0.642  1.378  0.253 -0.010 -0.062 -0.061 -0.061
 0.644  1.378  0.253 -0.010 -0.062 -0.061 -0.061
 0.646  1.379  0.253 -0.010 -0.062 -0.060 -0.060
 0.648  1.379  0.253 -0.010 -0.061 -0.059 -0.059
 0.650  1.379  0.252 -0.010 -0.061 -0.059 -0.059
 0.652  1.380  0.252 -0.010 -0.061 -0.058 -0.058
 0.654  1.380  0.252 -0.010 -0.061 -0.057 -0.057
 0.656  1.381  0.252 -0.010 -0.060 -0.057 -0.057
 0.658  1.381  0.252 -0.010 -0.060 -0.056 -0.056
 0.660  1.382  0.251 -0.010 -0.060 -0.055 -0.055
 0.662  1.383  0.251 -0.010 -0.060 -0.055 -0.055
 0.664  1.383  0.251 -0.010 -0.060 -0.054 -0.054
 0.666  1.384  0.251 -0.010 -0.060 -0.054 -0.054
 0.668  1.384  0.251 -0.010 -0.059 -0.053 -0.053
 0.670  1.385  0.250 -0.010 -0.059 -0.052 -0.052
 0.672  1.385  0.250 -0.010 -0.059 -0.052 -0.052
 0.674  1.385  0.250 -0.010 -0.058 -0.051 -0.051
 0.676  1.386  0.250 -0.010 -0.058 -0.050 -0.050
 0.678  1.386  0.249 -0.009 -0.058 -0.050 -0.050
 0.680  1.387  0.249 -0.009 -0.058 -0.049 -0.049
 0.682  1.387  0.249 -0.008 -0.058 -0.049 -0.049
 0.684  1.388  0.249 -0.008 -0.058 -0.048 -0.048
 0.686  1.389  0.248 -0.007 -0.058 -0.048 -0.048
 0.688  1.390  0.248 -0.007 -0.058 -0.047 -0.047
 0.690  1.390  0.248 -0.007 -0.058 -0.047 -0.047
 0.692  1.391  0.247 -0.006 -0.058 -0.046 -0.046
 0.694  1.392  0.247 -0.005 -0.058 -0.046 -0.046
 0.696  1.392  0.247 -0.005 -0.058 -0.045 -0.045
 0.698  1.393  0.246 -0.004 -0.058 -0.045 -0.045
 0.700  1.394  0.246 -0.003 -0.058 -0.044 -0.044
 0.702  1.395  0.246 -0.003 -0.058 -0.044 -0.044
 0.704  1.396  0.245 -0.002 -0.058 -0.043 -0.043
 0.706  1.396  0.245 -0.001 -0.058 -0.043 -0.043
 0.708  1.397  0.245 -0.000 -0.057 -0.042 -0.042
 0.710  1.398  0.244  0.000 -0.057 -0.042 -0.042
 0.712  1.398  0.244  0.001 -0.057 -0.042 -0.042
 0.714  1.399  0.244  0.002 -0.056 -0.041 -0.041
 0.716  1.399  0.243  0.002 -0.056 -0.041 -0.041
 0.718  1.400  0.243  0.004 -0.055 -0.040 -0.040
 0.720  1.401  0.243  0.004 -0.055 -0.040 -0.040
 0.722  1.402  0.243  0.006 -0.054 -0.039 -0.039
 0.724  1.403  0.243  0.007 -0.053 -0.038 -0.038
 0.726  1.404  0.243  0.008 -0.052 -0.038 -0.038
 0.728  1.405  0.243  0.009 -0.051 -0.037 -0.037
 0.730  1.406  0.244  0.011 -0.050 -0.036 -0.036
 0.732  1.408  0.244  0.012 -0.050 -0.035 -0.035
 0.734  1.409  0.245  0.014 -0.048 -0.034 -0.034
 0.736  1.410  0.246  0.015 -0.047 -0.033 -0.033
 0.738  1.411  0.247  0.017 -0.046 -0.031 -0.031
 0.740  1.412  0.249  0.018 -0.045 -0.030 -0.030
 0.742  1.414  0.250  0.021 -0.043 -0.028 -0.028
 0.744  1.416  0.252  0.023 -0.042 -0.027 -0.027
 0.746  1.418  0.253  0.025 -0.040 -0.024 -0.024
 0.748  1.420  0.255  0.027 -0.039 -0.023 -0.023
 0.750  1.422  0.257  0.029 -0.037 -0.021 -0.021
 0.752  1.423  0.259  0.031 -0.035 -0.019 -0.019
 0.754  1.425  0.261  0.034 -0.033 -0.017 -0.017
 0.756  1.427  0.263  0.036 -0.031 -0.015 -0.015
 0.758  1.429  0.265  0.039 -0.029 -0.012 -0.012
 0.760  1.432  0.268  0.041 -0.027 -0.010 -0.010
 0.762  1.434  0.270  0.044 -0.025 -0.008 -0.008
 0.764  1.436  0.273  0.047 -0.023 -0.005 -0.005
 0.766  1.439  0.276  0.049 -0.020 -0.002 -0.002
 0.768  1.441  0.279  0.052 -0.018  0.001  0.001
 0.770  1.444  0.283  0.056 -0.016  0.004  0.004
 0.772  1.447  0.286  0.059 -0.014  0.007  0.007
 0.774  1.450  0.290  0.063 -0.011  0.010  0.010
 0.776  1.453  0.294  0.066 -0.009  0.014  0.014
 0.778  1.456  0.298  0.070 -0.006  0.017  0.017
 0.780  1.460  0.302  0.073 -0.004  0.021  0.021
 0.782  1.462  0.305  0.077 -0.002  0.025  0.025
 0.784  1.466  0.309  0.081  0.001  0.028  0.028
 0.786  1.470  0.313  0.084  0.003  0.032  0.032
 0.788  1.473  0.318  0.088  0.005  0.036  0.036
 0.790  1.476  0.322  0.092  0.008  0.039  0.039
 0.792  1.480  0.326  0.096  0.010  0.043  0.043
 0.794  1.483  0.330  0.099  0.013  0.046  0.046
 0.796  1.486  0.333  0.103  0.015  0.050  0.050
 0.798  1.489  0.337  0.106  0.017  0.053  0.053
 0.800  1.492  0.341  0.109  0.019  0.055  0.055
 0.802  1.495  0.344  0.112  0.021  0.058  0.058
 0.804  1.497  0.347  0.115  0.023  0.061  0.061
 0.806  1.498  0.350  0.118  0.025  0.063  0.063
 0.808  1.499  0.353  0.120  0.028  0.065  0.065
