# IsPeriodic    : True
# Period        : 0.604809 days
# Normalization : <g_mag>=0
# 
# Phase u_mag  g_mag  r_mag  i_mag  z_mag  y_mag
 0.000  0.486 -0.691 -0.462 -0.455 -0.454 -0.454
 0.002  0.487 -0.691 -0.462 -0.455 -0.454 -0.454
 0.004  0.487 -0.690 -0.462 -0.455 -0.454 -0.454
 0.006  0.488 -0.689 -0.462 -0.455 -0.453 -0.453
 0.008  0.489 -0.687 -0.461 -0.454 -0.453 -0.453
 0.010  0.490 -0.684 -0.461 -0.453 -0.451 -0.451
 0.012  0.492 -0.680 -0.461 -0.452 -0.450 -0.450
 0.014  0.493 -0.676 -0.460 -0.451 -0.448 -0.448
 0.016  0.495 -0.672 -0.459 -0.450 -0.446 -0.446
 0.018  0.497 -0.667 -0.458 -0.449 -0.444 -0.444
 0.020  0.499 -0.662 -0.458 -0.448 -0.442 -0.442
 0.022  0.502 -0.657 -0.457 -0.446 -0.440 -0.440
 0.024  0.504 -0.652 -0.456 -0.445 -0.437 -0.437
 0.026  0.506 -0.645 -0.455 -0.443 -0.434 -0.434
 0.028  0.509 -0.640 -0.454 -0.442 -0.432 -0.432
 0.030  0.511 -0.634 -0.452 -0.440 -0.429 -0.429
 0.032  0.514 -0.629 -0.451 -0.439 -0.427 -0.427
 0.034  0.517 -0.623 -0.449 -0.438 -0.425 -0.425
 0.036  0.519 -0.618 -0.448 -0.436 -0.422 -0.422
 0.038  0.522 -0.612 -0.447 -0.435 -0.419 -0.419
 0.040  0.525 -0.606 -0.445 -0.433 -0.417 -0.417
 0.042  0.528 -0.600 -0.443 -0.432 -0.414 -0.414
 0.044  0.531 -0.595 -0.441 -0.430 -0.412 -0.412
 0.046  0.535 -0.589 -0.439 -0.429 -0.409 -0.409
 0.048  0.538 -0.584 -0.438 -0.427 -0.407 -0.407
 0.050  0.541 -0.577 -0.435 -0.426 -0.405 -0.405
 0.052  0.545 -0.572 -0.433 -0.425 -0.402 -0.402
 0.054  0.549 -0.566 -0.431 -0.423 -0.400 -0.400
 0.056  0.553 -0.561 -0.428 -0.422 -0.398 -0.398
 0.058  0.557 -0.554 -0.426 -0.420 -0.396 -0.396
 0.060  0.561 -0.549 -0.424 -0.419 -0.394 -0.394
 0.062  0.565 -0.543 -0.421 -0.417 -0.392 -0.392
 0.064  0.569 -0.538 -0.418 -0.416 -0.390 -0.390
 0.066  0.574 -0.531 -0.415 -0.414 -0.388 -0.388
 0.068  0.579 -0.526 -0.412 -0.413 -0.386 -0.386
 0.070  0.584 -0.520 -0.409 -0.411 -0.384 -0.384
 0.072  0.589 -0.514 -0.406 -0.410 -0.382 -0.382
 0.074  0.593 -0.508 -0.403 -0.408 -0.380 -0.380
 0.076  0.598 -0.502 -0.400 -0.407 -0.378 -0.378
 0.078  0.603 -0.496 -0.396 -0.405 -0.376 -0.376
 0.080  0.608 -0.491 -0.394 -0.404 -0.374 -0.374
 0.082  0.613 -0.484 -0.390 -0.402 -0.373 -0.373
 0.084  0.618 -0.479 -0.387 -0.401 -0.370 -0.370
 0.086  0.622 -0.472 -0.384 -0.399 -0.369 -0.369
 0.088  0.627 -0.467 -0.381 -0.397 -0.367 -0.367
 0.090  0.632 -0.460 -0.378 -0.396 -0.366 -0.366
 0.092  0.637 -0.455 -0.375 -0.395 -0.364 -0.364
 0.094  0.642 -0.449 -0.372 -0.393 -0.362 -0.362
 0.096  0.647 -0.443 -0.369 -0.391 -0.361 -0.361
 0.098  0.652 -0.437 -0.366 -0.390 -0.359 -0.359
 0.100  0.657 -0.432 -0.364 -0.388 -0.357 -0.357
 0.102  0.661 -0.425 -0.361 -0.386 -0.356 -0.356
 0.104  0.666 -0.420 -0.359 -0.385 -0.354 -0.354
 0.106  0.671 -0.414 -0.356 -0.383 -0.352 -0.352
 0.108  0.676 -0.409 -0.353 -0.381 -0.350 -0.350
 0.110  0.681 -0.403 -0.351 -0.380 -0.349 -0.349
 0.112  0.685 -0.398 -0.348 -0.377 -0.347 -0.347
 0.114  0.690 -0.392 -0.345 -0.375 -0.345 -0.345
 0.116  0.695 -0.387 -0.343 -0.374 -0.344 -0.344
 0.118  0.700 -0.381 -0.341 -0.372 -0.342 -0.342
 0.120  0.704 -0.377 -0.338 -0.370 -0.341 -0.341
 0.122  0.709 -0.372 -0.336 -0.368 -0.338 -0.338
 0.124  0.714 -0.366 -0.334 -0.366 -0.337 -0.337
 0.126  0.719 -0.362 -0.332 -0.364 -0.335 -0.335
 0.128  0.723 -0.356 -0.330 -0.362 -0.334 -0.334
 0.130  0.728 -0.351 -0.328 -0.360 -0.332 -0.332
 0.132  0.733 -0.346 -0.326 -0.358 -0.330 -0.330
 0.134  0.737 -0.341 -0.324 -0.356 -0.328 -0.328
 0.136  0.742 -0.337 -0.322 -0.354 -0.327 -0.327
 0.138  0.747 -0.331 -0.320 -0.351 -0.325 -0.325
 0.140  0.752 -0.327 -0.318 -0.349 -0.323 -0.323
 0.142  0.756 -0.322 -0.316 -0.347 -0.321 -0.321
 0.144  0.761 -0.318 -0.315 -0.345 -0.319 -0.319
 0.146  0.766 -0.312 -0.313 -0.343 -0.318 -0.318
 0.148  0.771 -0.308 -0.311 -0.340 -0.316 -0.316
 0.150  0.776 -0.304 -0.309 -0.338 -0.314 -0.314
 0.152  0.780 -0.299 -0.307 -0.336 -0.312 -0.312
 0.154  0.785 -0.295 -0.306 -0.333 -0.311 -0.311
 0.156  0.790 -0.291 -0.304 -0.331 -0.309 -0.309
 0.158  0.794 -0.286 -0.302 -0.329 -0.307 -0.307
 0.160  0.799 -0.283 -0.300 -0.326 -0.305 -0.305
 0.162  0.803 -0.279 -0.298 -0.324 -0.303 -0.303
 0.164  0.808 -0.274 -0.296 -0.321 -0.302 -0.302
 0.166  0.812 -0.270 -0.294 -0.319 -0.300 -0.300
 0.168  0.817 -0.265 -0.292 -0.317 -0.298 -0.298
 0.170  0.821 -0.261 -0.290 -0.314 -0.296 -0.296
 0.172  0.826 -0.258 -0.288 -0.312 -0.295 -0.295
 0.174  0.830 -0.253 -0.286 -0.310 -0.292 -0.292
 0.176  0.835 -0.249 -0.284 -0.308 -0.291 -0.291
 0.178  0.839 -0.245 -0.282 -0.306 -0.289 -0.289
 0.180  0.843 -0.240 -0.279 -0.303 -0.287 -0.287
 0.182  0.848 -0.236 -0.277 -0.301 -0.286 -0.286
 0.184  0.852 -0.231 -0.275 -0.299 -0.284 -0.284
 0.186  0.857 -0.228 -0.272 -0.297 -0.282 -0.282
 0.188  0.861 -0.224 -0.270 -0.295 -0.280 -0.280
 0.190  0.865 -0.219 -0.268 -0.293 -0.279 -0.279
 0.192  0.869 -0.215 -0.265 -0.291 -0.277 -0.277
 0.194  0.874 -0.211 -0.263 -0.289 -0.276 -0.276
 0.196  0.878 -0.206 -0.260 -0.287 -0.274 -0.274
 0.198  0.882 -0.202 -0.258 -0.285 -0.272 -0.272
 0.200  0.886 -0.197 -0.255 -0.284 -0.271 -0.271
 0.202  0.891 -0.193 -0.253 -0.282 -0.270 -0.270
 0.204  0.895 -0.189 -0.250 -0.280 -0.268 -0.268
 0.206  0.899 -0.184 -0.248 -0.278 -0.266 -0.266
 0.208  0.903 -0.180 -0.245 -0.277 -0.265 -0.265
 0.210  0.907 -0.176 -0.242 -0.275 -0.263 -0.263
 0.212  0.912 -0.171 -0.239 -0.273 -0.262 -0.262
 0.214  0.916 -0.167 -0.237 -0.272 -0.260 -0.260
 0.216  0.920 -0.162 -0.234 -0.270 -0.259 -0.259
 0.218  0.924 -0.158 -0.231 -0.269 -0.257 -0.257
 0.220  0.928 -0.154 -0.228 -0.267 -0.256 -0.256
 0.222  0.932 -0.149 -0.225 -0.265 -0.254 -0.254
 0.224  0.936 -0.145 -0.223 -0.264 -0.253 -0.253
 0.226  0.940 -0.141 -0.219 -0.262 -0.252 -0.252
 0.228  0.944 -0.135 -0.216 -0.261 -0.251 -0.251
 0.230  0.948 -0.131 -0.213 -0.259 -0.249 -0.249
 0.232  0.952 -0.126 -0.211 -0.258 -0.248 -0.248
 0.234  0.956 -0.122 -0.208 -0.257 -0.246 -0.246
 0.236  0.960 -0.118 -0.205 -0.255 -0.245 -0.245
 0.238  0.964 -0.113 -0.202 -0.254 -0.244 -0.244
 0.240  0.968 -0.109 -0.199 -0.253 -0.243 -0.243
 0.242  0.972 -0.104 -0.196 -0.251 -0.241 -0.241
 0.244  0.976 -0.100 -0.193 -0.250 -0.240 -0.240
 0.246  0.980 -0.096 -0.190 -0.248 -0.238 -0.238
 0.248  0.983 -0.091 -0.188 -0.247 -0.237 -0.237
 0.250  0.987 -0.088 -0.185 -0.245 -0.235 -0.235
 0.252  0.991 -0.084 -0.182 -0.243 -0.234 -0.234
 0.254  0.994 -0.079 -0.179 -0.242 -0.233 -0.233
 0.256  0.998 -0.076 -0.176 -0.240 -0.232 -0.232
 0.258  1.002 -0.072 -0.173 -0.238 -0.230 -0.230
 0.260  1.005 -0.067 -0.170 -0.236 -0.229 -0.229
 0.262  1.009 -0.064 -0.167 -0.235 -0.227 -0.227
 0.264  1.012 -0.060 -0.165 -0.233 -0.226 -0.226
 0.266  1.016 -0.056 -0.162 -0.231 -0.225 -0.225
 0.268  1.020 -0.052 -0.159 -0.229 -0.223 -0.223
 0.270  1.023 -0.049 -0.156 -0.228 -0.221 -0.221
 0.272  1.026 -0.045 -0.153 -0.226 -0.220 -0.220
 0.274  1.030 -0.041 -0.150 -0.224 -0.219 -0.219
 0.276  1.033 -0.038 -0.147 -0.222 -0.217 -0.217
 0.278  1.037 -0.034 -0.144 -0.220 -0.216 -0.216
 0.280  1.040 -0.031 -0.142 -0.218 -0.214 -0.214
 0.282  1.043 -0.028 -0.138 -0.216 -0.213 -0.213
 0.284  1.047 -0.023 -0.135 -0.214 -0.211 -0.211
 0.286  1.050 -0.020 -0.133 -0.212 -0.209 -0.209
 0.288  1.053 -0.017 -0.130 -0.210 -0.208 -0.208
 0.290  1.057 -0.014 -0.127 -0.208 -0.207 -0.207
 0.292  1.060 -0.011 -0.124 -0.206 -0.205 -0.205
 0.294  1.063 -0.008 -0.121 -0.203 -0.204 -0.204
 0.296  1.066 -0.005 -0.119 -0.201 -0.202 -0.202
 0.298  1.070 -0.001 -0.116 -0.199 -0.200 -0.200
 0.300  1.073  0.002 -0.113 -0.197 -0.199 -0.199
 0.302  1.076  0.004 -0.110 -0.195 -0.197 -0.197
 0.304  1.079  0.007 -0.107 -0.192 -0.195 -0.195
 0.306  1.082  0.011 -0.105 -0.190 -0.194 -0.194
 0.308  1.086  0.014 -0.102 -0.188 -0.192 -0.192
 0.310  1.089  0.016 -0.100 -0.186 -0.191 -0.191
 0.312  1.092  0.019 -0.097 -0.183 -0.189 -0.189
 0.314  1.095  0.023 -0.094 -0.181 -0.187 -0.187
 0.316  1.099  0.025 -0.092 -0.179 -0.186 -0.186
 0.318  1.102  0.028 -0.089 -0.177 -0.184 -0.184
 0.320  1.105  0.031 -0.087 -0.175 -0.182 -0.182
 0.322  1.108  0.035 -0.084 -0.172 -0.181 -0.181
 0.324  1.111  0.037 -0.082 -0.170 -0.179 -0.179
 0.326  1.115  0.040 -0.080 -0.168 -0.178 -0.178
 0.328  1.118  0.043 -0.078 -0.166 -0.176 -0.176
 0.330  1.121  0.047 -0.075 -0.164 -0.174 -0.174
 0.332  1.124  0.050 -0.073 -0.161 -0.173 -0.173
 0.334  1.127  0.052 -0.071 -0.160 -0.172 -0.172
 0.336  1.130  0.055 -0.069 -0.157 -0.170 -0.170
 0.338  1.134  0.059 -0.067 -0.155 -0.168 -0.168
 0.340  1.137  0.062 -0.065 -0.153 -0.167 -0.167
 0.342  1.140  0.065 -0.063 -0.151 -0.165 -0.165
 0.344  1.143  0.069 -0.061 -0.149 -0.163 -0.163
 0.346  1.146  0.072 -0.059 -0.147 -0.162 -0.162
 0.348  1.149  0.075 -0.056 -0.145 -0.160 -0.160
 0.350  1.153  0.078 -0.055 -0.143 -0.159 -0.159
 0.352  1.157  0.082 -0.053 -0.141 -0.157 -0.157
 0.354  1.160  0.085 -0.051 -0.139 -0.156 -0.156
 0.356  1.163  0.088 -0.049 -0.136 -0.154 -0.154
 0.358  1.166  0.092 -0.047 -0.135 -0.153 -0.153
 0.360  1.169  0.095 -0.046 -0.132 -0.151 -0.151
 0.362  1.172  0.098 -0.044 -0.131 -0.150 -0.150
 0.364  1.176  0.101 -0.042 -0.128 -0.148 -0.148
 0.366  1.179  0.105 -0.040 -0.127 -0.147 -0.147
 0.368  1.182  0.108 -0.039 -0.125 -0.145 -0.145
 0.370  1.185  0.111 -0.038 -0.123 -0.143 -0.143
 0.372  1.188  0.115 -0.036 -0.121 -0.142 -0.142
 0.374  1.191  0.118 -0.034 -0.119 -0.141 -0.141
 0.376  1.193  0.121 -0.032 -0.117 -0.139 -0.139
 0.378  1.196  0.124 -0.031 -0.115 -0.137 -0.137
 0.380  1.199  0.128 -0.029 -0.113 -0.136 -0.136
 0.382  1.202  0.131 -0.027 -0.111 -0.135 -0.135
 0.384  1.205  0.134 -0.026 -0.109 -0.133 -0.133
 0.386  1.207  0.138 -0.024 -0.108 -0.132 -0.132
 0.388  1.210  0.141 -0.022 -0.105 -0.130 -0.130
 0.390  1.213  0.144 -0.020 -0.104 -0.129 -0.129
 0.392  1.215  0.147 -0.019 -0.102 -0.127 -0.127
 0.394  1.218  0.151 -0.017 -0.100 -0.126 -0.126
 0.396  1.220  0.154 -0.015 -0.098 -0.124 -0.124
 0.398  1.223  0.156 -0.014 -0.096 -0.123 -0.123
 0.400  1.225  0.159 -0.012 -0.094 -0.122 -0.122
 0.402  1.228  0.163 -0.010 -0.093 -0.120 -0.120
 0.404  1.230  0.165 -0.008 -0.091 -0.118 -0.118
 0.406  1.233  0.168 -0.007 -0.089 -0.117 -0.117
 0.408  1.235  0.170 -0.006 -0.087 -0.116 -0.116
 0.410  1.237  0.174 -0.003 -0.086 -0.115 -0.115
 0.412  1.239  0.176 -0.002 -0.084 -0.113 -0.113
 0.414  1.242  0.179  0.000 -0.082 -0.111 -0.111
 0.416  1.244  0.181  0.001 -0.080 -0.110 -0.110
 0.418  1.246  0.185  0.004 -0.078 -0.109 -0.109
 0.420  1.248  0.187  0.005 -0.076 -0.108 -0.108
 0.422  1.250  0.189  0.006 -0.075 -0.106 -0.106
 0.424  1.252  0.191  0.008 -0.074 -0.104 -0.104
 0.426  1.254  0.195  0.010 -0.072 -0.103 -0.103
 0.428  1.256  0.197  0.012 -0.070 -0.102 -0.102
 0.430  1.258  0.199  0.013 -0.068 -0.101 -0.101
 0.432  1.260  0.201  0.015 -0.067 -0.099 -0.099
 0.434  1.262  0.203  0.017 -0.065 -0.098 -0.098
 0.436  1.264  0.205  0.018 -0.063 -0.096 -0.096
 0.438  1.266  0.208  0.020 -0.061 -0.095 -0.095
 0.440  1.268  0.210  0.022 -0.060 -0.094 -0.094
 0.442  1.270  0.212  0.023 -0.059 -0.092 -0.092
 0.444  1.272  0.214  0.025 -0.057 -0.091 -0.091
 0.446  1.274  0.216  0.027 -0.055 -0.090 -0.090
 0.448  1.276  0.219  0.028 -0.053 -0.088 -0.088
 0.450  1.278  0.220  0.029 -0.052 -0.087 -0.087
 0.452  1.280  0.222  0.031 -0.050 -0.086 -0.086
 0.454  1.282  0.224  0.033 -0.049 -0.084 -0.084
 0.456  1.284  0.225  0.034 -0.047 -0.083 -0.083
 0.458  1.286  0.227  0.036 -0.045 -0.082 -0.082
 0.460  1.288  0.230  0.038 -0.044 -0.081 -0.081
 0.462  1.290  0.231  0.039 -0.042 -0.079 -0.079
 0.464  1.292  0.233  0.041 -0.041 -0.078 -0.078
 0.466  1.294  0.234  0.042 -0.039 -0.077 -0.077
 0.468  1.297  0.236  0.043 -0.038 -0.076 -0.076
 0.470  1.299  0.237  0.045 -0.036 -0.074 -0.074
 0.472  1.301  0.239  0.047 -0.034 -0.073 -0.073
 0.474  1.303  0.240  0.048 -0.033 -0.072 -0.072
 0.476  1.305  0.243  0.050 -0.031 -0.071 -0.071
 0.478  1.307  0.244  0.051 -0.030 -0.069 -0.069
 0.480  1.310  0.246  0.052 -0.028 -0.068 -0.068
 0.482  1.312  0.247  0.054 -0.027 -0.067 -0.067
 0.484  1.314  0.248  0.055 -0.025 -0.066 -0.066
 0.486  1.316  0.249  0.057 -0.023 -0.065 -0.065
 0.488  1.319  0.251  0.058 -0.022 -0.064 -0.064
 0.490  1.321  0.253  0.059 -0.020 -0.062 -0.062
 0.492  1.323  0.254  0.061 -0.019 -0.061 -0.061
 0.494  1.326  0.255  0.062 -0.017 -0.060 -0.060
 0.496  1.328  0.256  0.064 -0.016 -0.059 -0.059
 0.498  1.331  0.257  0.065 -0.014 -0.058 -0.058
 0.500  1.333  0.258  0.066 -0.012 -0.057 -0.057
 0.502  1.336  0.260  0.068 -0.011 -0.056 -0.056
 0.504  1.338  0.261  0.068 -0.010 -0.055 -0.055
 0.506  1.340  0.262  0.070 -0.008 -0.053 -0.053
 0.508  1.343  0.263  0.071 -0.007 -0.052 -0.052
 0.510  1.345  0.263  0.073 -0.005 -0.051 -0.051
 0.512  1.347  0.265  0.074 -0.003 -0.050 -0.050
 0.514  1.350  0.266  0.075 -0.002 -0.049 -0.049
 0.516  1.352  0.267  0.076 -0.000 -0.049 -0.049
 0.518  1.354  0.268  0.078  0.001 -0.047 -0.047
 0.520  1.356  0.269  0.079  0.003 -0.046 -0.046
 0.522  1.358  0.269  0.080  0.004 -0.045 -0.045
 0.524  1.359  0.270  0.081  0.006 -0.044 -0.044
 0.526  1.361  0.271  0.082  0.007 -0.043 -0.043
 0.528  1.362  0.272  0.083  0.008 -0.043 -0.043
 0.530  1.364  0.272  0.085  0.010 -0.042 -0.042
 0.532  1.365  0.273  0.086  0.011 -0.040 -0.040
 0.534  1.367  0.274  0.087  0.013 -0.039 -0.039
 0.536  1.368  0.274  0.088  0.014 -0.038 -0.038
 0.538  1.369  0.276  0.089  0.015 -0.038 -0.038
 0.540  1.370  0.276  0.090  0.017 -0.037 -0.037
 0.542  1.371  0.277  0.092  0.018 -0.036 -0.036
 0.544  1.372  0.277  0.092  0.020 -0.035 -0.035
 0.546  1.373  0.278  0.094  0.021 -0.034 -0.034
 0.548  1.373  0.278  0.094  0.022 -0.033 -0.033
 0.550  1.374  0.279  0.095  0.023 -0.032 -0.032
 0.552  1.374  0.279  0.096  0.025 -0.031 -0.031
 0.554  1.375  0.279  0.097  0.026 -0.030 -0.030
 0.556  1.375  0.280  0.098  0.027 -0.030 -0.030
 0.558  1.376  0.280  0.099  0.029 -0.029 -0.029
 0.560  1.376  0.281  0.100  0.030 -0.027 -0.027
 0.562  1.376  0.281  0.101  0.031 -0.027 -0.027
 0.564  1.376  0.281  0.102  0.032 -0.026 -0.026
 0.566  1.376  0.281  0.103  0.033 -0.025 -0.025
 0.568  1.376  0.282  0.103  0.035 -0.024 -0.024
 0.570  1.376  0.282  0.105  0.036 -0.023 -0.023
 0.572  1.375  0.282  0.105  0.037 -0.023 -0.023
 0.574  1.375  0.282  0.106  0.038 -0.021 -0.021
 0.576  1.375  0.282  0.107  0.039 -0.021 -0.021
 0.578  1.374  0.282  0.108  0.040 -0.020 -0.020
 0.580  1.374  0.282  0.109  0.041 -0.019 -0.019
 0.582  1.374  0.282  0.110  0.042 -0.018 -0.018
 0.584  1.373  0.282  0.110  0.044 -0.018 -0.018
 0.586  1.373  0.282  0.112  0.045 -0.017 -0.017
 0.588  1.373  0.282  0.112  0.046 -0.016 -0.016
 0.590  1.372  0.282  0.113  0.046 -0.015 -0.015
 0.592  1.372  0.282  0.114  0.048 -0.014 -0.014
 0.594  1.372  0.282  0.115  0.049 -0.014 -0.014
 0.596  1.371  0.282  0.116  0.050 -0.013 -0.013
 0.598  1.371  0.282  0.117  0.051 -0.012 -0.012
 0.600  1.371  0.282  0.118  0.052 -0.011 -0.011
 0.602  1.371  0.282  0.119  0.053 -0.011 -0.011
 0.604  1.371  0.282  0.120  0.053 -0.010 -0.010
 0.606  1.371  0.282  0.121  0.055 -0.009 -0.009
 0.608  1.370  0.282  0.122  0.055 -0.008 -0.008
 0.610  1.370  0.281  0.123  0.056 -0.008 -0.008
 0.612  1.370  0.281  0.124  0.057 -0.007 -0.007
 0.614  1.370  0.281  0.125  0.058 -0.006 -0.006
 0.616  1.370  0.281  0.126  0.059 -0.006 -0.006
 0.618  1.370  0.281  0.127  0.060 -0.005 -0.005
 0.620  1.370  0.281  0.129  0.061 -0.004 -0.004
 0.622  1.370  0.281  0.130  0.061 -0.004 -0.004
 0.624  1.370  0.281  0.131  0.063 -0.003 -0.003
 0.626  1.370  0.281  0.132  0.063 -0.002 -0.002
 0.628  1.370  0.281  0.133  0.064 -0.001 -0.001
 0.630  1.370  0.280  0.134  0.065 -0.001 -0.001
 0.632  1.370  0.280  0.135  0.066  0.000  0.000
 0.634  1.370  0.280  0.136  0.067  0.001  0.001
 0.636  1.371  0.280  0.138  0.067  0.001  0.001
 0.638  1.371  0.280  0.139  0.068  0.002  0.002
 0.640  1.371  0.280  0.140  0.069  0.003  0.003
 0.642  1.371  0.280  0.141  0.070  0.003  0.003
 0.644  1.371  0.280  0.142  0.071  0.004  0.004
 0.646  1.372  0.279  0.144  0.071  0.005  0.005
 0.648  1.372  0.279  0.145  0.072  0.006  0.006
 0.650  1.372  0.279  0.147  0.072  0.006  0.006
 0.652  1.373  0.279  0.148  0.074  0.007  0.007
 0.654  1.373  0.279  0.149  0.074  0.007  0.007
 0.656  1.373  0.279  0.151  0.075  0.008  0.008
 0.658  1.374  0.278  0.152  0.075  0.008  0.008
 0.660  1.374  0.278  0.154  0.076  0.009  0.009
 0.662  1.374  0.278  0.156  0.077  0.009  0.009
 0.664  1.375  0.278  0.157  0.078  0.011  0.011
 0.666  1.375  0.278  0.159  0.078  0.011  0.011
 0.668  1.375  0.278  0.161  0.079  0.012  0.012
 0.670  1.376  0.278  0.163  0.080  0.012  0.012
 0.672  1.376  0.278  0.164  0.081  0.013  0.013
 0.674  1.377  0.278  0.166  0.082  0.014  0.014
 0.676  1.377  0.278  0.168  0.082  0.014  0.014
 0.678  1.377  0.278  0.170  0.083  0.015  0.015
 0.680  1.378  0.279  0.172  0.084  0.016  0.016
 0.682  1.378  0.279  0.175  0.085  0.017  0.017
 0.684  1.379  0.279  0.177  0.086  0.018  0.018
 0.686  1.379  0.280  0.179  0.087  0.019  0.019
 0.688  1.380  0.280  0.182  0.088  0.020  0.020
 0.690  1.380  0.281  0.184  0.089  0.021  0.021
 0.692  1.381  0.281  0.186  0.090  0.022  0.022
 0.694  1.381  0.282  0.189  0.091  0.023  0.023
 0.696  1.382  0.283  0.191  0.092  0.024  0.024
 0.698  1.383  0.283  0.193  0.093  0.025  0.025
 0.700  1.383  0.284  0.196  0.094  0.026  0.026
 0.702  1.384  0.285  0.199  0.096  0.027  0.027
 0.704  1.384  0.286  0.202  0.097  0.028  0.028
 0.706  1.385  0.288  0.205  0.098  0.029  0.029
 0.708  1.386  0.289  0.207  0.099  0.031  0.031
 0.710  1.386  0.290  0.210  0.101  0.032  0.032
 0.712  1.387  0.291  0.213  0.102  0.034  0.034
 0.714  1.387  0.292  0.216  0.104  0.035  0.035
 0.716  1.388  0.293  0.219  0.105  0.037  0.037
 0.718  1.389  0.294  0.222  0.107  0.038  0.038
 0.720  1.389  0.296  0.225  0.108  0.039  0.039
 0.722  1.390  0.297  0.228  0.109  0.041  0.041
 0.724  1.391  0.299  0.230  0.111  0.042  0.042
 0.726  1.392  0.301  0.232  0.112  0.044  0.044
 0.728  1.393  0.302  0.233  0.114  0.046  0.046
 0.730  1.394  0.304  0.235  0.115  0.047  0.047
 0.732  1.396  0.305  0.235  0.116  0.049  0.049
 0.734  1.397  0.307  0.236  0.117  0.051  0.051
 0.736  1.399  0.309  0.236  0.119  0.052  0.052
 0.738  1.400  0.311  0.235  0.120  0.054  0.054
 0.740  1.402  0.313  0.235  0.120  0.055  0.055
 0.742  1.404  0.315  0.233  0.121  0.057  0.057
 0.744  1.406  0.316  0.232  0.122  0.059  0.059
 0.746  1.408  0.318  0.230  0.122  0.060  0.060
 0.748  1.410  0.320  0.228  0.122  0.061  0.061
 0.750  1.412  0.323  0.226  0.122  0.063  0.063
 0.752  1.414  0.325  0.222  0.122  0.065  0.065
 0.754  1.416  0.327  0.219  0.121  0.066  0.066
 0.756  1.418  0.329  0.216  0.120  0.067  0.067
 0.758  1.420  0.331  0.212  0.119  0.069  0.069
 0.760  1.423  0.335  0.207  0.118  0.070  0.070
 0.762  1.425  0.337  0.203  0.117  0.071  0.071
 0.764  1.428  0.339  0.198  0.115  0.072  0.072
 0.766  1.431  0.341  0.193  0.113  0.073  0.073
 0.768  1.434  0.343  0.186  0.112  0.074  0.074
 0.770  1.437  0.347  0.180  0.109  0.076  0.076
 0.772  1.440  0.349  0.173  0.107  0.077  0.077
 0.774  1.444  0.351  0.166  0.105  0.078  0.078
 0.776  1.447  0.353  0.159  0.102  0.078  0.078
 0.778  1.451  0.357  0.151  0.099  0.079  0.079
 0.780  1.455  0.359  0.142  0.096  0.080  0.080
 0.782  1.459  0.361  0.134  0.093  0.081  0.081
 0.784  1.462  0.364  0.125  0.090  0.081  0.081
 0.786  1.466  0.366  0.116  0.086  0.082  0.082
 0.788  1.469  0.370  0.107  0.082  0.083  0.083
 0.790  1.473  0.373  0.097  0.078  0.084  0.084
 0.792  1.476  0.376  0.087  0.074  0.084  0.084
 0.794  1.479  0.380  0.078  0.070  0.085  0.085
 0.796  1.482  0.383  0.068  0.065  0.085  0.085
 0.798  1.484  0.386  0.059  0.060  0.086  0.086
 0.800  1.486  0.389  0.049  0.055  0.086  0.086
 0.802  1.488  0.393  0.039  0.050  0.087  0.087
 0.804  1.489  0.396  0.029  0.045  0.087  0.087
 0.806  1.490  0.398  0.020  0.040  0.087  0.087
 0.808  1.491  0.400  0.010  0.034  0.087  0.087
