# IsPeriodic    : True
# Period        : 0.579397 days
# Normalization : <g_mag>=0
# 
# Phase u_mag  g_mag  r_mag  i_mag  z_mag  y_mag
 0.000  0.406 -0.670 -0.617 -0.534 -0.384 -0.384
 0.002  0.406 -0.670 -0.617 -0.534 -0.383 -0.383
 0.004  0.407 -0.669 -0.617 -0.533 -0.383 -0.383
 0.006  0.408 -0.667 -0.616 -0.532 -0.383 -0.383
 0.008  0.410 -0.666 -0.616 -0.530 -0.382 -0.382
 0.010  0.412 -0.664 -0.614 -0.529 -0.382 -0.382
 0.012  0.414 -0.662 -0.612 -0.526 -0.381 -0.381
 0.014  0.416 -0.660 -0.611 -0.523 -0.380 -0.380
 0.016  0.419 -0.658 -0.609 -0.521 -0.379 -0.379
 0.018  0.421 -0.655 -0.608 -0.518 -0.378 -0.378
 0.020  0.424 -0.652 -0.605 -0.515 -0.377 -0.377
 0.022  0.427 -0.649 -0.604 -0.511 -0.376 -0.376
 0.024  0.432 -0.645 -0.601 -0.508 -0.374 -0.374
 0.026  0.435 -0.643 -0.599 -0.505 -0.373 -0.373
 0.028  0.438 -0.640 -0.596 -0.502 -0.372 -0.372
 0.030  0.442 -0.635 -0.594 -0.499 -0.371 -0.371
 0.032  0.447 -0.632 -0.591 -0.496 -0.369 -0.369
 0.034  0.451 -0.629 -0.588 -0.493 -0.368 -0.368
 0.036  0.455 -0.625 -0.585 -0.490 -0.367 -0.367
 0.038  0.460 -0.621 -0.582 -0.487 -0.365 -0.365
 0.040  0.464 -0.617 -0.579 -0.485 -0.364 -0.364
 0.042  0.470 -0.613 -0.575 -0.482 -0.362 -0.362
 0.044  0.475 -0.609 -0.572 -0.478 -0.361 -0.361
 0.046  0.480 -0.604 -0.569 -0.476 -0.360 -0.360
 0.048  0.486 -0.600 -0.565 -0.473 -0.358 -0.358
 0.050  0.492 -0.594 -0.561 -0.470 -0.356 -0.356
 0.052  0.498 -0.590 -0.557 -0.466 -0.355 -0.355
 0.054  0.505 -0.585 -0.553 -0.463 -0.353 -0.353
 0.056  0.511 -0.579 -0.548 -0.460 -0.351 -0.351
 0.058  0.517 -0.575 -0.544 -0.457 -0.350 -0.350
 0.060  0.525 -0.568 -0.539 -0.454 -0.347 -0.347
 0.062  0.531 -0.562 -0.534 -0.450 -0.346 -0.346
 0.064  0.538 -0.557 -0.529 -0.447 -0.343 -0.343
 0.066  0.546 -0.551 -0.524 -0.444 -0.342 -0.342
 0.068  0.554 -0.545 -0.520 -0.440 -0.340 -0.340
 0.070  0.562 -0.538 -0.514 -0.437 -0.338 -0.338
 0.072  0.570 -0.533 -0.509 -0.433 -0.336 -0.336
 0.074  0.578 -0.526 -0.503 -0.430 -0.334 -0.334
 0.076  0.586 -0.519 -0.499 -0.426 -0.331 -0.331
 0.078  0.593 -0.513 -0.493 -0.423 -0.330 -0.330
 0.080  0.602 -0.506 -0.488 -0.420 -0.327 -0.327
 0.082  0.610 -0.499 -0.482 -0.417 -0.325 -0.325
 0.084  0.618 -0.493 -0.477 -0.413 -0.323 -0.323
 0.086  0.625 -0.487 -0.472 -0.410 -0.321 -0.321
 0.088  0.632 -0.481 -0.467 -0.407 -0.319 -0.319
 0.090  0.640 -0.474 -0.462 -0.404 -0.317 -0.317
 0.092  0.647 -0.468 -0.457 -0.400 -0.315 -0.315
 0.094  0.655 -0.462 -0.453 -0.397 -0.314 -0.314
 0.096  0.661 -0.456 -0.448 -0.393 -0.311 -0.311
 0.098  0.668 -0.451 -0.443 -0.390 -0.310 -0.310
 0.100  0.675 -0.444 -0.438 -0.387 -0.308 -0.308
 0.102  0.681 -0.439 -0.434 -0.384 -0.306 -0.306
 0.104  0.687 -0.433 -0.429 -0.381 -0.304 -0.304
 0.106  0.694 -0.427 -0.425 -0.378 -0.303 -0.303
 0.108  0.700 -0.422 -0.421 -0.375 -0.301 -0.301
 0.110  0.705 -0.416 -0.416 -0.372 -0.299 -0.299
 0.112  0.712 -0.411 -0.412 -0.369 -0.298 -0.298
 0.114  0.717 -0.405 -0.408 -0.366 -0.296 -0.296
 0.116  0.723 -0.401 -0.404 -0.363 -0.294 -0.294
 0.118  0.729 -0.395 -0.400 -0.360 -0.293 -0.293
 0.120  0.734 -0.391 -0.396 -0.357 -0.291 -0.291
 0.122  0.739 -0.385 -0.392 -0.355 -0.290 -0.290
 0.124  0.744 -0.381 -0.388 -0.352 -0.288 -0.288
 0.126  0.750 -0.375 -0.385 -0.349 -0.287 -0.287
 0.128  0.754 -0.371 -0.381 -0.346 -0.285 -0.285
 0.130  0.759 -0.367 -0.377 -0.344 -0.284 -0.284
 0.132  0.763 -0.362 -0.374 -0.341 -0.283 -0.283
 0.134  0.768 -0.358 -0.371 -0.339 -0.282 -0.282
 0.136  0.772 -0.353 -0.367 -0.336 -0.280 -0.280
 0.138  0.776 -0.349 -0.364 -0.334 -0.279 -0.279
 0.140  0.780 -0.345 -0.361 -0.331 -0.278 -0.278
 0.142  0.785 -0.340 -0.358 -0.329 -0.277 -0.277
 0.144  0.788 -0.336 -0.355 -0.326 -0.275 -0.275
 0.146  0.792 -0.332 -0.352 -0.324 -0.274 -0.274
 0.148  0.796 -0.328 -0.348 -0.322 -0.273 -0.273
 0.150  0.799 -0.324 -0.345 -0.319 -0.272 -0.272
 0.152  0.804 -0.319 -0.343 -0.317 -0.271 -0.271
 0.154  0.807 -0.316 -0.340 -0.315 -0.270 -0.270
 0.156  0.811 -0.311 -0.336 -0.312 -0.269 -0.269
 0.158  0.814 -0.308 -0.334 -0.310 -0.268 -0.268
 0.160  0.818 -0.304 -0.331 -0.308 -0.267 -0.267
 0.162  0.822 -0.299 -0.327 -0.306 -0.265 -0.265
 0.164  0.826 -0.296 -0.325 -0.304 -0.264 -0.264
 0.166  0.829 -0.291 -0.322 -0.301 -0.263 -0.263
 0.168  0.833 -0.287 -0.319 -0.299 -0.262 -0.262
 0.170  0.837 -0.283 -0.316 -0.298 -0.261 -0.261
 0.172  0.841 -0.279 -0.313 -0.295 -0.259 -0.259
 0.174  0.845 -0.275 -0.310 -0.293 -0.258 -0.258
 0.176  0.849 -0.270 -0.307 -0.291 -0.257 -0.257
 0.178  0.852 -0.266 -0.305 -0.289 -0.255 -0.255
 0.180  0.856 -0.262 -0.302 -0.287 -0.254 -0.254
 0.182  0.861 -0.258 -0.298 -0.285 -0.252 -0.252
 0.184  0.864 -0.254 -0.296 -0.283 -0.251 -0.251
 0.186  0.868 -0.249 -0.293 -0.281 -0.249 -0.249
 0.188  0.872 -0.245 -0.290 -0.279 -0.248 -0.248
 0.190  0.876 -0.241 -0.287 -0.277 -0.247 -0.247
 0.192  0.880 -0.236 -0.285 -0.275 -0.246 -0.246
 0.194  0.884 -0.232 -0.281 -0.273 -0.244 -0.244
 0.196  0.888 -0.228 -0.279 -0.271 -0.242 -0.242
 0.198  0.892 -0.224 -0.277 -0.269 -0.241 -0.241
 0.200  0.896 -0.220 -0.273 -0.267 -0.240 -0.240
 0.202  0.900 -0.215 -0.271 -0.265 -0.238 -0.238
 0.204  0.904 -0.211 -0.268 -0.263 -0.237 -0.237
 0.206  0.908 -0.206 -0.265 -0.261 -0.235 -0.235
 0.208  0.912 -0.202 -0.263 -0.260 -0.233 -0.233
 0.210  0.916 -0.197 -0.260 -0.258 -0.232 -0.232
 0.212  0.920 -0.193 -0.257 -0.256 -0.230 -0.230
 0.214  0.924 -0.189 -0.254 -0.254 -0.228 -0.228
 0.216  0.928 -0.184 -0.252 -0.253 -0.227 -0.227
 0.218  0.932 -0.180 -0.249 -0.251 -0.226 -0.226
 0.220  0.937 -0.175 -0.246 -0.249 -0.224 -0.224
 0.222  0.941 -0.171 -0.243 -0.247 -0.222 -0.222
 0.224  0.944 -0.166 -0.241 -0.246 -0.221 -0.221
 0.226  0.948 -0.162 -0.239 -0.244 -0.219 -0.219
 0.228  0.953 -0.158 -0.235 -0.242 -0.217 -0.217
 0.230  0.957 -0.153 -0.233 -0.240 -0.216 -0.216
 0.232  0.960 -0.150 -0.231 -0.239 -0.214 -0.214
 0.234  0.964 -0.145 -0.228 -0.237 -0.213 -0.213
 0.236  0.967 -0.141 -0.226 -0.235 -0.211 -0.211
 0.238  0.972 -0.137 -0.223 -0.233 -0.210 -0.210
 0.240  0.976 -0.133 -0.221 -0.232 -0.208 -0.208
 0.242  0.979 -0.129 -0.218 -0.230 -0.207 -0.207
 0.244  0.983 -0.126 -0.215 -0.228 -0.205 -0.205
 0.246  0.986 -0.121 -0.213 -0.227 -0.204 -0.204
 0.248  0.990 -0.117 -0.210 -0.225 -0.202 -0.202
 0.250  0.994 -0.113 -0.208 -0.223 -0.201 -0.201
 0.252  0.997 -0.109 -0.206 -0.222 -0.200 -0.200
 0.254  1.001 -0.106 -0.203 -0.220 -0.198 -0.198
 0.256  1.004 -0.102 -0.201 -0.219 -0.197 -0.197
 0.258  1.008 -0.098 -0.199 -0.217 -0.195 -0.195
 0.260  1.011 -0.095 -0.197 -0.215 -0.194 -0.194
 0.262  1.015 -0.091 -0.194 -0.214 -0.193 -0.193
 0.264  1.018 -0.087 -0.192 -0.212 -0.191 -0.191
 0.266  1.021 -0.084 -0.189 -0.210 -0.190 -0.190
 0.268  1.024 -0.080 -0.187 -0.209 -0.189 -0.189
 0.270  1.028 -0.077 -0.185 -0.207 -0.188 -0.188
 0.272  1.031 -0.074 -0.183 -0.206 -0.186 -0.186
 0.274  1.034 -0.070 -0.180 -0.204 -0.185 -0.185
 0.276  1.037 -0.067 -0.178 -0.202 -0.184 -0.184
 0.278  1.040 -0.064 -0.176 -0.200 -0.183 -0.183
 0.280  1.043 -0.060 -0.174 -0.199 -0.181 -0.181
 0.282  1.047 -0.057 -0.172 -0.197 -0.180 -0.180
 0.284  1.050 -0.054 -0.170 -0.195 -0.179 -0.179
 0.286  1.053 -0.050 -0.168 -0.194 -0.178 -0.178
 0.288  1.056 -0.047 -0.165 -0.192 -0.176 -0.176
 0.290  1.059 -0.044 -0.164 -0.191 -0.175 -0.175
 0.292  1.061 -0.041 -0.161 -0.189 -0.174 -0.174
 0.294  1.065 -0.038 -0.160 -0.188 -0.173 -0.173
 0.296  1.068 -0.035 -0.157 -0.186 -0.172 -0.172
 0.298  1.071 -0.032 -0.155 -0.184 -0.170 -0.170
 0.300  1.074 -0.028 -0.153 -0.183 -0.169 -0.169
 0.302  1.076 -0.026 -0.151 -0.181 -0.168 -0.168
 0.304  1.079 -0.023 -0.149 -0.180 -0.167 -0.167
 0.306  1.083 -0.019 -0.147 -0.178 -0.165 -0.165
 0.308  1.086 -0.016 -0.145 -0.176 -0.164 -0.164
 0.310  1.089 -0.013 -0.143 -0.174 -0.163 -0.163
 0.312  1.091 -0.009 -0.141 -0.173 -0.162 -0.162
 0.314  1.094 -0.006 -0.139 -0.171 -0.160 -0.160
 0.316  1.097 -0.004 -0.136 -0.169 -0.159 -0.159
 0.318  1.100 -0.001 -0.134 -0.168 -0.158 -0.158
 0.320  1.104  0.003 -0.132 -0.166 -0.157 -0.157
 0.322  1.106  0.006 -0.130 -0.165 -0.155 -0.155
 0.324  1.109  0.009 -0.128 -0.163 -0.154 -0.154
 0.326  1.112  0.013 -0.126 -0.161 -0.152 -0.152
 0.328  1.115  0.016 -0.124 -0.160 -0.151 -0.151
 0.330  1.117  0.019 -0.122 -0.158 -0.149 -0.149
 0.332  1.121  0.023 -0.120 -0.157 -0.148 -0.148
 0.334  1.124  0.026 -0.118 -0.155 -0.147 -0.147
 0.336  1.127  0.029 -0.116 -0.153 -0.145 -0.145
 0.338  1.129  0.033 -0.113 -0.152 -0.144 -0.144
 0.340  1.132  0.036 -0.112 -0.150 -0.142 -0.142
 0.342  1.135  0.039 -0.109 -0.148 -0.141 -0.141
 0.344  1.139  0.043 -0.107 -0.147 -0.139 -0.139
 0.346  1.142  0.046 -0.105 -0.145 -0.137 -0.137
 0.348  1.144  0.049 -0.103 -0.143 -0.136 -0.136
 0.350  1.147  0.053 -0.101 -0.141 -0.134 -0.134
 0.352  1.150  0.056 -0.099 -0.140 -0.133 -0.133
 0.354  1.153  0.059 -0.097 -0.138 -0.131 -0.131
 0.356  1.155  0.062 -0.095 -0.136 -0.130 -0.130
 0.358  1.159  0.066 -0.092 -0.135 -0.128 -0.128
 0.360  1.162  0.069 -0.091 -0.133 -0.126 -0.126
 0.362  1.164  0.072 -0.088 -0.131 -0.125 -0.125
 0.364  1.167  0.076 -0.087 -0.129 -0.123 -0.123
 0.366  1.170  0.079 -0.084 -0.128 -0.121 -0.121
 0.368  1.173  0.082 -0.083 -0.126 -0.120 -0.120
 0.370  1.175  0.086 -0.080 -0.124 -0.118 -0.118
 0.372  1.179  0.089 -0.079 -0.122 -0.116 -0.116
 0.374  1.182  0.092 -0.076 -0.121 -0.115 -0.115
 0.376  1.184  0.096 -0.075 -0.119 -0.113 -0.113
 0.378  1.187  0.098 -0.072 -0.117 -0.112 -0.112
 0.380  1.190  0.101 -0.071 -0.116 -0.110 -0.110
 0.382  1.192  0.105 -0.068 -0.114 -0.108 -0.108
 0.384  1.196  0.108 -0.067 -0.113 -0.107 -0.107
 0.386  1.198  0.111 -0.064 -0.111 -0.106 -0.106
 0.388  1.201  0.113 -0.063 -0.109 -0.104 -0.104
 0.390  1.204  0.117 -0.060 -0.108 -0.102 -0.102
 0.392  1.206  0.120 -0.059 -0.106 -0.101 -0.101
 0.394  1.209  0.122 -0.056 -0.105 -0.100 -0.100
 0.396  1.211  0.126 -0.055 -0.103 -0.098 -0.098
 0.398  1.215  0.129 -0.052 -0.101 -0.097 -0.097
 0.400  1.217  0.131 -0.051 -0.100 -0.095 -0.095
 0.402  1.220  0.134 -0.048 -0.098 -0.094 -0.094
 0.404  1.222  0.137 -0.046 -0.096 -0.092 -0.092
 0.406  1.225  0.140 -0.044 -0.095 -0.091 -0.091
 0.408  1.227  0.142 -0.042 -0.093 -0.090 -0.090
 0.410  1.230  0.145 -0.040 -0.091 -0.088 -0.088
 0.412  1.233  0.148 -0.038 -0.090 -0.087 -0.087
 0.414  1.236  0.150 -0.036 -0.088 -0.086 -0.086
 0.416  1.238  0.153 -0.034 -0.087 -0.084 -0.084
 0.418  1.241  0.155 -0.033 -0.085 -0.083 -0.083
 0.420  1.243  0.158 -0.030 -0.084 -0.081 -0.081
 0.422  1.246  0.161 -0.029 -0.082 -0.080 -0.080
 0.424  1.248  0.163 -0.026 -0.081 -0.079 -0.079
 0.426  1.250  0.165 -0.025 -0.079 -0.078 -0.078
 0.428  1.254  0.168 -0.022 -0.077 -0.076 -0.076
 0.430  1.256  0.171 -0.021 -0.076 -0.075 -0.075
 0.432  1.258  0.173 -0.019 -0.075 -0.074 -0.074
 0.434  1.261  0.175 -0.017 -0.073 -0.073 -0.073
 0.436  1.263  0.178 -0.015 -0.072 -0.071 -0.071
 0.438  1.265  0.180 -0.013 -0.070 -0.070 -0.070
 0.440  1.268  0.182 -0.011 -0.069 -0.069 -0.069
 0.442  1.271  0.184 -0.009 -0.067 -0.068 -0.068
 0.444  1.273  0.186 -0.007 -0.065 -0.066 -0.066
 0.446  1.275  0.189 -0.005 -0.064 -0.065 -0.065
 0.448  1.277  0.191 -0.004 -0.063 -0.064 -0.064
 0.450  1.280  0.193 -0.002 -0.061 -0.063 -0.063
 0.452  1.282  0.195  0.000 -0.060 -0.062 -0.062
 0.454  1.284  0.197  0.002 -0.058 -0.060 -0.060
 0.456  1.286  0.200  0.004 -0.056 -0.059 -0.059
 0.458  1.289  0.202  0.005 -0.055 -0.058 -0.058
 0.460  1.291  0.203  0.008 -0.054 -0.057 -0.057
 0.462  1.293  0.205  0.009 -0.052 -0.055 -0.055
 0.464  1.295  0.207  0.011 -0.051 -0.054 -0.054
 0.466  1.297  0.210  0.012 -0.049 -0.053 -0.053
 0.468  1.299  0.212  0.014 -0.048 -0.052 -0.052
 0.470  1.301  0.213  0.016 -0.046 -0.050 -0.050
 0.472  1.303  0.215  0.018 -0.045 -0.049 -0.049
 0.474  1.305  0.217  0.020 -0.044 -0.048 -0.048
 0.476  1.306  0.218  0.021 -0.042 -0.047 -0.047
 0.478  1.309  0.221  0.023 -0.041 -0.045 -0.045
 0.480  1.311  0.223  0.025 -0.039 -0.044 -0.044
 0.482  1.313  0.224  0.026 -0.038 -0.043 -0.043
 0.484  1.314  0.226  0.028 -0.036 -0.042 -0.042
 0.486  1.316  0.227  0.029 -0.035 -0.040 -0.040
 0.488  1.318  0.229  0.031 -0.034 -0.039 -0.039
 0.490  1.320  0.231  0.033 -0.032 -0.038 -0.038
 0.492  1.321  0.233  0.034 -0.030 -0.037 -0.037
 0.494  1.323  0.234  0.036 -0.029 -0.035 -0.035
 0.496  1.325  0.236  0.037 -0.028 -0.034 -0.034
 0.498  1.327  0.237  0.039 -0.026 -0.033 -0.033
 0.500  1.329  0.238  0.041 -0.025 -0.031 -0.031
 0.502  1.330  0.241  0.042 -0.023 -0.030 -0.030
 0.504  1.332  0.242  0.044 -0.022 -0.029 -0.029
 0.506  1.333  0.243  0.046 -0.020 -0.027 -0.027
 0.508  1.335  0.245  0.046 -0.019 -0.026 -0.026
 0.510  1.336  0.246  0.048 -0.018 -0.025 -0.025
 0.512  1.337  0.247  0.050 -0.016 -0.023 -0.023
 0.514  1.339  0.248  0.051 -0.015 -0.022 -0.022
 0.516  1.340  0.250  0.052 -0.013 -0.021 -0.021
 0.518  1.341  0.252  0.054 -0.012 -0.020 -0.020
 0.520  1.342  0.253  0.055 -0.011 -0.019 -0.019
 0.522  1.343  0.254  0.056 -0.009 -0.018 -0.018
 0.524  1.345  0.255  0.058 -0.009 -0.017 -0.017
 0.526  1.346  0.256  0.058 -0.008 -0.016 -0.016
 0.528  1.347  0.257  0.060 -0.006 -0.014 -0.014
 0.530  1.348  0.258  0.061 -0.005 -0.013 -0.013
 0.532  1.349  0.259  0.063 -0.004 -0.012 -0.012
 0.534  1.350  0.262  0.063 -0.003 -0.011 -0.011
 0.536  1.351  0.263  0.065 -0.002 -0.010 -0.010
 0.538  1.352  0.263  0.066 -0.001 -0.009 -0.009
 0.540  1.352  0.264  0.067 -0.001 -0.008 -0.008
 0.542  1.353  0.265  0.068  0.001 -0.007 -0.007
 0.544  1.354  0.266  0.069  0.001 -0.006 -0.006
 0.546  1.354  0.267  0.070  0.002 -0.005 -0.005
 0.548  1.355  0.268  0.071  0.003 -0.005 -0.005
 0.550  1.355  0.269  0.071  0.004 -0.003 -0.003
 0.552  1.356  0.270  0.073  0.004 -0.002 -0.002
 0.554  1.356  0.272  0.074  0.005 -0.002 -0.002
 0.556  1.357  0.272  0.075  0.006 -0.001 -0.001
 0.558  1.357  0.273  0.075  0.006 -0.000 -0.000
 0.560  1.357  0.274  0.076  0.007  0.000  0.000
 0.562  1.358  0.275  0.077  0.007  0.002  0.002
 0.564  1.358  0.275  0.078  0.008  0.002  0.002
 0.566  1.358  0.276  0.079  0.008  0.003  0.003
 0.568  1.358  0.277  0.079  0.009  0.004  0.004
 0.570  1.358  0.277  0.079  0.009  0.004  0.004
 0.572  1.358  0.278  0.080  0.010  0.005  0.005
 0.574  1.358  0.279  0.081  0.010  0.006  0.006
 0.576  1.358  0.279  0.082  0.010  0.007  0.007
 0.578  1.358  0.280  0.082  0.010  0.007  0.007
 0.580  1.358  0.280  0.083  0.010  0.008  0.008
 0.582  1.358  0.281  0.084  0.010  0.008  0.008
 0.584  1.358  0.281  0.084  0.011  0.009  0.009
 0.586  1.358  0.283  0.084  0.011  0.010  0.010
 0.588  1.358  0.283  0.084  0.011  0.010  0.010
 0.590  1.358  0.284  0.085  0.011  0.011  0.011
 0.592  1.358  0.284  0.085  0.011  0.011  0.011
 0.594  1.358  0.284  0.086  0.011  0.012  0.012
 0.596  1.358  0.285  0.086  0.011  0.013  0.013
 0.598  1.358  0.285  0.087  0.012  0.014  0.014
 0.600  1.358  0.285  0.087  0.012  0.014  0.014
 0.602  1.358  0.286  0.087  0.012  0.015  0.015
 0.604  1.358  0.286  0.087  0.013  0.015  0.015
 0.606  1.358  0.286  0.088  0.013  0.016  0.016
 0.608  1.358  0.286  0.088  0.013  0.017  0.017
 0.610  1.358  0.287  0.088  0.013  0.018  0.018
 0.612  1.358  0.287  0.088  0.013  0.018  0.018
 0.614  1.357  0.287  0.088  0.013  0.019  0.019
 0.616  1.357  0.287  0.088  0.014  0.020  0.020
 0.618  1.357  0.287  0.088  0.014  0.020  0.020
 0.620  1.357  0.287  0.088  0.014  0.021  0.021
 0.622  1.357  0.287  0.088  0.015  0.022  0.022
 0.624  1.357  0.288  0.088  0.015  0.023  0.023
 0.626  1.357  0.288  0.088  0.015  0.023  0.023
 0.628  1.357  0.288  0.087  0.015  0.024  0.024
 0.630  1.357  0.287  0.087  0.015  0.025  0.025
 0.632  1.357  0.287  0.087  0.016  0.025  0.025
 0.634  1.357  0.287  0.086  0.016  0.026  0.026
 0.636  1.357  0.287  0.086  0.017  0.027  0.027
 0.638  1.357  0.287  0.086  0.017  0.028  0.028
 0.640  1.357  0.287  0.085  0.017  0.028  0.028
 0.642  1.357  0.287  0.085  0.017  0.029  0.029
 0.644  1.357  0.286  0.084  0.017  0.030  0.030
 0.646  1.357  0.286  0.084  0.018  0.030  0.030
 0.648  1.356  0.286  0.084  0.018  0.031  0.031
 0.650  1.356  0.286  0.084  0.018  0.032  0.032
 0.652  1.356  0.286  0.083  0.018  0.032  0.032
 0.654  1.356  0.286  0.083  0.019  0.034  0.034
 0.656  1.356  0.286  0.082  0.019  0.034  0.034
 0.658  1.356  0.286  0.082  0.020  0.035  0.035
 0.660  1.356  0.286  0.082  0.020  0.036  0.036
 0.662  1.356  0.286  0.081  0.020  0.036  0.036
 0.664  1.355  0.286  0.081  0.020  0.037  0.037
 0.666  1.355  0.286  0.080  0.020  0.037  0.037
 0.668  1.355  0.286  0.080  0.020  0.038  0.038
 0.670  1.355  0.286  0.079  0.021  0.039  0.039
 0.672  1.355  0.287  0.079  0.021  0.040  0.040
 0.674  1.354  0.287  0.079  0.021  0.040  0.040
 0.676  1.354  0.287  0.079  0.021  0.041  0.041
 0.678  1.354  0.288  0.079  0.021  0.041  0.041
 0.680  1.354  0.288  0.079  0.021  0.042  0.042
 0.682  1.353  0.289  0.078  0.021  0.042  0.042
 0.684  1.353  0.289  0.078  0.021  0.043  0.043
 0.686  1.353  0.290  0.078  0.021  0.044  0.044
 0.688  1.353  0.290  0.078  0.021  0.044  0.044
 0.690  1.352  0.291  0.077  0.021  0.045  0.045
 0.692  1.352  0.293  0.077  0.021  0.045  0.045
 0.694  1.352  0.293  0.077  0.020  0.046  0.046
 0.696  1.351  0.294  0.077  0.020  0.046  0.046
 0.698  1.351  0.295  0.077  0.020  0.047  0.047
 0.700  1.350  0.296  0.076  0.020  0.047  0.047
 0.702  1.350  0.297  0.076  0.020  0.048  0.048
 0.704  1.350  0.298  0.076  0.020  0.049  0.049
 0.706  1.349  0.299  0.076  0.020  0.049  0.049
 0.708  1.349  0.300  0.076  0.019  0.050  0.050
 0.710  1.348  0.301  0.076  0.019  0.050  0.050
 0.712  1.348  0.302  0.076  0.018  0.050  0.050
 0.714  1.347  0.304  0.075  0.018  0.051  0.051
 0.716  1.347  0.305  0.075  0.018  0.051  0.051
 0.718  1.347  0.306  0.075  0.017  0.052  0.052
 0.720  1.346  0.307  0.075  0.017  0.052  0.052
 0.722  1.346  0.309  0.075  0.017  0.053  0.053
 0.724  1.345  0.310  0.075  0.016  0.054  0.054
 0.726  1.345  0.312  0.075  0.016  0.054  0.054
 0.728  1.345  0.314  0.075  0.015  0.055  0.055
 0.730  1.345  0.316  0.075  0.015  0.056  0.056
 0.732  1.345  0.318  0.075  0.015  0.057  0.057
 0.734  1.345  0.320  0.075  0.015  0.058  0.058
 0.736  1.345  0.322  0.075  0.015  0.060  0.060
 0.738  1.345  0.325  0.075  0.015  0.061  0.061
 0.740  1.345  0.327  0.075  0.015  0.063  0.063
 0.742  1.345  0.329  0.075  0.016  0.065  0.065
 0.744  1.345  0.331  0.075  0.017  0.066  0.066
 0.746  1.345  0.335  0.075  0.017  0.068  0.068
 0.748  1.346  0.337  0.075  0.017  0.070  0.070
 0.750  1.346  0.340  0.075  0.018  0.072  0.072
 0.752  1.346  0.342  0.075  0.019  0.075  0.075
 0.754  1.347  0.346  0.075  0.020  0.077  0.077
 0.756  1.347  0.348  0.075  0.021  0.079  0.079
 0.758  1.348  0.351  0.075  0.022  0.081  0.081
 0.760  1.348  0.354  0.075  0.023  0.084  0.084
 0.762  1.349  0.357  0.075  0.024  0.086  0.086
 0.764  1.350  0.360  0.075  0.026  0.089  0.089
 0.766  1.351  0.363  0.075  0.027  0.092  0.092
 0.768  1.351  0.368  0.075  0.029  0.095  0.095
 0.770  1.352  0.371  0.075  0.030  0.098  0.098
 0.772  1.353  0.375  0.075  0.032  0.102  0.102
 0.774  1.354  0.379  0.075  0.034  0.105  0.105
 0.776  1.355  0.383  0.075  0.036  0.109  0.109
 0.778  1.356  0.388  0.075  0.039  0.113  0.113
 0.780  1.357  0.392  0.074  0.041  0.117  0.117
 0.782  1.358  0.396  0.074  0.043  0.120  0.120
 0.784  1.360  0.401  0.074  0.046  0.124  0.124
 0.786  1.361  0.405  0.075  0.048  0.128  0.128
 0.788  1.362  0.409  0.075  0.051  0.132  0.132
 0.790  1.365  0.413  0.075  0.053  0.136  0.136
 0.792  1.366  0.416  0.075  0.056  0.140  0.140
 0.794  1.367  0.420  0.075  0.059  0.143  0.143
 0.796  1.369  0.423  0.076  0.062  0.147  0.147
 0.798  1.371  0.426  0.076  0.064  0.150  0.150
 0.800  1.372  0.429  0.078  0.067  0.153  0.153
 0.802  1.374  0.431  0.079  0.070  0.156  0.156
 0.804  1.376  0.433  0.079  0.072  0.159  0.159
 0.806  1.378  0.434  0.081  0.075  0.161  0.161
 0.808  1.380  0.435  0.082  0.077  0.163  0.163
