# IsPeriodic    : True
# Period        : 0.610647 days
# Normalization : <g_mag>=0
# 
# Phase u_mag  g_mag  r_mag  i_mag  z_mag  y_mag
 0.000  0.628 -0.534 -0.497 -0.455 -0.405 -0.405
 0.002  0.629 -0.534 -0.497 -0.455 -0.405 -0.405
 0.004  0.630 -0.533 -0.497 -0.455 -0.405 -0.405
 0.006  0.631 -0.532 -0.497 -0.454 -0.404 -0.404
 0.008  0.633 -0.530 -0.496 -0.454 -0.404 -0.404
 0.010  0.635 -0.529 -0.496 -0.453 -0.403 -0.403
 0.012  0.637 -0.527 -0.495 -0.452 -0.402 -0.402
 0.014  0.639 -0.525 -0.494 -0.451 -0.402 -0.402
 0.016  0.641 -0.521 -0.493 -0.450 -0.401 -0.401
 0.018  0.645 -0.519 -0.492 -0.449 -0.400 -0.400
 0.020  0.647 -0.515 -0.491 -0.448 -0.399 -0.399
 0.022  0.650 -0.512 -0.490 -0.446 -0.399 -0.399
 0.024  0.654 -0.508 -0.488 -0.445 -0.397 -0.397
 0.026  0.657 -0.505 -0.487 -0.443 -0.397 -0.397
 0.028  0.660 -0.502 -0.485 -0.442 -0.396 -0.396
 0.030  0.663 -0.498 -0.484 -0.441 -0.395 -0.395
 0.032  0.666 -0.495 -0.482 -0.440 -0.394 -0.394
 0.034  0.669 -0.491 -0.481 -0.438 -0.393 -0.393
 0.036  0.673 -0.488 -0.479 -0.437 -0.392 -0.392
 0.038  0.676 -0.485 -0.478 -0.436 -0.391 -0.391
 0.040  0.679 -0.480 -0.476 -0.435 -0.390 -0.390
 0.042  0.683 -0.477 -0.474 -0.433 -0.389 -0.389
 0.044  0.687 -0.473 -0.472 -0.432 -0.388 -0.388
 0.046  0.690 -0.469 -0.471 -0.431 -0.386 -0.386
 0.048  0.694 -0.465 -0.468 -0.429 -0.385 -0.385
 0.050  0.698 -0.461 -0.466 -0.428 -0.384 -0.384
 0.052  0.702 -0.457 -0.464 -0.426 -0.383 -0.383
 0.054  0.706 -0.452 -0.462 -0.425 -0.381 -0.381
 0.056  0.710 -0.448 -0.459 -0.423 -0.380 -0.380
 0.058  0.715 -0.443 -0.457 -0.422 -0.379 -0.379
 0.060  0.719 -0.439 -0.454 -0.421 -0.377 -0.377
 0.062  0.724 -0.434 -0.452 -0.419 -0.376 -0.376
 0.064  0.729 -0.428 -0.449 -0.417 -0.374 -0.374
 0.066  0.733 -0.423 -0.447 -0.416 -0.373 -0.373
 0.068  0.738 -0.418 -0.444 -0.414 -0.371 -0.371
 0.070  0.743 -0.413 -0.441 -0.412 -0.370 -0.370
 0.072  0.748 -0.408 -0.438 -0.411 -0.368 -0.368
 0.074  0.753 -0.403 -0.435 -0.409 -0.367 -0.367
 0.076  0.758 -0.398 -0.432 -0.407 -0.365 -0.365
 0.078  0.763 -0.392 -0.429 -0.406 -0.364 -0.364
 0.080  0.769 -0.387 -0.426 -0.404 -0.362 -0.362
 0.082  0.773 -0.382 -0.423 -0.402 -0.360 -0.360
 0.084  0.778 -0.376 -0.420 -0.400 -0.359 -0.359
 0.086  0.783 -0.371 -0.417 -0.399 -0.357 -0.357
 0.088  0.788 -0.365 -0.414 -0.397 -0.356 -0.356
 0.090  0.793 -0.360 -0.411 -0.395 -0.354 -0.354
 0.092  0.798 -0.355 -0.409 -0.394 -0.353 -0.353
 0.094  0.803 -0.350 -0.406 -0.392 -0.351 -0.351
 0.096  0.807 -0.345 -0.403 -0.390 -0.350 -0.350
 0.098  0.811 -0.340 -0.400 -0.389 -0.348 -0.348
 0.100  0.816 -0.335 -0.397 -0.387 -0.347 -0.347
 0.102  0.820 -0.331 -0.394 -0.386 -0.346 -0.346
 0.104  0.825 -0.326 -0.391 -0.384 -0.344 -0.344
 0.106  0.829 -0.321 -0.388 -0.382 -0.343 -0.343
 0.108  0.833 -0.316 -0.385 -0.381 -0.342 -0.342
 0.110  0.838 -0.312 -0.383 -0.379 -0.340 -0.340
 0.112  0.842 -0.308 -0.380 -0.377 -0.339 -0.339
 0.114  0.846 -0.303 -0.377 -0.376 -0.338 -0.338
 0.116  0.850 -0.299 -0.374 -0.374 -0.337 -0.337
 0.118  0.854 -0.295 -0.372 -0.373 -0.335 -0.335
 0.120  0.858 -0.292 -0.369 -0.371 -0.335 -0.335
 0.122  0.862 -0.287 -0.366 -0.370 -0.333 -0.333
 0.124  0.865 -0.284 -0.364 -0.368 -0.332 -0.332
 0.126  0.869 -0.280 -0.361 -0.366 -0.331 -0.331
 0.128  0.872 -0.276 -0.358 -0.365 -0.330 -0.330
 0.130  0.876 -0.273 -0.355 -0.363 -0.329 -0.329
 0.132  0.879 -0.269 -0.353 -0.362 -0.328 -0.328
 0.134  0.883 -0.266 -0.350 -0.360 -0.327 -0.327
 0.136  0.886 -0.263 -0.348 -0.359 -0.326 -0.326
 0.138  0.889 -0.259 -0.345 -0.357 -0.325 -0.325
 0.140  0.892 -0.256 -0.342 -0.356 -0.324 -0.324
 0.142  0.896 -0.253 -0.340 -0.355 -0.323 -0.323
 0.144  0.898 -0.250 -0.337 -0.353 -0.322 -0.322
 0.146  0.901 -0.247 -0.335 -0.352 -0.321 -0.321
 0.148  0.904 -0.244 -0.332 -0.350 -0.321 -0.321
 0.150  0.907 -0.241 -0.330 -0.349 -0.320 -0.320
 0.152  0.910 -0.239 -0.327 -0.347 -0.319 -0.319
 0.154  0.913 -0.236 -0.325 -0.346 -0.318 -0.318
 0.156  0.916 -0.233 -0.323 -0.344 -0.317 -0.317
 0.158  0.919 -0.230 -0.320 -0.343 -0.316 -0.316
 0.160  0.921 -0.228 -0.318 -0.341 -0.316 -0.316
 0.162  0.925 -0.225 -0.316 -0.340 -0.314 -0.314
 0.164  0.927 -0.223 -0.313 -0.338 -0.313 -0.313
 0.166  0.930 -0.220 -0.311 -0.337 -0.313 -0.313
 0.168  0.933 -0.218 -0.309 -0.336 -0.312 -0.312
 0.170  0.936 -0.214 -0.306 -0.334 -0.311 -0.311
 0.172  0.938 -0.212 -0.304 -0.333 -0.310 -0.310
 0.174  0.942 -0.208 -0.302 -0.331 -0.309 -0.309
 0.176  0.945 -0.206 -0.300 -0.330 -0.308 -0.308
 0.178  0.947 -0.202 -0.297 -0.328 -0.307 -0.307
 0.180  0.951 -0.200 -0.296 -0.327 -0.306 -0.306
 0.182  0.954 -0.196 -0.293 -0.326 -0.305 -0.305
 0.184  0.956 -0.194 -0.291 -0.324 -0.304 -0.304
 0.186  0.960 -0.190 -0.289 -0.323 -0.302 -0.302
 0.188  0.963 -0.187 -0.288 -0.322 -0.302 -0.302
 0.190  0.965 -0.184 -0.285 -0.321 -0.300 -0.300
 0.192  0.968 -0.181 -0.283 -0.319 -0.300 -0.300
 0.194  0.972 -0.178 -0.282 -0.318 -0.298 -0.298
 0.196  0.974 -0.175 -0.279 -0.317 -0.297 -0.297
 0.198  0.977 -0.172 -0.278 -0.315 -0.296 -0.296
 0.200  0.981 -0.168 -0.276 -0.314 -0.295 -0.295
 0.202  0.983 -0.165 -0.274 -0.313 -0.294 -0.294
 0.204  0.986 -0.161 -0.272 -0.311 -0.293 -0.293
 0.206  0.989 -0.159 -0.271 -0.310 -0.292 -0.292
 0.208  0.993 -0.155 -0.269 -0.309 -0.290 -0.290
 0.210  0.995 -0.152 -0.267 -0.307 -0.289 -0.289
 0.212  0.998 -0.148 -0.265 -0.306 -0.288 -0.288
 0.214  1.002 -0.144 -0.264 -0.305 -0.286 -0.286
 0.216  1.005 -0.141 -0.262 -0.303 -0.285 -0.285
 0.218  1.008 -0.138 -0.261 -0.302 -0.284 -0.284
 0.220  1.011 -0.134 -0.259 -0.301 -0.283 -0.283
 0.222  1.014 -0.131 -0.257 -0.299 -0.282 -0.282
 0.224  1.017 -0.127 -0.255 -0.298 -0.281 -0.281
 0.226  1.020 -0.123 -0.254 -0.297 -0.279 -0.279
 0.228  1.023 -0.120 -0.252 -0.296 -0.278 -0.278
 0.230  1.026 -0.116 -0.251 -0.294 -0.277 -0.277
 0.232  1.029 -0.113 -0.249 -0.293 -0.275 -0.275
 0.234  1.032 -0.109 -0.248 -0.292 -0.275 -0.275
 0.236  1.035 -0.106 -0.246 -0.291 -0.273 -0.273
 0.238  1.038 -0.103 -0.244 -0.290 -0.272 -0.272
 0.240  1.041 -0.099 -0.243 -0.288 -0.271 -0.271
 0.242  1.044 -0.096 -0.241 -0.287 -0.270 -0.270
 0.244  1.047 -0.092 -0.240 -0.286 -0.269 -0.269
 0.246  1.049 -0.089 -0.238 -0.284 -0.267 -0.267
 0.248  1.053 -0.086 -0.236 -0.283 -0.267 -0.267
 0.250  1.056 -0.083 -0.234 -0.282 -0.265 -0.265
 0.252  1.058 -0.080 -0.233 -0.280 -0.265 -0.265
 0.254  1.062 -0.076 -0.231 -0.279 -0.263 -0.263
 0.256  1.064 -0.073 -0.230 -0.278 -0.262 -0.262
 0.258  1.067 -0.070 -0.228 -0.276 -0.261 -0.261
 0.260  1.070 -0.067 -0.226 -0.275 -0.260 -0.260
 0.262  1.072 -0.064 -0.224 -0.274 -0.259 -0.259
 0.264  1.075 -0.061 -0.223 -0.272 -0.258 -0.258
 0.266  1.078 -0.058 -0.221 -0.271 -0.257 -0.257
 0.268  1.081 -0.055 -0.220 -0.270 -0.256 -0.256
 0.270  1.083 -0.053 -0.218 -0.268 -0.255 -0.255
 0.272  1.086 -0.050 -0.216 -0.267 -0.254 -0.254
 0.274  1.089 -0.047 -0.214 -0.266 -0.253 -0.253
 0.276  1.091 -0.044 -0.213 -0.264 -0.252 -0.252
 0.278  1.094 -0.041 -0.211 -0.263 -0.251 -0.251
 0.280  1.097 -0.039 -0.209 -0.262 -0.251 -0.251
 0.282  1.100 -0.036 -0.207 -0.260 -0.249 -0.249
 0.284  1.102 -0.033 -0.206 -0.259 -0.248 -0.248
 0.286  1.104 -0.030 -0.204 -0.258 -0.248 -0.248
 0.288  1.108 -0.028 -0.202 -0.257 -0.247 -0.247
 0.290  1.110 -0.025 -0.200 -0.255 -0.246 -0.246
 0.292  1.113 -0.023 -0.199 -0.254 -0.245 -0.245
 0.294  1.115 -0.020 -0.197 -0.253 -0.244 -0.244
 0.296  1.117 -0.018 -0.196 -0.251 -0.243 -0.243
 0.298  1.120 -0.016 -0.194 -0.250 -0.242 -0.242
 0.300  1.123 -0.013 -0.192 -0.249 -0.241 -0.241
 0.302  1.125 -0.011 -0.190 -0.247 -0.240 -0.240
 0.304  1.128 -0.008 -0.189 -0.246 -0.240 -0.240
 0.306  1.130 -0.006 -0.187 -0.244 -0.238 -0.238
 0.308  1.133 -0.003 -0.185 -0.243 -0.238 -0.238
 0.310  1.135 -0.001 -0.183 -0.242 -0.237 -0.237
 0.312  1.138  0.001 -0.182 -0.240 -0.236 -0.236
 0.314  1.140  0.004 -0.180 -0.239 -0.235 -0.235
 0.316  1.142  0.006 -0.179 -0.238 -0.234 -0.234
 0.318  1.144  0.009 -0.177 -0.237 -0.232 -0.232
 0.320  1.147  0.011 -0.175 -0.235 -0.232 -0.232
 0.322  1.149  0.014 -0.174 -0.234 -0.230 -0.230
 0.324  1.151  0.016 -0.172 -0.233 -0.230 -0.230
 0.326  1.154  0.019 -0.170 -0.231 -0.228 -0.228
 0.328  1.156  0.021 -0.168 -0.230 -0.227 -0.227
 0.330  1.158  0.024 -0.167 -0.229 -0.226 -0.226
 0.332  1.160  0.027 -0.165 -0.228 -0.225 -0.225
 0.334  1.163  0.028 -0.164 -0.226 -0.224 -0.224
 0.336  1.165  0.031 -0.162 -0.225 -0.223 -0.223
 0.338  1.167  0.033 -0.160 -0.224 -0.222 -0.222
 0.340  1.169  0.036 -0.159 -0.223 -0.221 -0.221
 0.342  1.172  0.038 -0.157 -0.222 -0.219 -0.219
 0.344  1.173  0.041 -0.155 -0.221 -0.218 -0.218
 0.346  1.176  0.044 -0.154 -0.219 -0.217 -0.217
 0.348  1.178  0.046 -0.152 -0.218 -0.216 -0.216
 0.350  1.180  0.049 -0.151 -0.217 -0.215 -0.215
 0.352  1.182  0.051 -0.149 -0.216 -0.213 -0.213
 0.354  1.184  0.054 -0.147 -0.215 -0.212 -0.212
 0.356  1.186  0.056 -0.145 -0.213 -0.211 -0.211
 0.358  1.188  0.059 -0.144 -0.212 -0.210 -0.210
 0.360  1.190  0.061 -0.143 -0.211 -0.208 -0.208
 0.362  1.192  0.064 -0.141 -0.210 -0.207 -0.207
 0.364  1.194  0.067 -0.139 -0.209 -0.206 -0.206
 0.366  1.196  0.069 -0.138 -0.207 -0.205 -0.205
 0.368  1.198  0.071 -0.136 -0.206 -0.203 -0.203
 0.370  1.200  0.073 -0.134 -0.205 -0.202 -0.202
 0.372  1.202  0.076 -0.133 -0.204 -0.201 -0.201
 0.374  1.204  0.078 -0.131 -0.203 -0.200 -0.200
 0.376  1.206  0.081 -0.130 -0.201 -0.199 -0.199
 0.378  1.208  0.084 -0.129 -0.200 -0.197 -0.197
 0.380  1.210  0.086 -0.127 -0.199 -0.196 -0.196
 0.382  1.212  0.088 -0.125 -0.198 -0.195 -0.195
 0.384  1.214  0.090 -0.124 -0.197 -0.194 -0.194
 0.386  1.216  0.093 -0.122 -0.196 -0.193 -0.193
 0.388  1.218  0.095 -0.120 -0.194 -0.192 -0.192
 0.390  1.220  0.097 -0.119 -0.193 -0.190 -0.190
 0.392  1.222  0.100 -0.117 -0.192 -0.189 -0.189
 0.394  1.224  0.102 -0.116 -0.191 -0.188 -0.188
 0.396  1.226  0.104 -0.114 -0.190 -0.187 -0.187
 0.398  1.228  0.107 -0.113 -0.189 -0.186 -0.186
 0.400  1.230  0.108 -0.112 -0.188 -0.185 -0.185
 0.402  1.232  0.111 -0.110 -0.186 -0.184 -0.184
 0.404  1.234  0.112 -0.109 -0.185 -0.183 -0.183
 0.406  1.236  0.115 -0.107 -0.184 -0.181 -0.181
 0.408  1.238  0.117 -0.106 -0.183 -0.181 -0.181
 0.410  1.240  0.119 -0.104 -0.182 -0.179 -0.179
 0.412  1.242  0.121 -0.103 -0.180 -0.178 -0.178
 0.414  1.244  0.124 -0.102 -0.179 -0.178 -0.178
 0.416  1.246  0.125 -0.100 -0.178 -0.176 -0.176
 0.418  1.249  0.127 -0.099 -0.177 -0.176 -0.176
 0.420  1.250  0.129 -0.097 -0.175 -0.174 -0.174
 0.422  1.253  0.131 -0.096 -0.174 -0.173 -0.173
 0.424  1.254  0.133 -0.094 -0.173 -0.173 -0.173
 0.426  1.257  0.135 -0.093 -0.172 -0.172 -0.172
 0.428  1.258  0.136 -0.091 -0.171 -0.170 -0.170
 0.430  1.261  0.139 -0.090 -0.169 -0.170 -0.170
 0.432  1.262  0.141 -0.089 -0.168 -0.169 -0.169
 0.434  1.265  0.142 -0.087 -0.167 -0.168 -0.168
 0.436  1.266  0.144 -0.086 -0.166 -0.167 -0.167
 0.438  1.269  0.146 -0.085 -0.164 -0.166 -0.166
 0.440  1.270  0.147 -0.083 -0.163 -0.165 -0.165
 0.442  1.273  0.149 -0.082 -0.162 -0.164 -0.164
 0.444  1.274  0.151 -0.081 -0.161 -0.163 -0.163
 0.446  1.276  0.152 -0.079 -0.160 -0.162 -0.162
 0.448  1.278  0.154 -0.078 -0.159 -0.161 -0.161
 0.450  1.280  0.156 -0.076 -0.158 -0.160 -0.160
 0.452  1.282  0.158 -0.075 -0.157 -0.160 -0.160
 0.454  1.283  0.158 -0.074 -0.156 -0.158 -0.158
 0.456  1.285  0.160 -0.073 -0.154 -0.157 -0.157
 0.458  1.287  0.162 -0.072 -0.153 -0.157 -0.157
 0.460  1.288  0.164 -0.071 -0.152 -0.156 -0.156
 0.462  1.290  0.164 -0.069 -0.151 -0.154 -0.154
 0.464  1.291  0.166 -0.068 -0.150 -0.154 -0.154
 0.466  1.293  0.168 -0.068 -0.149 -0.153 -0.153
 0.468  1.295  0.169 -0.067 -0.148 -0.151 -0.151
 0.470  1.296  0.170 -0.065 -0.147 -0.151 -0.151
 0.472  1.297  0.171 -0.064 -0.146 -0.150 -0.150
 0.474  1.299  0.173 -0.063 -0.145 -0.149 -0.149
 0.476  1.300  0.174 -0.062 -0.144 -0.148 -0.148
 0.478  1.301  0.175 -0.061 -0.143 -0.147 -0.147
 0.480  1.303  0.176 -0.060 -0.142 -0.146 -0.146
 0.482  1.304  0.178 -0.060 -0.141 -0.145 -0.145
 0.484  1.305  0.179 -0.058 -0.140 -0.144 -0.144
 0.486  1.306  0.180 -0.057 -0.139 -0.143 -0.143
 0.488  1.308  0.181 -0.057 -0.138 -0.142 -0.142
 0.490  1.308  0.182 -0.055 -0.137 -0.141 -0.141
 0.492  1.309  0.183 -0.055 -0.136 -0.140 -0.140
 0.494  1.311  0.184 -0.054 -0.136 -0.139 -0.139
 0.496  1.312  0.185 -0.053 -0.135 -0.138 -0.138
 0.498  1.312  0.186 -0.053 -0.134 -0.137 -0.137
 0.500  1.313  0.186 -0.051 -0.133 -0.136 -0.136
 0.502  1.314  0.187 -0.051 -0.132 -0.135 -0.135
 0.504  1.315  0.188 -0.050 -0.131 -0.134 -0.134
 0.506  1.316  0.189 -0.050 -0.131 -0.133 -0.133
 0.508  1.317  0.190 -0.048 -0.130 -0.132 -0.132
 0.510  1.317  0.191 -0.048 -0.129 -0.131 -0.131
 0.512  1.318  0.192 -0.047 -0.128 -0.130 -0.130
 0.514  1.319  0.192 -0.046 -0.127 -0.129 -0.129
 0.516  1.320  0.193 -0.045 -0.127 -0.128 -0.128
 0.518  1.321  0.194 -0.045 -0.126 -0.127 -0.127
 0.520  1.321  0.194 -0.044 -0.125 -0.127 -0.127
 0.522  1.322  0.195 -0.043 -0.125 -0.126 -0.126
 0.524  1.322  0.196 -0.043 -0.124 -0.125 -0.125
 0.526  1.323  0.197 -0.042 -0.123 -0.124 -0.124
 0.528  1.324  0.198 -0.041 -0.122 -0.123 -0.123
 0.530  1.325  0.198 -0.040 -0.121 -0.122 -0.122
 0.532  1.325  0.198 -0.040 -0.121 -0.122 -0.122
 0.534  1.325  0.199 -0.038 -0.120 -0.121 -0.121
 0.536  1.326  0.200 -0.038 -0.119 -0.120 -0.120
 0.538  1.327  0.201 -0.037 -0.118 -0.119 -0.119
 0.540  1.328  0.201 -0.036 -0.117 -0.118 -0.118
 0.542  1.328  0.202 -0.036 -0.117 -0.118 -0.118
 0.544  1.329  0.203 -0.035 -0.116 -0.117 -0.117
 0.546  1.329  0.203 -0.034 -0.115 -0.116 -0.116
 0.548  1.330  0.203 -0.033 -0.114 -0.116 -0.116
 0.550  1.330  0.204 -0.033 -0.113 -0.115 -0.115
 0.552  1.331  0.205 -0.031 -0.113 -0.114 -0.114
 0.554  1.332  0.205 -0.031 -0.112 -0.114 -0.114
 0.556  1.332  0.206 -0.030 -0.111 -0.113 -0.113
 0.558  1.333  0.207 -0.029 -0.110 -0.112 -0.112
 0.560  1.333  0.207 -0.029 -0.110 -0.112 -0.112
 0.562  1.334  0.208 -0.028 -0.109 -0.111 -0.111
 0.564  1.334  0.209 -0.027 -0.108 -0.111 -0.111
 0.566  1.334  0.209 -0.026 -0.107 -0.110 -0.110
 0.568  1.335  0.209 -0.026 -0.106 -0.109 -0.109
 0.570  1.335  0.210 -0.024 -0.106 -0.109 -0.109
 0.572  1.336  0.210 -0.024 -0.105 -0.108 -0.108
 0.574  1.336  0.211 -0.023 -0.104 -0.108 -0.108
 0.576  1.337  0.212 -0.022 -0.103 -0.107 -0.107
 0.578  1.337  0.212 -0.022 -0.103 -0.107 -0.107
 0.580  1.338  0.213 -0.020 -0.102 -0.106 -0.106
 0.582  1.338  0.213 -0.020 -0.101 -0.106 -0.106
 0.584  1.338  0.214 -0.019 -0.100 -0.106 -0.106
 0.586  1.338  0.214 -0.019 -0.100 -0.105 -0.105
 0.588  1.339  0.215 -0.018 -0.099 -0.104 -0.104
 0.590  1.339  0.215 -0.017 -0.098 -0.104 -0.104
 0.592  1.339  0.215 -0.016 -0.098 -0.103 -0.103
 0.594  1.340  0.215 -0.016 -0.097 -0.103 -0.103
 0.596  1.340  0.216 -0.015 -0.096 -0.103 -0.103
 0.598  1.340  0.216 -0.015 -0.096 -0.102 -0.102
 0.600  1.341  0.216 -0.015 -0.095 -0.101 -0.101
 0.602  1.341  0.217 -0.014 -0.095 -0.101 -0.101
 0.604  1.341  0.217 -0.013 -0.094 -0.100 -0.100
 0.606  1.342  0.217 -0.013 -0.094 -0.100 -0.100
 0.608  1.342  0.217 -0.012 -0.094 -0.099 -0.099
 0.610  1.342  0.218 -0.012 -0.093 -0.099 -0.099
 0.612  1.342  0.218 -0.012 -0.093 -0.098 -0.098
 0.614  1.342  0.218 -0.011 -0.092 -0.098 -0.098
 0.616  1.342  0.218 -0.011 -0.092 -0.097 -0.097
 0.618  1.342  0.219 -0.010 -0.091 -0.097 -0.097
 0.620  1.342  0.219 -0.010 -0.091 -0.096 -0.096
 0.622  1.342  0.219 -0.010 -0.091 -0.095 -0.095
 0.624  1.342  0.219 -0.010 -0.090 -0.095 -0.095
 0.626  1.343  0.219 -0.010 -0.090 -0.095 -0.095
 0.628  1.343  0.219 -0.009 -0.090 -0.094 -0.094
 0.630  1.343  0.219 -0.009 -0.089 -0.093 -0.093
 0.632  1.343  0.219 -0.009 -0.089 -0.093 -0.093
 0.634  1.343  0.219 -0.009 -0.089 -0.092 -0.092
 0.636  1.343  0.219 -0.009 -0.089 -0.092 -0.092
 0.638  1.343  0.219 -0.009 -0.089 -0.091 -0.091
 0.640  1.343  0.219 -0.009 -0.089 -0.091 -0.091
 0.642  1.343  0.218 -0.009 -0.088 -0.090 -0.090
 0.644  1.343  0.218 -0.009 -0.088 -0.089 -0.089
 0.646  1.343  0.218 -0.009 -0.088 -0.089 -0.089
 0.648  1.343  0.218 -0.009 -0.088 -0.088 -0.088
 0.650  1.343  0.218 -0.009 -0.088 -0.088 -0.088
 0.652  1.343  0.218 -0.009 -0.088 -0.087 -0.087
 0.654  1.343  0.217 -0.009 -0.087 -0.087 -0.087
 0.656  1.342  0.217 -0.009 -0.087 -0.086 -0.086
 0.658  1.342  0.217 -0.009 -0.087 -0.086 -0.086
 0.660  1.342  0.217 -0.009 -0.087 -0.085 -0.085
 0.662  1.342  0.216 -0.009 -0.087 -0.084 -0.084
 0.664  1.342  0.216 -0.009 -0.086 -0.084 -0.084
 0.666  1.342  0.216 -0.008 -0.086 -0.084 -0.084
 0.668  1.342  0.216 -0.008 -0.086 -0.083 -0.083
 0.670  1.342  0.215 -0.007 -0.085 -0.082 -0.082
 0.672  1.342  0.215 -0.007 -0.085 -0.082 -0.082
 0.674  1.342  0.215 -0.007 -0.084 -0.081 -0.081
 0.676  1.341  0.215 -0.006 -0.084 -0.081 -0.081
 0.678  1.341  0.215 -0.006 -0.083 -0.081 -0.081
 0.680  1.341  0.215 -0.006 -0.083 -0.080 -0.080
 0.682  1.340  0.215 -0.005 -0.082 -0.080 -0.080
 0.684  1.340  0.215 -0.005 -0.082 -0.079 -0.079
 0.686  1.340  0.215 -0.004 -0.081 -0.079 -0.079
 0.688  1.339  0.214 -0.003 -0.080 -0.079 -0.079
 0.690  1.339  0.214 -0.003 -0.079 -0.078 -0.078
 0.692  1.339  0.214 -0.002 -0.079 -0.078 -0.078
 0.694  1.338  0.214 -0.002 -0.078 -0.077 -0.077
 0.696  1.338  0.214 -0.000 -0.077 -0.077 -0.077
 0.698  1.338  0.214  0.000 -0.076 -0.076 -0.076
 0.700  1.338  0.214  0.001 -0.075 -0.076 -0.076
 0.702  1.338  0.214  0.002 -0.074 -0.076 -0.076
 0.704  1.337  0.213  0.002 -0.073 -0.075 -0.075
 0.706  1.337  0.213  0.004 -0.072 -0.075 -0.075
 0.708  1.336  0.213  0.004 -0.071 -0.074 -0.074
 0.710  1.336  0.213  0.005 -0.070 -0.074 -0.074
 0.712  1.335  0.213  0.007 -0.069 -0.074 -0.074
 0.714  1.334  0.212  0.007 -0.068 -0.073 -0.073
 0.716  1.334  0.212  0.008 -0.067 -0.073 -0.073
 0.718  1.334  0.212  0.009 -0.066 -0.073 -0.073
 0.720  1.334  0.212  0.011 -0.065 -0.072 -0.072
 0.722  1.333  0.212  0.012 -0.063 -0.072 -0.072
 0.724  1.333  0.212  0.013 -0.062 -0.071 -0.071
 0.726  1.333  0.212  0.014 -0.061 -0.071 -0.071
 0.728  1.333  0.212  0.015 -0.060 -0.070 -0.070
 0.730  1.333  0.212  0.017 -0.058 -0.069 -0.069
 0.732  1.333  0.213  0.018 -0.057 -0.068 -0.068
 0.734  1.333  0.213  0.019 -0.055 -0.068 -0.068
 0.736  1.334  0.214  0.021 -0.054 -0.067 -0.067
 0.738  1.334  0.215  0.022 -0.052 -0.065 -0.065
 0.740  1.335  0.215  0.024 -0.050 -0.064 -0.064
 0.742  1.336  0.216  0.026 -0.048 -0.063 -0.063
 0.744  1.338  0.218  0.027 -0.046 -0.062 -0.062
 0.746  1.338  0.219  0.029 -0.044 -0.060 -0.060
 0.748  1.340  0.220  0.031 -0.042 -0.059 -0.059
 0.750  1.341  0.222  0.032 -0.040 -0.057 -0.057
 0.752  1.342  0.223  0.034 -0.038 -0.055 -0.055
 0.754  1.344  0.225  0.036 -0.036 -0.054 -0.054
 0.756  1.346  0.227  0.038 -0.034 -0.052 -0.052
 0.758  1.348  0.229  0.039 -0.032 -0.050 -0.050
 0.760  1.350  0.231  0.041 -0.030 -0.048 -0.048
 0.762  1.352  0.233  0.043 -0.028 -0.046 -0.046
 0.764  1.355  0.236  0.045 -0.026 -0.044 -0.044
 0.766  1.357  0.238  0.046 -0.023 -0.042 -0.042
 0.768  1.359  0.241  0.049 -0.021 -0.040 -0.040
 0.770  1.363  0.243  0.050 -0.018 -0.037 -0.037
 0.772  1.366  0.247  0.053 -0.015 -0.035 -0.035
 0.774  1.369  0.249  0.055 -0.012 -0.032 -0.032
 0.776  1.372  0.253  0.057 -0.009 -0.029 -0.029
 0.778  1.376  0.256  0.060 -0.006 -0.026 -0.026
 0.780  1.380  0.260  0.062 -0.003 -0.023 -0.023
 0.782  1.384  0.264  0.064 -0.000 -0.020 -0.020
 0.784  1.387  0.267  0.067  0.003 -0.017 -0.017
 0.786  1.391  0.271  0.069  0.005 -0.014 -0.014
 0.788  1.395  0.275  0.071  0.008 -0.011 -0.011
 0.790  1.399  0.279  0.073  0.011 -0.009 -0.009
 0.792  1.403  0.283  0.076  0.014 -0.006 -0.006
 0.794  1.406  0.287  0.077  0.017 -0.003 -0.003
 0.796  1.410  0.290  0.079  0.020 -0.000 -0.000
 0.798  1.414  0.294  0.081  0.022  0.002  0.002
 0.800  1.417  0.298  0.083  0.025  0.005  0.005
 0.802  1.420  0.301  0.084  0.027  0.007  0.007
 0.804  1.423  0.305  0.085  0.029  0.009  0.009
 0.806  1.427  0.307  0.085  0.031  0.010  0.010
 0.808  1.429  0.310  0.087  0.032  0.012  0.012
