# IsPeriodic    : True
# Period        : 0.620312 days
# Normalization : <g_mag>=0
# 
# Phase u_mag  g_mag  r_mag  i_mag  z_mag  y_mag
 0.000  0.512 -0.635 -0.583 -0.492 -0.442 -0.442
 0.002  0.513 -0.636 -0.583 -0.492 -0.442 -0.442
 0.004  0.514 -0.635 -0.582 -0.492 -0.442 -0.442
 0.006  0.515 -0.634 -0.581 -0.492 -0.441 -0.441
 0.008  0.517 -0.633 -0.580 -0.491 -0.440 -0.440
 0.010  0.519 -0.631 -0.579 -0.491 -0.438 -0.438
 0.012  0.521 -0.629 -0.577 -0.490 -0.437 -0.437
 0.014  0.524 -0.627 -0.575 -0.489 -0.435 -0.435
 0.016  0.527 -0.625 -0.573 -0.488 -0.433 -0.433
 0.018  0.530 -0.622 -0.570 -0.487 -0.432 -0.432
 0.020  0.533 -0.619 -0.568 -0.485 -0.430 -0.430
 0.022  0.537 -0.616 -0.565 -0.483 -0.427 -0.427
 0.024  0.541 -0.613 -0.563 -0.482 -0.425 -0.425
 0.026  0.544 -0.610 -0.560 -0.480 -0.423 -0.423
 0.028  0.548 -0.607 -0.558 -0.478 -0.421 -0.421
 0.030  0.552 -0.603 -0.556 -0.476 -0.419 -0.419
 0.032  0.554 -0.600 -0.553 -0.473 -0.417 -0.417
 0.034  0.558 -0.596 -0.550 -0.471 -0.415 -0.415
 0.036  0.563 -0.593 -0.548 -0.468 -0.412 -0.412
 0.038  0.566 -0.589 -0.545 -0.466 -0.410 -0.410
 0.040  0.570 -0.585 -0.542 -0.463 -0.408 -0.408
 0.042  0.574 -0.582 -0.540 -0.460 -0.406 -0.406
 0.044  0.579 -0.578 -0.537 -0.457 -0.404 -0.404
 0.046  0.582 -0.573 -0.534 -0.454 -0.403 -0.403
 0.048  0.587 -0.569 -0.530 -0.451 -0.401 -0.401
 0.050  0.591 -0.564 -0.528 -0.448 -0.399 -0.399
 0.052  0.596 -0.559 -0.524 -0.445 -0.397 -0.397
 0.054  0.601 -0.554 -0.521 -0.442 -0.395 -0.395
 0.056  0.605 -0.549 -0.518 -0.440 -0.393 -0.393
 0.058  0.611 -0.543 -0.514 -0.437 -0.391 -0.391
 0.060  0.616 -0.538 -0.511 -0.434 -0.389 -0.389
 0.062  0.621 -0.532 -0.507 -0.431 -0.387 -0.387
 0.064  0.627 -0.526 -0.503 -0.428 -0.385 -0.385
 0.066  0.631 -0.520 -0.500 -0.426 -0.383 -0.383
 0.068  0.637 -0.514 -0.496 -0.423 -0.381 -0.381
 0.070  0.643 -0.508 -0.492 -0.421 -0.379 -0.379
 0.072  0.649 -0.502 -0.488 -0.418 -0.377 -0.377
 0.074  0.654 -0.496 -0.484 -0.416 -0.375 -0.375
 0.076  0.660 -0.489 -0.480 -0.413 -0.374 -0.374
 0.078  0.665 -0.483 -0.477 -0.411 -0.372 -0.372
 0.080  0.672 -0.477 -0.473 -0.408 -0.370 -0.370
 0.082  0.677 -0.471 -0.468 -0.406 -0.369 -0.369
 0.084  0.683 -0.465 -0.465 -0.404 -0.367 -0.367
 0.086  0.689 -0.459 -0.461 -0.402 -0.365 -0.365
 0.088  0.694 -0.453 -0.457 -0.400 -0.363 -0.363
 0.090  0.700 -0.446 -0.453 -0.398 -0.361 -0.361
 0.092  0.705 -0.440 -0.450 -0.396 -0.360 -0.360
 0.094  0.711 -0.434 -0.445 -0.394 -0.358 -0.358
 0.096  0.716 -0.429 -0.442 -0.392 -0.356 -0.356
 0.098  0.721 -0.423 -0.438 -0.390 -0.354 -0.354
 0.100  0.727 -0.417 -0.435 -0.388 -0.353 -0.353
 0.102  0.731 -0.411 -0.431 -0.387 -0.351 -0.351
 0.104  0.737 -0.406 -0.428 -0.385 -0.349 -0.349
 0.106  0.741 -0.400 -0.425 -0.383 -0.347 -0.347
 0.108  0.746 -0.395 -0.421 -0.382 -0.346 -0.346
 0.110  0.751 -0.389 -0.418 -0.380 -0.344 -0.344
 0.112  0.756 -0.384 -0.414 -0.378 -0.342 -0.342
 0.114  0.761 -0.379 -0.411 -0.377 -0.341 -0.341
 0.116  0.765 -0.373 -0.408 -0.376 -0.339 -0.339
 0.118  0.769 -0.369 -0.404 -0.374 -0.338 -0.338
 0.120  0.774 -0.364 -0.402 -0.372 -0.336 -0.336
 0.122  0.778 -0.359 -0.398 -0.371 -0.334 -0.334
 0.124  0.782 -0.354 -0.395 -0.370 -0.333 -0.333
 0.126  0.787 -0.349 -0.392 -0.368 -0.331 -0.331
 0.128  0.790 -0.344 -0.389 -0.367 -0.330 -0.330
 0.130  0.795 -0.340 -0.386 -0.365 -0.328 -0.328
 0.132  0.799 -0.335 -0.383 -0.363 -0.327 -0.327
 0.134  0.802 -0.331 -0.381 -0.362 -0.325 -0.325
 0.136  0.806 -0.326 -0.378 -0.361 -0.324 -0.324
 0.138  0.810 -0.322 -0.375 -0.359 -0.322 -0.322
 0.140  0.813 -0.317 -0.372 -0.357 -0.321 -0.321
 0.142  0.817 -0.313 -0.369 -0.356 -0.319 -0.319
 0.144  0.820 -0.309 -0.367 -0.354 -0.318 -0.318
 0.146  0.824 -0.304 -0.365 -0.352 -0.317 -0.317
 0.148  0.827 -0.300 -0.362 -0.351 -0.315 -0.315
 0.150  0.830 -0.296 -0.360 -0.349 -0.314 -0.314
 0.152  0.834 -0.292 -0.357 -0.347 -0.312 -0.312
 0.154  0.837 -0.288 -0.354 -0.346 -0.311 -0.311
 0.156  0.840 -0.284 -0.352 -0.344 -0.309 -0.309
 0.158  0.844 -0.279 -0.349 -0.342 -0.308 -0.308
 0.160  0.847 -0.275 -0.347 -0.341 -0.307 -0.307
 0.162  0.850 -0.271 -0.345 -0.339 -0.305 -0.305
 0.164  0.853 -0.267 -0.342 -0.337 -0.304 -0.304
 0.166  0.857 -0.264 -0.340 -0.336 -0.303 -0.303
 0.168  0.860 -0.260 -0.337 -0.334 -0.301 -0.301
 0.170  0.863 -0.256 -0.335 -0.332 -0.300 -0.300
 0.172  0.866 -0.252 -0.333 -0.330 -0.298 -0.298
 0.174  0.870 -0.248 -0.330 -0.329 -0.297 -0.297
 0.176  0.874 -0.244 -0.328 -0.326 -0.296 -0.296
 0.178  0.876 -0.240 -0.326 -0.325 -0.294 -0.294
 0.180  0.880 -0.236 -0.323 -0.323 -0.293 -0.293
 0.182  0.884 -0.232 -0.321 -0.321 -0.292 -0.292
 0.184  0.887 -0.228 -0.319 -0.319 -0.290 -0.290
 0.186  0.890 -0.224 -0.316 -0.317 -0.289 -0.289
 0.188  0.894 -0.220 -0.314 -0.315 -0.287 -0.287
 0.190  0.897 -0.216 -0.312 -0.314 -0.286 -0.286
 0.192  0.900 -0.212 -0.310 -0.312 -0.285 -0.285
 0.194  0.904 -0.208 -0.307 -0.310 -0.283 -0.283
 0.196  0.907 -0.204 -0.305 -0.308 -0.282 -0.282
 0.198  0.911 -0.200 -0.303 -0.306 -0.281 -0.281
 0.200  0.914 -0.196 -0.300 -0.305 -0.279 -0.279
 0.202  0.917 -0.192 -0.298 -0.303 -0.278 -0.278
 0.204  0.921 -0.188 -0.296 -0.301 -0.276 -0.276
 0.206  0.924 -0.184 -0.294 -0.300 -0.275 -0.275
 0.208  0.928 -0.180 -0.292 -0.298 -0.274 -0.274
 0.210  0.931 -0.176 -0.289 -0.296 -0.272 -0.272
 0.212  0.935 -0.172 -0.287 -0.295 -0.271 -0.271
 0.214  0.938 -0.168 -0.285 -0.293 -0.270 -0.270
 0.216  0.942 -0.164 -0.283 -0.292 -0.268 -0.268
 0.218  0.946 -0.161 -0.281 -0.290 -0.267 -0.267
 0.220  0.948 -0.157 -0.279 -0.289 -0.265 -0.265
 0.222  0.952 -0.154 -0.277 -0.287 -0.264 -0.264
 0.224  0.956 -0.150 -0.275 -0.286 -0.263 -0.263
 0.226  0.960 -0.146 -0.273 -0.285 -0.261 -0.261
 0.228  0.962 -0.142 -0.270 -0.283 -0.260 -0.260
 0.230  0.966 -0.139 -0.268 -0.282 -0.259 -0.259
 0.232  0.970 -0.135 -0.266 -0.280 -0.258 -0.258
 0.234  0.973 -0.131 -0.264 -0.279 -0.256 -0.256
 0.236  0.976 -0.128 -0.262 -0.277 -0.255 -0.255
 0.238  0.980 -0.124 -0.260 -0.276 -0.254 -0.254
 0.240  0.984 -0.121 -0.258 -0.275 -0.252 -0.252
 0.242  0.986 -0.117 -0.256 -0.274 -0.251 -0.251
 0.244  0.990 -0.114 -0.254 -0.273 -0.250 -0.250
 0.246  0.993 -0.110 -0.252 -0.272 -0.248 -0.248
 0.248  0.997 -0.107 -0.250 -0.270 -0.247 -0.247
 0.250  1.000 -0.103 -0.247 -0.270 -0.246 -0.246
 0.252  1.003 -0.100 -0.245 -0.269 -0.245 -0.245
 0.254  1.007 -0.097 -0.243 -0.267 -0.243 -0.243
 0.256  1.010 -0.093 -0.241 -0.266 -0.242 -0.242
 0.258  1.013 -0.090 -0.239 -0.265 -0.241 -0.241
 0.260  1.016 -0.087 -0.237 -0.264 -0.240 -0.240
 0.262  1.019 -0.084 -0.235 -0.263 -0.238 -0.238
 0.264  1.022 -0.081 -0.233 -0.262 -0.237 -0.237
 0.266  1.025 -0.078 -0.231 -0.261 -0.236 -0.236
 0.268  1.029 -0.075 -0.229 -0.260 -0.235 -0.235
 0.270  1.032 -0.072 -0.227 -0.259 -0.233 -0.233
 0.272  1.034 -0.069 -0.225 -0.257 -0.232 -0.232
 0.274  1.038 -0.066 -0.223 -0.256 -0.231 -0.231
 0.276  1.041 -0.063 -0.221 -0.255 -0.230 -0.230
 0.278  1.044 -0.060 -0.219 -0.254 -0.229 -0.229
 0.280  1.047 -0.057 -0.217 -0.252 -0.228 -0.228
 0.282  1.050 -0.054 -0.215 -0.251 -0.226 -0.226
 0.284  1.053 -0.051 -0.213 -0.250 -0.225 -0.225
 0.286  1.056 -0.050 -0.211 -0.248 -0.224 -0.224
 0.288  1.059 -0.047 -0.209 -0.247 -0.223 -0.223
 0.290  1.062 -0.044 -0.207 -0.245 -0.222 -0.222
 0.292  1.065 -0.042 -0.205 -0.244 -0.221 -0.221
 0.294  1.068 -0.039 -0.203 -0.242 -0.220 -0.220
 0.296  1.071 -0.036 -0.201 -0.241 -0.219 -0.219
 0.298  1.073 -0.033 -0.199 -0.239 -0.218 -0.218
 0.300  1.077 -0.031 -0.197 -0.237 -0.217 -0.217
 0.302  1.080 -0.028 -0.195 -0.236 -0.216 -0.216
 0.304  1.083 -0.025 -0.193 -0.234 -0.214 -0.214
 0.306  1.085 -0.023 -0.191 -0.232 -0.213 -0.213
 0.308  1.088 -0.020 -0.189 -0.231 -0.212 -0.212
 0.310  1.091 -0.017 -0.188 -0.229 -0.211 -0.211
 0.312  1.094 -0.014 -0.185 -0.227 -0.210 -0.210
 0.314  1.096 -0.011 -0.183 -0.225 -0.209 -0.209
 0.316  1.099 -0.009 -0.181 -0.223 -0.208 -0.208
 0.318  1.101 -0.006 -0.179 -0.221 -0.207 -0.207
 0.320  1.104 -0.003 -0.178 -0.219 -0.206 -0.206
 0.322  1.107  0.000 -0.176 -0.218 -0.204 -0.204
 0.324  1.109  0.003 -0.174 -0.215 -0.203 -0.203
 0.326  1.112  0.006 -0.171 -0.214 -0.202 -0.202
 0.328  1.115  0.009 -0.169 -0.211 -0.201 -0.201
 0.330  1.117  0.012 -0.168 -0.210 -0.200 -0.200
 0.332  1.120  0.015 -0.166 -0.208 -0.199 -0.199
 0.334  1.122  0.018 -0.164 -0.205 -0.198 -0.198
 0.336  1.125  0.021 -0.162 -0.204 -0.197 -0.197
 0.338  1.127  0.024 -0.160 -0.201 -0.195 -0.195
 0.340  1.130  0.027 -0.158 -0.200 -0.194 -0.194
 0.342  1.133  0.030 -0.156 -0.198 -0.193 -0.193
 0.344  1.134  0.033 -0.154 -0.196 -0.192 -0.192
 0.346  1.137  0.036 -0.153 -0.194 -0.190 -0.190
 0.348  1.140  0.039 -0.151 -0.192 -0.189 -0.189
 0.350  1.142  0.042 -0.148 -0.190 -0.188 -0.188
 0.352  1.145  0.045 -0.147 -0.188 -0.187 -0.187
 0.354  1.146  0.048 -0.145 -0.186 -0.185 -0.185
 0.356  1.149  0.051 -0.143 -0.185 -0.184 -0.184
 0.358  1.151  0.054 -0.141 -0.183 -0.183 -0.183
 0.360  1.154  0.057 -0.139 -0.181 -0.181 -0.181
 0.362  1.156  0.060 -0.137 -0.180 -0.180 -0.180
 0.364  1.158  0.063 -0.135 -0.178 -0.179 -0.179
 0.366  1.160  0.066 -0.134 -0.176 -0.177 -0.177
 0.368  1.163  0.069 -0.132 -0.175 -0.176 -0.176
 0.370  1.165  0.072 -0.130 -0.174 -0.174 -0.174
 0.372  1.167  0.075 -0.128 -0.172 -0.173 -0.173
 0.374  1.170  0.078 -0.126 -0.170 -0.172 -0.172
 0.376  1.171  0.081 -0.124 -0.169 -0.170 -0.170
 0.378  1.174  0.084 -0.123 -0.168 -0.169 -0.169
 0.380  1.176  0.087 -0.121 -0.166 -0.168 -0.168
 0.382  1.179  0.090 -0.119 -0.164 -0.166 -0.166
 0.384  1.181  0.093 -0.117 -0.163 -0.165 -0.165
 0.386  1.183  0.095 -0.115 -0.162 -0.163 -0.163
 0.388  1.185  0.098 -0.113 -0.160 -0.162 -0.162
 0.390  1.188  0.101 -0.112 -0.159 -0.161 -0.161
 0.392  1.190  0.104 -0.109 -0.158 -0.159 -0.159
 0.394  1.193  0.107 -0.107 -0.156 -0.158 -0.158
 0.396  1.194  0.109 -0.106 -0.155 -0.157 -0.157
 0.398  1.197  0.112 -0.104 -0.154 -0.155 -0.155
 0.400  1.199  0.115 -0.102 -0.153 -0.154 -0.154
 0.402  1.202  0.117 -0.100 -0.152 -0.153 -0.153
 0.404  1.204  0.120 -0.098 -0.151 -0.151 -0.151
 0.406  1.207  0.122 -0.097 -0.150 -0.150 -0.150
 0.408  1.208  0.125 -0.095 -0.148 -0.149 -0.149
 0.410  1.211  0.127 -0.093 -0.147 -0.147 -0.147
 0.412  1.213  0.130 -0.091 -0.146 -0.146 -0.146
 0.414  1.216  0.132 -0.090 -0.145 -0.145 -0.145
 0.416  1.218  0.135 -0.088 -0.144 -0.144 -0.144
 0.418  1.220  0.137 -0.086 -0.143 -0.143 -0.143
 0.420  1.222  0.139 -0.084 -0.141 -0.142 -0.142
 0.422  1.225  0.142 -0.082 -0.140 -0.140 -0.140
 0.424  1.227  0.144 -0.081 -0.139 -0.139 -0.139
 0.426  1.230  0.146 -0.079 -0.138 -0.138 -0.138
 0.428  1.231  0.148 -0.077 -0.136 -0.137 -0.137
 0.430  1.234  0.151 -0.075 -0.135 -0.135 -0.135
 0.432  1.236  0.153 -0.074 -0.134 -0.134 -0.134
 0.434  1.239  0.155 -0.072 -0.133 -0.133 -0.133
 0.436  1.241  0.157 -0.070 -0.131 -0.132 -0.132
 0.438  1.244  0.159 -0.068 -0.130 -0.130 -0.130
 0.440  1.245  0.161 -0.067 -0.129 -0.129 -0.129
 0.442  1.248  0.163 -0.065 -0.127 -0.128 -0.128
 0.444  1.250  0.164 -0.063 -0.126 -0.127 -0.127
 0.446  1.252  0.166 -0.061 -0.125 -0.126 -0.126
 0.448  1.255  0.168 -0.060 -0.123 -0.125 -0.125
 0.450  1.256  0.170 -0.059 -0.122 -0.123 -0.123
 0.452  1.258  0.172 -0.056 -0.120 -0.122 -0.122
 0.454  1.260  0.174 -0.055 -0.119 -0.121 -0.121
 0.456  1.262  0.176 -0.054 -0.118 -0.120 -0.120
 0.458  1.264  0.178 -0.052 -0.117 -0.119 -0.119
 0.460  1.266  0.180 -0.051 -0.115 -0.118 -0.118
 0.462  1.268  0.182 -0.049 -0.114 -0.117 -0.117
 0.464  1.269  0.183 -0.047 -0.112 -0.116 -0.116
 0.466  1.271  0.185 -0.046 -0.111 -0.115 -0.115
 0.468  1.273  0.187 -0.045 -0.109 -0.114 -0.114
 0.470  1.275  0.188 -0.043 -0.108 -0.112 -0.112
 0.472  1.276  0.190 -0.042 -0.107 -0.111 -0.111
 0.474  1.278  0.192 -0.040 -0.105 -0.110 -0.110
 0.476  1.280  0.193 -0.039 -0.104 -0.109 -0.109
 0.478  1.281  0.195 -0.038 -0.103 -0.108 -0.108
 0.480  1.282  0.197 -0.037 -0.102 -0.108 -0.108
 0.482  1.284  0.198 -0.036 -0.100 -0.107 -0.107
 0.484  1.285  0.200 -0.034 -0.099 -0.106 -0.106
 0.486  1.286  0.201 -0.033 -0.098 -0.105 -0.105
 0.488  1.288  0.203 -0.031 -0.096 -0.104 -0.104
 0.490  1.289  0.204 -0.031 -0.095 -0.103 -0.103
 0.492  1.290  0.206 -0.029 -0.094 -0.102 -0.102
 0.494  1.292  0.207 -0.028 -0.093 -0.101 -0.101
 0.496  1.293  0.208 -0.027 -0.092 -0.100 -0.100
 0.498  1.293  0.210 -0.026 -0.090 -0.099 -0.099
 0.500  1.294  0.211 -0.024 -0.089 -0.099 -0.099
 0.502  1.295  0.212 -0.024 -0.088 -0.098 -0.098
 0.504  1.296  0.214 -0.022 -0.087 -0.097 -0.097
 0.506  1.297  0.215 -0.022 -0.086 -0.096 -0.096
 0.508  1.298  0.216 -0.020 -0.085 -0.095 -0.095
 0.510  1.299  0.217 -0.020 -0.084 -0.095 -0.095
 0.512  1.300  0.218 -0.018 -0.083 -0.094 -0.094
 0.514  1.301  0.220 -0.017 -0.082 -0.093 -0.093
 0.516  1.302  0.221 -0.017 -0.082 -0.092 -0.092
 0.518  1.303  0.222 -0.015 -0.080 -0.092 -0.092
 0.520  1.304  0.223 -0.015 -0.080 -0.091 -0.091
 0.522  1.305  0.224 -0.013 -0.079 -0.090 -0.090
 0.524  1.305  0.225 -0.013 -0.078 -0.089 -0.089
 0.526  1.305  0.226 -0.012 -0.077 -0.089 -0.089
 0.528  1.306  0.227 -0.011 -0.077 -0.088 -0.088
 0.530  1.307  0.227 -0.010 -0.076 -0.087 -0.087
 0.532  1.308  0.228 -0.009 -0.075 -0.086 -0.086
 0.534  1.308  0.229 -0.008 -0.074 -0.086 -0.086
 0.536  1.309  0.230 -0.007 -0.074 -0.085 -0.085
 0.538  1.310  0.231 -0.006 -0.073 -0.085 -0.085
 0.540  1.311  0.231 -0.006 -0.073 -0.084 -0.084
 0.542  1.311  0.232 -0.005 -0.072 -0.083 -0.083
 0.544  1.312  0.233 -0.004 -0.072 -0.082 -0.082
 0.546  1.313  0.233 -0.003 -0.071 -0.082 -0.082
 0.548  1.314  0.234 -0.002 -0.070 -0.081 -0.081
 0.550  1.314  0.234 -0.001 -0.070 -0.080 -0.080
 0.552  1.315  0.235 -0.001 -0.069 -0.080 -0.080
 0.554  1.316  0.235 -0.000 -0.069 -0.079 -0.079
 0.556  1.316  0.236  0.001 -0.068 -0.078 -0.078
 0.558  1.317  0.236  0.001 -0.068 -0.077 -0.077
 0.560  1.317  0.237  0.002 -0.067 -0.077 -0.077
 0.562  1.318  0.237  0.003 -0.067 -0.076 -0.076
 0.564  1.318  0.237  0.003 -0.066 -0.075 -0.075
 0.566  1.318  0.238  0.004 -0.065 -0.074 -0.074
 0.568  1.319  0.238  0.005 -0.065 -0.074 -0.074
 0.570  1.319  0.238  0.006 -0.064 -0.073 -0.073
 0.572  1.320  0.238  0.006 -0.064 -0.072 -0.072
 0.574  1.320  0.238  0.007 -0.063 -0.071 -0.071
 0.576  1.321  0.239  0.008 -0.063 -0.071 -0.071
 0.578  1.321  0.239  0.008 -0.062 -0.070 -0.070
 0.580  1.322  0.239  0.009 -0.062 -0.069 -0.069
 0.582  1.322  0.239  0.010 -0.061 -0.068 -0.068
 0.584  1.323  0.239  0.010 -0.060 -0.068 -0.068
 0.586  1.323  0.239  0.010 -0.059 -0.067 -0.067
 0.588  1.324  0.239  0.011 -0.059 -0.066 -0.066
 0.590  1.324  0.240  0.012 -0.058 -0.066 -0.066
 0.592  1.324  0.240  0.013 -0.058 -0.065 -0.065
 0.594  1.325  0.240  0.013 -0.057 -0.064 -0.064
 0.596  1.325  0.240  0.013 -0.057 -0.063 -0.063
 0.598  1.325  0.240  0.014 -0.056 -0.063 -0.063
 0.600  1.326  0.240  0.014 -0.055 -0.062 -0.062
 0.602  1.326  0.241  0.015 -0.055 -0.061 -0.061
 0.604  1.326  0.241  0.015 -0.054 -0.061 -0.061
 0.606  1.327  0.241  0.015 -0.053 -0.060 -0.060
 0.608  1.327  0.241  0.016 -0.053 -0.059 -0.059
 0.610  1.327  0.242  0.016 -0.052 -0.059 -0.059
 0.612  1.327  0.242  0.017 -0.052 -0.058 -0.058
 0.614  1.328  0.242  0.017 -0.051 -0.058 -0.058
 0.616  1.328  0.242  0.017 -0.050 -0.057 -0.057
 0.618  1.328  0.243  0.017 -0.050 -0.056 -0.056
 0.620  1.328  0.243  0.018 -0.049 -0.056 -0.056
 0.622  1.328  0.243  0.018 -0.049 -0.055 -0.055
 0.624  1.328  0.244  0.018 -0.048 -0.055 -0.055
 0.626  1.329  0.244  0.019 -0.048 -0.054 -0.054
 0.628  1.329  0.244  0.019 -0.047 -0.054 -0.054
 0.630  1.329  0.245  0.019 -0.047 -0.053 -0.053
 0.632  1.329  0.245  0.020 -0.046 -0.053 -0.053
 0.634  1.329  0.245  0.020 -0.045 -0.052 -0.052
 0.636  1.329  0.246  0.020 -0.045 -0.052 -0.052
 0.638  1.329  0.246  0.020 -0.044 -0.052 -0.052
 0.640  1.329  0.246  0.020 -0.044 -0.051 -0.051
 0.642  1.329  0.247  0.020 -0.044 -0.051 -0.051
 0.644  1.329  0.247  0.020 -0.043 -0.050 -0.050
 0.646  1.329  0.247  0.020 -0.043 -0.050 -0.050
 0.648  1.329  0.248  0.020 -0.042 -0.049 -0.049
 0.650  1.329  0.248  0.020 -0.042 -0.049 -0.049
 0.652  1.329  0.248  0.020 -0.042 -0.049 -0.049
 0.654  1.329  0.249  0.020 -0.041 -0.048 -0.048
 0.656  1.328  0.249  0.020 -0.041 -0.048 -0.048
 0.658  1.328  0.249  0.020 -0.040 -0.048 -0.048
 0.660  1.328  0.249  0.020 -0.040 -0.047 -0.047
 0.662  1.328  0.249  0.020 -0.040 -0.047 -0.047
 0.664  1.328  0.250  0.020 -0.039 -0.047 -0.047
 0.666  1.328  0.250  0.020 -0.039 -0.046 -0.046
 0.668  1.327  0.250  0.020 -0.039 -0.046 -0.046
 0.670  1.327  0.250  0.020 -0.039 -0.045 -0.045
 0.672  1.327  0.250  0.020 -0.039 -0.045 -0.045
 0.674  1.327  0.249  0.020 -0.038 -0.044 -0.044
 0.676  1.326  0.249  0.019 -0.038 -0.044 -0.044
 0.678  1.326  0.249  0.019 -0.038 -0.043 -0.043
 0.680  1.326  0.249  0.019 -0.038 -0.043 -0.043
 0.682  1.325  0.249  0.018 -0.038 -0.042 -0.042
 0.684  1.325  0.248  0.018 -0.038 -0.042 -0.042
 0.686  1.325  0.248  0.017 -0.038 -0.041 -0.041
 0.688  1.324  0.247  0.017 -0.038 -0.040 -0.040
 0.690  1.324  0.247  0.017 -0.037 -0.040 -0.040
 0.692  1.324  0.247  0.017 -0.037 -0.039 -0.039
 0.694  1.323  0.246  0.016 -0.037 -0.038 -0.038
 0.696  1.323  0.246  0.016 -0.037 -0.037 -0.037
 0.698  1.323  0.245  0.015 -0.036 -0.037 -0.037
 0.700  1.322  0.244  0.015 -0.036 -0.036 -0.036
 0.702  1.322  0.244  0.015 -0.035 -0.035 -0.035
 0.704  1.321  0.243  0.014 -0.035 -0.034 -0.034
 0.706  1.321  0.242  0.014 -0.035 -0.033 -0.033
 0.708  1.320  0.242  0.013 -0.034 -0.032 -0.032
 0.710  1.320  0.241  0.013 -0.034 -0.031 -0.031
 0.712  1.319  0.240  0.012 -0.033 -0.030 -0.030
 0.714  1.318  0.239  0.011 -0.033 -0.029 -0.029
 0.716  1.318  0.238  0.010 -0.032 -0.028 -0.028
 0.718  1.318  0.237  0.010 -0.032 -0.028 -0.028
 0.720  1.318  0.236  0.010 -0.030 -0.027 -0.027
 0.722  1.317  0.235  0.009 -0.030 -0.025 -0.025
 0.724  1.317  0.235  0.008 -0.029 -0.024 -0.024
 0.726  1.317  0.234  0.008 -0.028 -0.023 -0.023
 0.728  1.317  0.233  0.008 -0.028 -0.022 -0.022
 0.730  1.317  0.233  0.008 -0.027 -0.021 -0.021
 0.732  1.317  0.233  0.008 -0.026 -0.019 -0.019
 0.734  1.317  0.233  0.008 -0.025 -0.018 -0.018
 0.736  1.318  0.233  0.008 -0.024 -0.017 -0.017
 0.738  1.318  0.233  0.008 -0.023 -0.016 -0.016
 0.740  1.319  0.233  0.008 -0.022 -0.014 -0.014
 0.742  1.320  0.233  0.009 -0.020 -0.013 -0.013
 0.744  1.322  0.234  0.010 -0.019 -0.011 -0.011
 0.746  1.323  0.234  0.010 -0.018 -0.010 -0.010
 0.748  1.325  0.235  0.012 -0.017 -0.008 -0.008
 0.750  1.326  0.236  0.013 -0.016 -0.007 -0.007
 0.752  1.328  0.237  0.014 -0.015 -0.005 -0.005
 0.754  1.330  0.238  0.015 -0.014 -0.004 -0.004
 0.756  1.332  0.239  0.016 -0.012 -0.002 -0.002
 0.758  1.334  0.240  0.017 -0.011 -0.000 -0.000
 0.760  1.336  0.241  0.020 -0.010  0.001  0.001
 0.762  1.339  0.243  0.021 -0.008  0.003  0.003
 0.764  1.342  0.244  0.023 -0.007  0.005  0.005
 0.766  1.344  0.246  0.024 -0.005  0.007  0.007
 0.768  1.347  0.248  0.026 -0.004  0.009  0.009
 0.770  1.351  0.250  0.029 -0.002  0.011  0.011
 0.772  1.355  0.252  0.031 -0.001  0.012  0.012
 0.774  1.358  0.254  0.034  0.001  0.014  0.014
 0.776  1.362  0.256  0.036  0.003  0.016  0.016
 0.778  1.367  0.259  0.040  0.004  0.018  0.018
 0.780  1.370  0.261  0.043  0.006  0.020  0.020
 0.782  1.375  0.264  0.045  0.008  0.022  0.022
 0.784  1.379  0.267  0.048  0.010  0.024  0.024
 0.786  1.383  0.270  0.052  0.012  0.026  0.026
 0.788  1.388  0.272  0.054  0.013  0.029  0.029
 0.790  1.392  0.274  0.058  0.015  0.030  0.030
 0.792  1.397  0.277  0.061  0.017  0.033  0.033
 0.794  1.401  0.280  0.064  0.019  0.035  0.035
 0.796  1.405  0.283  0.068  0.021  0.038  0.038
 0.798  1.409  0.286  0.070  0.022  0.040  0.040
 0.800  1.413  0.289  0.074  0.024  0.042  0.042
 0.802  1.416  0.292  0.077  0.026  0.044  0.044
 0.804  1.420  0.295  0.079  0.028  0.047  0.047
 0.806  1.424  0.297  0.083  0.030  0.048  0.048
 0.808  1.427  0.300  0.086  0.032  0.050  0.050
