# IsPeriodic    : True
# Period        : 0.570430 days
# Normalization : <g_mag>=0
# 
# Phase u_mag  g_mag  r_mag  i_mag  z_mag  y_mag
 0.000  0.499 -0.612 -0.549 -0.482 -0.463 -0.463
 0.002  0.499 -0.612 -0.549 -0.482 -0.463 -0.463
 0.004  0.499 -0.611 -0.549 -0.482 -0.463 -0.463
 0.006  0.500 -0.610 -0.548 -0.481 -0.462 -0.462
 0.008  0.501 -0.608 -0.548 -0.481 -0.462 -0.462
 0.010  0.503 -0.605 -0.547 -0.480 -0.461 -0.461
 0.012  0.504 -0.602 -0.546 -0.480 -0.460 -0.460
 0.014  0.506 -0.598 -0.545 -0.479 -0.459 -0.459
 0.016  0.508 -0.594 -0.544 -0.477 -0.457 -0.457
 0.018  0.511 -0.590 -0.543 -0.476 -0.456 -0.456
 0.020  0.514 -0.585 -0.541 -0.475 -0.455 -0.455
 0.022  0.516 -0.582 -0.540 -0.473 -0.453 -0.453
 0.024  0.518 -0.577 -0.538 -0.472 -0.452 -0.452
 0.026  0.522 -0.571 -0.537 -0.470 -0.450 -0.450
 0.028  0.525 -0.566 -0.535 -0.468 -0.448 -0.448
 0.030  0.528 -0.561 -0.533 -0.466 -0.447 -0.447
 0.032  0.532 -0.556 -0.531 -0.463 -0.445 -0.445
 0.034  0.536 -0.551 -0.530 -0.461 -0.444 -0.444
 0.036  0.539 -0.547 -0.528 -0.458 -0.442 -0.442
 0.038  0.543 -0.542 -0.526 -0.456 -0.440 -0.440
 0.040  0.547 -0.536 -0.524 -0.453 -0.439 -0.439
 0.042  0.552 -0.531 -0.522 -0.450 -0.437 -0.437
 0.044  0.556 -0.526 -0.520 -0.448 -0.435 -0.435
 0.046  0.561 -0.521 -0.518 -0.444 -0.433 -0.433
 0.048  0.566 -0.517 -0.515 -0.442 -0.431 -0.431
 0.050  0.571 -0.511 -0.513 -0.439 -0.429 -0.429
 0.052  0.576 -0.506 -0.510 -0.436 -0.427 -0.427
 0.054  0.582 -0.501 -0.507 -0.433 -0.425 -0.425
 0.056  0.588 -0.496 -0.505 -0.430 -0.422 -0.422
 0.058  0.593 -0.490 -0.502 -0.428 -0.420 -0.420
 0.060  0.599 -0.486 -0.499 -0.425 -0.418 -0.418
 0.062  0.606 -0.481 -0.496 -0.422 -0.415 -0.415
 0.064  0.612 -0.476 -0.492 -0.419 -0.413 -0.413
 0.066  0.618 -0.470 -0.490 -0.417 -0.410 -0.410
 0.068  0.626 -0.465 -0.486 -0.414 -0.408 -0.408
 0.070  0.632 -0.460 -0.483 -0.412 -0.405 -0.405
 0.072  0.639 -0.455 -0.479 -0.409 -0.402 -0.402
 0.074  0.647 -0.450 -0.476 -0.407 -0.400 -0.400
 0.076  0.653 -0.444 -0.473 -0.405 -0.397 -0.397
 0.078  0.661 -0.439 -0.469 -0.402 -0.394 -0.394
 0.080  0.667 -0.434 -0.466 -0.400 -0.392 -0.392
 0.082  0.675 -0.428 -0.462 -0.398 -0.389 -0.389
 0.084  0.682 -0.424 -0.459 -0.396 -0.386 -0.386
 0.086  0.688 -0.418 -0.456 -0.394 -0.384 -0.384
 0.088  0.695 -0.413 -0.452 -0.392 -0.381 -0.381
 0.090  0.702 -0.407 -0.449 -0.390 -0.379 -0.379
 0.092  0.708 -0.402 -0.445 -0.388 -0.376 -0.376
 0.094  0.715 -0.397 -0.442 -0.386 -0.374 -0.374
 0.096  0.721 -0.392 -0.439 -0.384 -0.371 -0.371
 0.098  0.727 -0.387 -0.435 -0.382 -0.369 -0.369
 0.100  0.733 -0.382 -0.432 -0.380 -0.366 -0.366
 0.102  0.739 -0.376 -0.428 -0.379 -0.364 -0.364
 0.104  0.744 -0.371 -0.425 -0.377 -0.362 -0.362
 0.106  0.750 -0.366 -0.422 -0.376 -0.359 -0.359
 0.108  0.756 -0.362 -0.418 -0.374 -0.357 -0.357
 0.110  0.761 -0.357 -0.415 -0.372 -0.355 -0.355
 0.112  0.767 -0.352 -0.412 -0.371 -0.353 -0.353
 0.114  0.772 -0.347 -0.409 -0.369 -0.351 -0.351
 0.116  0.778 -0.342 -0.405 -0.368 -0.349 -0.349
 0.118  0.782 -0.337 -0.403 -0.366 -0.347 -0.347
 0.120  0.788 -0.334 -0.399 -0.365 -0.345 -0.345
 0.122  0.793 -0.329 -0.396 -0.364 -0.343 -0.343
 0.124  0.798 -0.324 -0.393 -0.362 -0.341 -0.341
 0.126  0.802 -0.320 -0.390 -0.360 -0.339 -0.339
 0.128  0.807 -0.315 -0.387 -0.359 -0.337 -0.337
 0.130  0.812 -0.310 -0.383 -0.358 -0.335 -0.335
 0.132  0.816 -0.306 -0.381 -0.356 -0.333 -0.333
 0.134  0.820 -0.302 -0.377 -0.354 -0.332 -0.332
 0.136  0.824 -0.298 -0.375 -0.353 -0.330 -0.330
 0.138  0.829 -0.293 -0.371 -0.352 -0.328 -0.328
 0.140  0.833 -0.289 -0.368 -0.350 -0.327 -0.327
 0.142  0.836 -0.285 -0.365 -0.349 -0.325 -0.325
 0.144  0.840 -0.281 -0.362 -0.347 -0.324 -0.324
 0.146  0.844 -0.276 -0.360 -0.345 -0.322 -0.322
 0.148  0.848 -0.273 -0.356 -0.344 -0.321 -0.321
 0.150  0.852 -0.269 -0.353 -0.342 -0.319 -0.319
 0.152  0.855 -0.265 -0.351 -0.340 -0.318 -0.318
 0.154  0.859 -0.261 -0.348 -0.339 -0.316 -0.316
 0.156  0.863 -0.257 -0.345 -0.337 -0.315 -0.315
 0.158  0.867 -0.253 -0.343 -0.336 -0.313 -0.313
 0.160  0.871 -0.250 -0.340 -0.334 -0.312 -0.312
 0.162  0.873 -0.246 -0.337 -0.332 -0.310 -0.310
 0.164  0.877 -0.243 -0.334 -0.331 -0.309 -0.309
 0.166  0.881 -0.239 -0.332 -0.329 -0.307 -0.307
 0.168  0.885 -0.235 -0.329 -0.327 -0.306 -0.306
 0.170  0.889 -0.231 -0.326 -0.325 -0.304 -0.304
 0.172  0.892 -0.228 -0.324 -0.324 -0.303 -0.303
 0.174  0.896 -0.224 -0.321 -0.322 -0.301 -0.301
 0.176  0.899 -0.220 -0.319 -0.320 -0.300 -0.300
 0.178  0.903 -0.216 -0.316 -0.318 -0.298 -0.298
 0.180  0.907 -0.212 -0.314 -0.317 -0.297 -0.297
 0.182  0.910 -0.209 -0.311 -0.314 -0.295 -0.295
 0.184  0.914 -0.205 -0.309 -0.313 -0.294 -0.294
 0.186  0.918 -0.202 -0.306 -0.311 -0.292 -0.292
 0.188  0.922 -0.198 -0.304 -0.309 -0.291 -0.291
 0.190  0.925 -0.194 -0.302 -0.307 -0.289 -0.289
 0.192  0.929 -0.190 -0.300 -0.306 -0.288 -0.288
 0.194  0.932 -0.186 -0.298 -0.304 -0.287 -0.287
 0.196  0.936 -0.182 -0.295 -0.302 -0.285 -0.285
 0.198  0.940 -0.179 -0.293 -0.300 -0.284 -0.284
 0.200  0.944 -0.175 -0.291 -0.299 -0.282 -0.282
 0.202  0.947 -0.171 -0.289 -0.297 -0.281 -0.281
 0.204  0.950 -0.167 -0.287 -0.295 -0.279 -0.279
 0.206  0.954 -0.163 -0.285 -0.294 -0.278 -0.278
 0.208  0.958 -0.159 -0.283 -0.292 -0.276 -0.276
 0.210  0.961 -0.155 -0.281 -0.291 -0.275 -0.275
 0.212  0.965 -0.151 -0.279 -0.289 -0.273 -0.273
 0.214  0.968 -0.148 -0.277 -0.287 -0.272 -0.272
 0.216  0.972 -0.144 -0.274 -0.286 -0.270 -0.270
 0.218  0.976 -0.140 -0.273 -0.285 -0.269 -0.269
 0.220  0.979 -0.136 -0.271 -0.283 -0.267 -0.267
 0.222  0.983 -0.132 -0.269 -0.282 -0.265 -0.265
 0.224  0.986 -0.128 -0.267 -0.280 -0.264 -0.264
 0.226  0.989 -0.124 -0.266 -0.279 -0.262 -0.262
 0.228  0.993 -0.119 -0.264 -0.278 -0.261 -0.261
 0.230  0.997 -0.116 -0.262 -0.276 -0.260 -0.260
 0.232  1.000 -0.112 -0.259 -0.275 -0.258 -0.258
 0.234  1.004 -0.108 -0.258 -0.274 -0.257 -0.257
 0.236  1.006 -0.104 -0.256 -0.272 -0.255 -0.255
 0.238  1.010 -0.100 -0.254 -0.271 -0.254 -0.254
 0.240  1.013 -0.096 -0.252 -0.270 -0.253 -0.253
 0.242  1.017 -0.092 -0.250 -0.269 -0.251 -0.251
 0.244  1.020 -0.088 -0.249 -0.268 -0.250 -0.250
 0.246  1.022 -0.085 -0.247 -0.267 -0.248 -0.248
 0.248  1.026 -0.081 -0.244 -0.265 -0.247 -0.247
 0.250  1.029 -0.078 -0.242 -0.265 -0.246 -0.246
 0.252  1.032 -0.074 -0.240 -0.263 -0.244 -0.244
 0.254  1.036 -0.070 -0.239 -0.262 -0.243 -0.243
 0.256  1.039 -0.067 -0.237 -0.261 -0.242 -0.242
 0.258  1.041 -0.063 -0.235 -0.260 -0.240 -0.240
 0.260  1.044 -0.059 -0.233 -0.259 -0.239 -0.239
 0.262  1.047 -0.057 -0.231 -0.258 -0.238 -0.238
 0.264  1.051 -0.053 -0.229 -0.257 -0.237 -0.237
 0.266  1.054 -0.050 -0.227 -0.256 -0.235 -0.235
 0.268  1.057 -0.046 -0.225 -0.255 -0.234 -0.234
 0.270  1.060 -0.043 -0.223 -0.254 -0.233 -0.233
 0.272  1.062 -0.040 -0.221 -0.253 -0.232 -0.232
 0.274  1.065 -0.036 -0.219 -0.252 -0.230 -0.230
 0.276  1.068 -0.033 -0.217 -0.250 -0.229 -0.229
 0.278  1.071 -0.030 -0.215 -0.249 -0.228 -0.228
 0.280  1.074 -0.027 -0.213 -0.248 -0.227 -0.227
 0.282  1.077 -0.025 -0.211 -0.246 -0.225 -0.225
 0.284  1.079 -0.021 -0.209 -0.245 -0.224 -0.224
 0.286  1.081 -0.018 -0.207 -0.243 -0.223 -0.223
 0.288  1.084 -0.015 -0.205 -0.242 -0.222 -0.222
 0.290  1.087 -0.012 -0.203 -0.241 -0.221 -0.221
 0.292  1.090 -0.010 -0.202 -0.239 -0.219 -0.219
 0.294  1.093 -0.007 -0.200 -0.237 -0.218 -0.218
 0.296  1.095 -0.004 -0.197 -0.236 -0.217 -0.217
 0.298  1.097 -0.001 -0.195 -0.235 -0.216 -0.216
 0.300  1.100  0.002 -0.193 -0.233 -0.215 -0.215
 0.302  1.103  0.004 -0.191 -0.231 -0.214 -0.214
 0.304  1.105  0.006 -0.189 -0.230 -0.212 -0.212
 0.306  1.108  0.009 -0.187 -0.228 -0.211 -0.211
 0.308  1.111  0.012 -0.185 -0.227 -0.210 -0.210
 0.310  1.114  0.014 -0.183 -0.224 -0.209 -0.209
 0.312  1.116  0.017 -0.181 -0.223 -0.208 -0.208
 0.314  1.118  0.020 -0.179 -0.221 -0.207 -0.207
 0.316  1.121  0.022 -0.178 -0.219 -0.205 -0.205
 0.318  1.124  0.025 -0.176 -0.217 -0.204 -0.204
 0.320  1.126  0.028 -0.174 -0.215 -0.203 -0.203
 0.322  1.129  0.031 -0.172 -0.214 -0.202 -0.202
 0.324  1.132  0.033 -0.170 -0.211 -0.201 -0.201
 0.326  1.134  0.035 -0.168 -0.210 -0.200 -0.200
 0.328  1.136  0.038 -0.165 -0.208 -0.198 -0.198
 0.330  1.139  0.041 -0.164 -0.206 -0.197 -0.197
 0.332  1.142  0.044 -0.162 -0.204 -0.196 -0.196
 0.334  1.144  0.046 -0.160 -0.202 -0.195 -0.195
 0.336  1.147  0.049 -0.158 -0.200 -0.194 -0.194
 0.338  1.150  0.052 -0.156 -0.198 -0.193 -0.193
 0.340  1.152  0.055 -0.155 -0.196 -0.192 -0.192
 0.342  1.154  0.058 -0.153 -0.194 -0.190 -0.190
 0.344  1.156  0.061 -0.150 -0.192 -0.189 -0.189
 0.346  1.159  0.064 -0.148 -0.190 -0.188 -0.188
 0.348  1.162  0.066 -0.146 -0.189 -0.187 -0.187
 0.350  1.164  0.069 -0.145 -0.187 -0.186 -0.186
 0.352  1.167  0.072 -0.143 -0.185 -0.185 -0.185
 0.354  1.170  0.075 -0.141 -0.183 -0.183 -0.183
 0.356  1.172  0.078 -0.139 -0.182 -0.182 -0.182
 0.358  1.174  0.081 -0.138 -0.180 -0.181 -0.181
 0.360  1.176  0.084 -0.136 -0.178 -0.180 -0.180
 0.362  1.179  0.087 -0.133 -0.177 -0.179 -0.179
 0.364  1.182  0.090 -0.131 -0.175 -0.178 -0.178
 0.366  1.184  0.093 -0.130 -0.174 -0.177 -0.177
 0.368  1.187  0.096 -0.128 -0.172 -0.175 -0.175
 0.370  1.189  0.098 -0.126 -0.171 -0.174 -0.174
 0.372  1.191  0.101 -0.125 -0.169 -0.173 -0.173
 0.374  1.193  0.104 -0.123 -0.168 -0.172 -0.172
 0.376  1.196  0.107 -0.121 -0.166 -0.171 -0.171
 0.378  1.198  0.110 -0.119 -0.165 -0.169 -0.169
 0.380  1.201  0.113 -0.117 -0.163 -0.168 -0.168
 0.382  1.203  0.116 -0.115 -0.162 -0.167 -0.167
 0.384  1.206  0.119 -0.114 -0.161 -0.165 -0.165
 0.386  1.208  0.122 -0.112 -0.159 -0.164 -0.164
 0.388  1.210  0.125 -0.110 -0.158 -0.163 -0.163
 0.390  1.212  0.128 -0.108 -0.157 -0.162 -0.162
 0.392  1.215  0.130 -0.106 -0.156 -0.160 -0.160
 0.394  1.217  0.133 -0.105 -0.154 -0.159 -0.159
 0.396  1.220  0.136 -0.103 -0.153 -0.158 -0.158
 0.398  1.222  0.138 -0.101 -0.152 -0.157 -0.157
 0.400  1.225  0.141 -0.099 -0.151 -0.155 -0.155
 0.402  1.227  0.144 -0.098 -0.150 -0.154 -0.154
 0.404  1.229  0.146 -0.096 -0.149 -0.153 -0.153
 0.406  1.231  0.149 -0.094 -0.147 -0.152 -0.152
 0.408  1.233  0.151 -0.093 -0.146 -0.150 -0.150
 0.410  1.236  0.154 -0.091 -0.145 -0.149 -0.149
 0.412  1.238  0.156 -0.089 -0.144 -0.148 -0.148
 0.414  1.240  0.159 -0.088 -0.143 -0.146 -0.146
 0.416  1.243  0.160 -0.086 -0.142 -0.145 -0.145
 0.418  1.245  0.163 -0.084 -0.140 -0.144 -0.144
 0.420  1.247  0.165 -0.082 -0.139 -0.142 -0.142
 0.422  1.249  0.167 -0.081 -0.138 -0.141 -0.141
 0.424  1.251  0.169 -0.079 -0.137 -0.140 -0.140
 0.426  1.254  0.172 -0.078 -0.136 -0.138 -0.138
 0.428  1.256  0.174 -0.076 -0.134 -0.137 -0.137
 0.430  1.258  0.176 -0.074 -0.133 -0.136 -0.136
 0.432  1.260  0.178 -0.073 -0.132 -0.134 -0.134
 0.434  1.263  0.180 -0.071 -0.131 -0.133 -0.133
 0.436  1.265  0.182 -0.069 -0.129 -0.132 -0.132
 0.438  1.266  0.184 -0.068 -0.128 -0.130 -0.130
 0.440  1.268  0.186 -0.066 -0.127 -0.129 -0.129
 0.442  1.271  0.188 -0.065 -0.125 -0.128 -0.128
 0.444  1.273  0.190 -0.063 -0.124 -0.126 -0.126
 0.446  1.275  0.191 -0.062 -0.123 -0.125 -0.125
 0.448  1.277  0.193 -0.061 -0.121 -0.124 -0.124
 0.450  1.279  0.194 -0.059 -0.120 -0.123 -0.123
 0.452  1.281  0.196 -0.057 -0.119 -0.121 -0.121
 0.454  1.283  0.198 -0.056 -0.118 -0.120 -0.120
 0.456  1.284  0.199 -0.054 -0.116 -0.119 -0.119
 0.458  1.286  0.201 -0.053 -0.115 -0.118 -0.118
 0.460  1.288  0.203 -0.052 -0.113 -0.116 -0.116
 0.462  1.290  0.204 -0.050 -0.112 -0.115 -0.115
 0.464  1.292  0.206 -0.049 -0.111 -0.114 -0.114
 0.466  1.294  0.207 -0.048 -0.110 -0.113 -0.113
 0.468  1.296  0.209 -0.047 -0.108 -0.112 -0.112
 0.470  1.298  0.210 -0.046 -0.107 -0.111 -0.111
 0.472  1.300  0.212 -0.044 -0.105 -0.109 -0.109
 0.474  1.302  0.213 -0.043 -0.104 -0.108 -0.108
 0.476  1.303  0.215 -0.042 -0.103 -0.107 -0.107
 0.478  1.304  0.216 -0.041 -0.101 -0.106 -0.106
 0.480  1.306  0.218 -0.039 -0.100 -0.105 -0.105
 0.482  1.308  0.219 -0.039 -0.099 -0.104 -0.104
 0.484  1.310  0.220 -0.037 -0.098 -0.103 -0.103
 0.486  1.311  0.221 -0.036 -0.097 -0.102 -0.102
 0.488  1.313  0.222 -0.035 -0.095 -0.101 -0.101
 0.490  1.315  0.223 -0.034 -0.094 -0.100 -0.100
 0.492  1.316  0.224 -0.033 -0.093 -0.099 -0.099
 0.494  1.318  0.225 -0.033 -0.092 -0.098 -0.098
 0.496  1.320  0.226 -0.031 -0.091 -0.097 -0.097
 0.498  1.321  0.227 -0.031 -0.090 -0.096 -0.096
 0.500  1.322  0.228 -0.029 -0.088 -0.095 -0.095
 0.502  1.323  0.230 -0.029 -0.087 -0.094 -0.094
 0.504  1.325  0.231 -0.028 -0.086 -0.093 -0.093
 0.506  1.326  0.232 -0.027 -0.085 -0.092 -0.092
 0.508  1.328  0.233 -0.026 -0.085 -0.091 -0.091
 0.510  1.329  0.233 -0.025 -0.084 -0.090 -0.090
 0.512  1.331  0.234 -0.024 -0.082 -0.089 -0.089
 0.514  1.332  0.235 -0.023 -0.081 -0.088 -0.088
 0.516  1.333  0.236 -0.022 -0.081 -0.087 -0.087
 0.518  1.334  0.237 -0.022 -0.080 -0.086 -0.086
 0.520  1.336  0.238 -0.021 -0.079 -0.086 -0.086
 0.522  1.337  0.238 -0.020 -0.078 -0.085 -0.085
 0.524  1.338  0.239 -0.019 -0.078 -0.084 -0.084
 0.526  1.339  0.240 -0.018 -0.077 -0.083 -0.083
 0.528  1.340  0.241 -0.017 -0.076 -0.082 -0.082
 0.530  1.340  0.241 -0.016 -0.075 -0.082 -0.082
 0.532  1.341  0.242 -0.016 -0.075 -0.081 -0.081
 0.534  1.342  0.243 -0.014 -0.074 -0.080 -0.080
 0.536  1.343  0.243 -0.014 -0.073 -0.079 -0.079
 0.538  1.344  0.244 -0.013 -0.073 -0.078 -0.078
 0.540  1.345  0.244 -0.012 -0.072 -0.078 -0.078
 0.542  1.346  0.245 -0.011 -0.072 -0.077 -0.077
 0.544  1.347  0.245 -0.010 -0.071 -0.076 -0.076
 0.546  1.348  0.246 -0.009 -0.071 -0.076 -0.076
 0.548  1.349  0.246 -0.008 -0.070 -0.075 -0.075
 0.550  1.349  0.247 -0.007 -0.069 -0.074 -0.074
 0.552  1.350  0.247 -0.006 -0.069 -0.073 -0.073
 0.554  1.351  0.247 -0.005 -0.068 -0.073 -0.073
 0.556  1.351  0.248 -0.005 -0.068 -0.072 -0.072
 0.558  1.352  0.248 -0.003 -0.067 -0.072 -0.072
 0.560  1.352  0.249 -0.003 -0.067 -0.071 -0.071
 0.562  1.353  0.249 -0.002 -0.066 -0.070 -0.070
 0.564  1.353  0.249 -0.001 -0.066 -0.070 -0.070
 0.566  1.354  0.249  0.000 -0.065 -0.069 -0.069
 0.568  1.354  0.250  0.001 -0.065 -0.068 -0.068
 0.570  1.355  0.250  0.002 -0.064 -0.067 -0.067
 0.572  1.355  0.250  0.003 -0.064 -0.067 -0.067
 0.574  1.355  0.250  0.004 -0.063 -0.066 -0.066
 0.576  1.356  0.250  0.005 -0.062 -0.066 -0.066
 0.578  1.356  0.250  0.005 -0.062 -0.065 -0.065
 0.580  1.356  0.250  0.007 -0.061 -0.065 -0.065
 0.582  1.356  0.250  0.008 -0.061 -0.064 -0.064
 0.584  1.357  0.250  0.008 -0.060 -0.064 -0.064
 0.586  1.357  0.250  0.009 -0.059 -0.063 -0.063
 0.588  1.357  0.250  0.010 -0.059 -0.063 -0.063
 0.590  1.357  0.250  0.011 -0.058 -0.062 -0.062
 0.592  1.357  0.250  0.012 -0.058 -0.062 -0.062
 0.594  1.358  0.250  0.012 -0.057 -0.061 -0.061
 0.596  1.358  0.250  0.013 -0.056 -0.061 -0.061
 0.598  1.358  0.250  0.014 -0.056 -0.061 -0.061
 0.600  1.358  0.250  0.014 -0.055 -0.060 -0.060
 0.602  1.358  0.250  0.014 -0.055 -0.060 -0.060
 0.604  1.358  0.250  0.015 -0.054 -0.059 -0.059
 0.606  1.358  0.250  0.016 -0.053 -0.059 -0.059
 0.608  1.358  0.250  0.016 -0.053 -0.059 -0.059
 0.610  1.358  0.249  0.016 -0.052 -0.058 -0.058
 0.612  1.358  0.249  0.017 -0.052 -0.058 -0.058
 0.614  1.358  0.249  0.018 -0.051 -0.057 -0.057
 0.616  1.358  0.249  0.018 -0.051 -0.057 -0.057
 0.618  1.358  0.249  0.018 -0.050 -0.057 -0.057
 0.620  1.358  0.249  0.018 -0.049 -0.056 -0.056
 0.622  1.358  0.249  0.019 -0.049 -0.056 -0.056
 0.624  1.358  0.249  0.019 -0.048 -0.056 -0.056
 0.626  1.357  0.249  0.019 -0.048 -0.055 -0.055
 0.628  1.357  0.249  0.020 -0.047 -0.055 -0.055
 0.630  1.357  0.248  0.020 -0.047 -0.055 -0.055
 0.632  1.357  0.248  0.020 -0.046 -0.054 -0.054
 0.634  1.357  0.248  0.020 -0.046 -0.054 -0.054
 0.636  1.356  0.248  0.020 -0.045 -0.054 -0.054
 0.638  1.356  0.248  0.020 -0.045 -0.054 -0.054
 0.640  1.356  0.248  0.020 -0.044 -0.053 -0.053
 0.642  1.356  0.248  0.020 -0.044 -0.053 -0.053
 0.644  1.355  0.248  0.020 -0.043 -0.053 -0.053
 0.646  1.355  0.247  0.020 -0.043 -0.053 -0.053
 0.648  1.355  0.247  0.020 -0.042 -0.052 -0.052
 0.650  1.354  0.247  0.020 -0.042 -0.052 -0.052
 0.652  1.354  0.247  0.020 -0.042 -0.052 -0.052
 0.654  1.354  0.247  0.020 -0.041 -0.052 -0.052
 0.656  1.354  0.247  0.020 -0.041 -0.052 -0.052
 0.658  1.353  0.246  0.020 -0.041 -0.051 -0.051
 0.660  1.353  0.246  0.020 -0.041 -0.051 -0.051
 0.662  1.353  0.246  0.020 -0.040 -0.051 -0.051
 0.664  1.352  0.246  0.020 -0.040 -0.051 -0.051
 0.666  1.352  0.246  0.021 -0.040 -0.050 -0.050
 0.668  1.352  0.246  0.021 -0.040 -0.050 -0.050
 0.670  1.351  0.246  0.022 -0.039 -0.050 -0.050
 0.672  1.351  0.246  0.022 -0.039 -0.050 -0.050
 0.674  1.351  0.246  0.023 -0.039 -0.050 -0.050
 0.676  1.350  0.246  0.023 -0.039 -0.049 -0.049
 0.678  1.350  0.246  0.023 -0.039 -0.049 -0.049
 0.680  1.350  0.247  0.024 -0.039 -0.049 -0.049
 0.682  1.350  0.247  0.025 -0.038 -0.049 -0.049
 0.684  1.349  0.247  0.025 -0.038 -0.048 -0.048
 0.686  1.349  0.248  0.026 -0.038 -0.048 -0.048
 0.688  1.349  0.248  0.027 -0.038 -0.048 -0.048
 0.690  1.348  0.249  0.027 -0.038 -0.048 -0.048
 0.692  1.348  0.249  0.028 -0.038 -0.048 -0.048
 0.694  1.348  0.250  0.029 -0.037 -0.047 -0.047
 0.696  1.347  0.251  0.030 -0.037 -0.047 -0.047
 0.698  1.347  0.251  0.031 -0.036 -0.047 -0.047
 0.700  1.347  0.251  0.031 -0.036 -0.047 -0.047
 0.702  1.346  0.252  0.033 -0.036 -0.047 -0.047
 0.704  1.346  0.253  0.033 -0.035 -0.046 -0.046
 0.706  1.346  0.254  0.035 -0.035 -0.046 -0.046
 0.708  1.346  0.255  0.035 -0.035 -0.046 -0.046
 0.710  1.345  0.256  0.037 -0.034 -0.046 -0.046
 0.712  1.345  0.257  0.038 -0.034 -0.045 -0.045
 0.714  1.345  0.258  0.039 -0.033 -0.045 -0.045
 0.716  1.344  0.259  0.040 -0.033 -0.045 -0.045
 0.718  1.344  0.260  0.042 -0.032 -0.045 -0.045
 0.720  1.344  0.262  0.043 -0.031 -0.045 -0.045
 0.722  1.344  0.263  0.044 -0.030 -0.044 -0.044
 0.724  1.343  0.264  0.046 -0.030 -0.044 -0.044
 0.726  1.343  0.266  0.047 -0.029 -0.044 -0.044
 0.728  1.343  0.267  0.048 -0.028 -0.043 -0.043
 0.730  1.343  0.269  0.050 -0.027 -0.043 -0.043
 0.732  1.342  0.270  0.052 -0.027 -0.043 -0.043
 0.734  1.342  0.272  0.053 -0.026 -0.042 -0.042
 0.736  1.342  0.274  0.055 -0.025 -0.042 -0.042
 0.738  1.342  0.275  0.057 -0.023 -0.041 -0.041
 0.740  1.341  0.277  0.059 -0.022 -0.041 -0.041
 0.742  1.341  0.279  0.061 -0.021 -0.040 -0.040
 0.744  1.341  0.280  0.062 -0.020 -0.039 -0.039
 0.746  1.341  0.282  0.064 -0.019 -0.039 -0.039
 0.748  1.341  0.283  0.066 -0.018 -0.038 -0.038
 0.750  1.341  0.285  0.068 -0.017 -0.037 -0.037
 0.752  1.340  0.287  0.070 -0.016 -0.037 -0.037
 0.754  1.340  0.289  0.072 -0.015 -0.036 -0.036
 0.756  1.340  0.291  0.074 -0.013 -0.035 -0.035
 0.758  1.340  0.293  0.076 -0.012 -0.034 -0.034
 0.760  1.340  0.296  0.078 -0.011 -0.034 -0.034
 0.762  1.340  0.298  0.080 -0.009 -0.033 -0.033
 0.764  1.340  0.300  0.082 -0.008 -0.032 -0.032
 0.766  1.340  0.302  0.085 -0.007 -0.031 -0.031
 0.768  1.340  0.304  0.087 -0.005 -0.030 -0.030
 0.770  1.340  0.307  0.089 -0.003 -0.029 -0.029
 0.772  1.340  0.309  0.092 -0.002 -0.028 -0.028
 0.774  1.340  0.311  0.095 -0.000 -0.027 -0.027
 0.776  1.340  0.313  0.097  0.001 -0.026 -0.026
 0.778  1.340  0.315  0.100  0.003 -0.024 -0.024
 0.780  1.340  0.317  0.103  0.005 -0.023 -0.023
 0.782  1.340  0.319  0.106  0.006 -0.022 -0.022
 0.784  1.340  0.322  0.108  0.009 -0.021 -0.021
 0.786  1.340  0.324  0.111  0.010 -0.019 -0.019
 0.788  1.340  0.327  0.114  0.012 -0.018 -0.018
 0.790  1.340  0.330  0.116  0.013 -0.017 -0.017
 0.792  1.340  0.333  0.119  0.016 -0.016 -0.016
 0.794  1.341  0.336  0.121  0.017 -0.014 -0.014
 0.796  1.341  0.339  0.123  0.019 -0.013 -0.013
 0.798  1.342  0.342  0.125  0.020 -0.012 -0.012
 0.800  1.343  0.344  0.127  0.023 -0.010 -0.010
 0.802  1.344  0.347  0.128  0.024 -0.009 -0.009
 0.804  1.345  0.350  0.129  0.026 -0.007 -0.007
 0.806  1.346  0.352  0.130  0.028 -0.006 -0.006
 0.808  1.348  0.354  0.132  0.030 -0.005 -0.005
