# IsPeriodic    : True
# Period        : 0.623655 days
# Normalization : <g_mag>=0
# 
# Phase u_mag  g_mag  r_mag  i_mag  z_mag  y_mag
 0.000  0.422 -0.793 -0.723 -0.609 -0.533 -0.533
 0.002  0.422 -0.793 -0.723 -0.609 -0.533 -0.533
 0.004  0.422 -0.793 -0.721 -0.609 -0.533 -0.533
 0.006  0.423 -0.792 -0.719 -0.608 -0.532 -0.532
 0.008  0.424 -0.790 -0.717 -0.607 -0.532 -0.532
 0.010  0.426 -0.787 -0.713 -0.606 -0.530 -0.530
 0.012  0.427 -0.786 -0.710 -0.605 -0.530 -0.530
 0.014  0.429 -0.782 -0.705 -0.603 -0.528 -0.528
 0.016  0.431 -0.780 -0.701 -0.602 -0.526 -0.526
 0.018  0.434 -0.776 -0.697 -0.600 -0.525 -0.525
 0.020  0.436 -0.772 -0.692 -0.598 -0.523 -0.523
 0.022  0.439 -0.769 -0.687 -0.596 -0.520 -0.520
 0.024  0.443 -0.765 -0.682 -0.595 -0.518 -0.518
 0.026  0.447 -0.761 -0.677 -0.593 -0.515 -0.515
 0.028  0.451 -0.757 -0.673 -0.591 -0.512 -0.512
 0.030  0.456 -0.753 -0.669 -0.588 -0.509 -0.509
 0.032  0.461 -0.748 -0.664 -0.586 -0.506 -0.506
 0.034  0.466 -0.744 -0.660 -0.584 -0.502 -0.502
 0.036  0.472 -0.739 -0.656 -0.582 -0.499 -0.499
 0.038  0.477 -0.735 -0.651 -0.580 -0.495 -0.495
 0.040  0.484 -0.730 -0.647 -0.578 -0.491 -0.491
 0.042  0.490 -0.725 -0.643 -0.575 -0.488 -0.488
 0.044  0.497 -0.719 -0.639 -0.572 -0.484 -0.484
 0.046  0.504 -0.714 -0.634 -0.570 -0.481 -0.481
 0.048  0.511 -0.708 -0.630 -0.567 -0.477 -0.477
 0.050  0.519 -0.702 -0.626 -0.564 -0.474 -0.474
 0.052  0.526 -0.695 -0.621 -0.561 -0.471 -0.471
 0.054  0.534 -0.689 -0.616 -0.558 -0.468 -0.468
 0.056  0.541 -0.682 -0.612 -0.555 -0.465 -0.465
 0.058  0.549 -0.676 -0.607 -0.552 -0.462 -0.462
 0.060  0.556 -0.669 -0.602 -0.549 -0.459 -0.459
 0.062  0.564 -0.661 -0.598 -0.545 -0.456 -0.456
 0.064  0.571 -0.654 -0.593 -0.541 -0.453 -0.453
 0.066  0.579 -0.647 -0.588 -0.538 -0.451 -0.451
 0.068  0.586 -0.638 -0.584 -0.534 -0.449 -0.449
 0.070  0.593 -0.631 -0.579 -0.531 -0.446 -0.446
 0.072  0.600 -0.622 -0.575 -0.526 -0.444 -0.444
 0.074  0.606 -0.615 -0.571 -0.523 -0.441 -0.441
 0.076  0.613 -0.606 -0.565 -0.519 -0.439 -0.439
 0.078  0.619 -0.598 -0.561 -0.516 -0.437 -0.437
 0.080  0.626 -0.590 -0.556 -0.511 -0.435 -0.435
 0.082  0.632 -0.582 -0.552 -0.508 -0.433 -0.433
 0.084  0.639 -0.573 -0.548 -0.504 -0.431 -0.431
 0.086  0.644 -0.566 -0.543 -0.500 -0.429 -0.429
 0.088  0.650 -0.559 -0.539 -0.496 -0.428 -0.428
 0.090  0.656 -0.550 -0.534 -0.492 -0.426 -0.426
 0.092  0.663 -0.543 -0.529 -0.490 -0.424 -0.424
 0.094  0.669 -0.535 -0.525 -0.486 -0.423 -0.423
 0.096  0.674 -0.528 -0.521 -0.482 -0.422 -0.422
 0.098  0.680 -0.521 -0.516 -0.479 -0.420 -0.420
 0.100  0.686 -0.513 -0.512 -0.476 -0.420 -0.420
 0.102  0.692 -0.507 -0.507 -0.472 -0.418 -0.418
 0.104  0.696 -0.500 -0.503 -0.469 -0.417 -0.417
 0.106  0.702 -0.494 -0.499 -0.467 -0.416 -0.416
 0.108  0.708 -0.487 -0.494 -0.463 -0.415 -0.415
 0.110  0.712 -0.480 -0.490 -0.460 -0.414 -0.414
 0.112  0.717 -0.474 -0.486 -0.457 -0.413 -0.413
 0.114  0.723 -0.467 -0.482 -0.454 -0.412 -0.412
 0.116  0.727 -0.461 -0.478 -0.451 -0.411 -0.411
 0.118  0.732 -0.455 -0.473 -0.449 -0.410 -0.410
 0.120  0.737 -0.449 -0.470 -0.446 -0.409 -0.409
 0.122  0.741 -0.444 -0.465 -0.443 -0.408 -0.408
 0.124  0.746 -0.438 -0.461 -0.441 -0.407 -0.407
 0.126  0.750 -0.432 -0.457 -0.438 -0.406 -0.406
 0.128  0.755 -0.427 -0.453 -0.436 -0.404 -0.404
 0.130  0.760 -0.421 -0.450 -0.433 -0.403 -0.403
 0.132  0.764 -0.416 -0.445 -0.431 -0.402 -0.402
 0.134  0.769 -0.411 -0.442 -0.429 -0.400 -0.400
 0.136  0.775 -0.406 -0.437 -0.427 -0.399 -0.399
 0.138  0.779 -0.401 -0.434 -0.425 -0.397 -0.397
 0.140  0.784 -0.396 -0.430 -0.423 -0.395 -0.395
 0.142  0.788 -0.391 -0.426 -0.420 -0.394 -0.394
 0.144  0.793 -0.386 -0.422 -0.418 -0.393 -0.393
 0.146  0.798 -0.381 -0.418 -0.417 -0.391 -0.391
 0.148  0.802 -0.378 -0.415 -0.415 -0.389 -0.389
 0.150  0.807 -0.373 -0.411 -0.412 -0.387 -0.387
 0.152  0.812 -0.368 -0.408 -0.410 -0.386 -0.386
 0.154  0.816 -0.363 -0.404 -0.409 -0.384 -0.384
 0.156  0.821 -0.359 -0.400 -0.407 -0.382 -0.382
 0.158  0.825 -0.355 -0.396 -0.405 -0.381 -0.381
 0.160  0.830 -0.350 -0.393 -0.403 -0.379 -0.379
 0.162  0.835 -0.346 -0.389 -0.401 -0.377 -0.377
 0.164  0.839 -0.341 -0.386 -0.399 -0.375 -0.375
 0.166  0.844 -0.336 -0.382 -0.397 -0.373 -0.373
 0.168  0.850 -0.331 -0.379 -0.396 -0.371 -0.371
 0.170  0.854 -0.328 -0.375 -0.394 -0.369 -0.369
 0.172  0.859 -0.323 -0.372 -0.392 -0.367 -0.367
 0.174  0.863 -0.318 -0.368 -0.389 -0.364 -0.364
 0.176  0.868 -0.313 -0.365 -0.388 -0.362 -0.362
 0.178  0.873 -0.308 -0.362 -0.386 -0.360 -0.360
 0.180  0.877 -0.303 -0.358 -0.384 -0.357 -0.357
 0.182  0.882 -0.298 -0.355 -0.381 -0.355 -0.355
 0.184  0.886 -0.293 -0.351 -0.380 -0.353 -0.353
 0.186  0.891 -0.289 -0.349 -0.378 -0.350 -0.350
 0.188  0.897 -0.284 -0.345 -0.376 -0.348 -0.348
 0.190  0.901 -0.279 -0.342 -0.374 -0.346 -0.346
 0.192  0.906 -0.274 -0.339 -0.372 -0.344 -0.344
 0.194  0.911 -0.269 -0.336 -0.370 -0.342 -0.342
 0.196  0.915 -0.264 -0.332 -0.368 -0.340 -0.340
 0.198  0.920 -0.259 -0.330 -0.366 -0.338 -0.338
 0.200  0.924 -0.254 -0.326 -0.364 -0.336 -0.336
 0.202  0.929 -0.249 -0.323 -0.362 -0.334 -0.334
 0.204  0.934 -0.245 -0.320 -0.360 -0.332 -0.332
 0.206  0.938 -0.238 -0.317 -0.358 -0.330 -0.330
 0.208  0.943 -0.234 -0.315 -0.356 -0.328 -0.328
 0.210  0.948 -0.229 -0.311 -0.354 -0.326 -0.326
 0.212  0.952 -0.224 -0.308 -0.352 -0.324 -0.324
 0.214  0.957 -0.219 -0.305 -0.350 -0.322 -0.322
 0.216  0.961 -0.213 -0.302 -0.348 -0.321 -0.321
 0.218  0.965 -0.208 -0.300 -0.345 -0.319 -0.319
 0.220  0.969 -0.203 -0.297 -0.343 -0.317 -0.317
 0.222  0.974 -0.198 -0.294 -0.341 -0.315 -0.315
 0.224  0.979 -0.193 -0.291 -0.340 -0.313 -0.313
 0.226  0.982 -0.187 -0.288 -0.338 -0.312 -0.312
 0.228  0.987 -0.182 -0.286 -0.335 -0.310 -0.310
 0.230  0.991 -0.177 -0.283 -0.333 -0.309 -0.309
 0.232  0.995 -0.173 -0.280 -0.331 -0.307 -0.307
 0.234  0.999 -0.168 -0.278 -0.329 -0.305 -0.305
 0.236  1.004 -0.163 -0.275 -0.327 -0.304 -0.304
 0.238  1.007 -0.159 -0.273 -0.325 -0.302 -0.302
 0.240  1.012 -0.154 -0.270 -0.323 -0.301 -0.301
 0.242  1.015 -0.149 -0.267 -0.321 -0.299 -0.299
 0.244  1.020 -0.144 -0.265 -0.319 -0.298 -0.298
 0.246  1.024 -0.140 -0.262 -0.317 -0.296 -0.296
 0.248  1.028 -0.136 -0.259 -0.315 -0.294 -0.294
 0.250  1.032 -0.131 -0.257 -0.313 -0.293 -0.293
 0.252  1.035 -0.127 -0.254 -0.312 -0.292 -0.292
 0.254  1.040 -0.122 -0.252 -0.309 -0.290 -0.290
 0.256  1.043 -0.118 -0.249 -0.307 -0.289 -0.289
 0.258  1.047 -0.114 -0.247 -0.306 -0.288 -0.288
 0.260  1.051 -0.109 -0.245 -0.304 -0.286 -0.286
 0.262  1.055 -0.105 -0.242 -0.301 -0.285 -0.285
 0.264  1.058 -0.102 -0.239 -0.299 -0.284 -0.284
 0.266  1.062 -0.097 -0.237 -0.298 -0.282 -0.282
 0.268  1.066 -0.093 -0.235 -0.296 -0.280 -0.280
 0.270  1.070 -0.089 -0.232 -0.294 -0.279 -0.279
 0.272  1.073 -0.086 -0.230 -0.292 -0.278 -0.278
 0.274  1.077 -0.082 -0.228 -0.290 -0.276 -0.276
 0.276  1.081 -0.077 -0.225 -0.288 -0.274 -0.274
 0.278  1.085 -0.074 -0.223 -0.286 -0.273 -0.273
 0.280  1.088 -0.070 -0.221 -0.284 -0.272 -0.272
 0.282  1.092 -0.066 -0.218 -0.283 -0.270 -0.270
 0.284  1.095 -0.063 -0.216 -0.281 -0.268 -0.268
 0.286  1.100 -0.060 -0.214 -0.279 -0.267 -0.267
 0.288  1.103 -0.056 -0.212 -0.277 -0.265 -0.265
 0.290  1.107 -0.053 -0.209 -0.276 -0.263 -0.263
 0.292  1.110 -0.049 -0.208 -0.273 -0.262 -0.262
 0.294  1.113 -0.045 -0.205 -0.271 -0.261 -0.261
 0.296  1.118 -0.042 -0.203 -0.270 -0.259 -0.259
 0.298  1.121 -0.038 -0.202 -0.268 -0.257 -0.257
 0.300  1.125 -0.036 -0.199 -0.266 -0.255 -0.255
 0.302  1.128 -0.032 -0.197 -0.264 -0.254 -0.254
 0.304  1.132 -0.028 -0.195 -0.263 -0.252 -0.252
 0.306  1.136 -0.025 -0.193 -0.260 -0.251 -0.251
 0.308  1.140 -0.021 -0.190 -0.258 -0.249 -0.249
 0.310  1.143 -0.017 -0.188 -0.257 -0.247 -0.247
 0.312  1.147 -0.015 -0.186 -0.255 -0.246 -0.246
 0.314  1.150 -0.011 -0.184 -0.253 -0.244 -0.244
 0.316  1.154 -0.008 -0.181 -0.251 -0.242 -0.242
 0.318  1.158 -0.004 -0.180 -0.250 -0.241 -0.241
 0.320  1.162 -0.000 -0.177 -0.247 -0.239 -0.239
 0.322  1.165  0.003 -0.175 -0.245 -0.237 -0.237
 0.324  1.169  0.007 -0.173 -0.244 -0.235 -0.235
 0.326  1.172  0.010 -0.171 -0.242 -0.234 -0.234
 0.328  1.176  0.013 -0.168 -0.240 -0.232 -0.232
 0.330  1.180  0.017 -0.167 -0.238 -0.230 -0.230
 0.332  1.184  0.021 -0.164 -0.236 -0.228 -0.228
 0.334  1.187  0.024 -0.161 -0.234 -0.226 -0.226
 0.336  1.191  0.028 -0.160 -0.232 -0.225 -0.225
 0.338  1.194  0.032 -0.157 -0.230 -0.223 -0.223
 0.340  1.198  0.035 -0.155 -0.229 -0.222 -0.222
 0.342  1.201  0.038 -0.152 -0.227 -0.220 -0.220
 0.344  1.204  0.041 -0.150 -0.225 -0.218 -0.218
 0.346  1.208  0.045 -0.148 -0.223 -0.216 -0.216
 0.348  1.213  0.049 -0.145 -0.221 -0.215 -0.215
 0.350  1.216  0.052 -0.144 -0.219 -0.213 -0.213
 0.352  1.219  0.056 -0.141 -0.217 -0.212 -0.212
 0.354  1.223  0.060 -0.138 -0.215 -0.210 -0.210
 0.356  1.225  0.063 -0.136 -0.214 -0.208 -0.208
 0.358  1.229  0.067 -0.134 -0.211 -0.206 -0.206
 0.360  1.232  0.069 -0.131 -0.209 -0.205 -0.205
 0.362  1.236  0.073 -0.129 -0.208 -0.203 -0.203
 0.364  1.239  0.077 -0.127 -0.206 -0.202 -0.202
 0.366  1.242  0.080 -0.124 -0.204 -0.200 -0.200
 0.368  1.246  0.084 -0.122 -0.202 -0.198 -0.198
 0.370  1.249  0.088 -0.120 -0.200 -0.197 -0.197
 0.372  1.252  0.091 -0.117 -0.198 -0.195 -0.195
 0.374  1.255  0.095 -0.115 -0.196 -0.193 -0.193
 0.376  1.259  0.098 -0.112 -0.194 -0.191 -0.191
 0.378  1.262  0.101 -0.110 -0.193 -0.190 -0.190
 0.380  1.264  0.105 -0.108 -0.190 -0.189 -0.189
 0.382  1.268  0.109 -0.105 -0.188 -0.187 -0.187
 0.384  1.271  0.112 -0.103 -0.187 -0.185 -0.185
 0.386  1.274  0.116 -0.101 -0.185 -0.183 -0.183
 0.388  1.277  0.118 -0.098 -0.183 -0.182 -0.182
 0.390  1.281  0.122 -0.096 -0.181 -0.181 -0.181
 0.392  1.283  0.126 -0.094 -0.179 -0.179 -0.179
 0.394  1.286  0.129 -0.091 -0.177 -0.177 -0.177
 0.396  1.289  0.132 -0.089 -0.175 -0.176 -0.176
 0.398  1.292  0.135 -0.087 -0.173 -0.174 -0.174
 0.400  1.294  0.139 -0.084 -0.171 -0.173 -0.173
 0.402  1.298  0.143 -0.082 -0.170 -0.171 -0.171
 0.404  1.300  0.145 -0.080 -0.167 -0.169 -0.169
 0.406  1.304  0.149 -0.077 -0.165 -0.168 -0.168
 0.408  1.306  0.153 -0.075 -0.164 -0.166 -0.166
 0.410  1.309  0.155 -0.073 -0.162 -0.164 -0.164
 0.412  1.312  0.159 -0.071 -0.159 -0.163 -0.163
 0.414  1.315  0.162 -0.068 -0.158 -0.162 -0.162
 0.416  1.317  0.166 -0.066 -0.156 -0.160 -0.160
 0.418  1.320  0.168 -0.064 -0.154 -0.158 -0.158
 0.420  1.323  0.172 -0.061 -0.152 -0.157 -0.157
 0.422  1.325  0.176 -0.060 -0.150 -0.156 -0.156
 0.424  1.328  0.178 -0.057 -0.148 -0.154 -0.154
 0.426  1.331  0.182 -0.054 -0.146 -0.152 -0.152
 0.428  1.334  0.184 -0.053 -0.144 -0.151 -0.151
 0.430  1.336  0.188 -0.050 -0.142 -0.150 -0.150
 0.432  1.338  0.192 -0.048 -0.141 -0.148 -0.148
 0.434  1.340  0.194 -0.046 -0.139 -0.147 -0.147
 0.436  1.344  0.198 -0.043 -0.136 -0.145 -0.145
 0.438  1.346  0.200 -0.041 -0.135 -0.144 -0.144
 0.440  1.348  0.204 -0.039 -0.133 -0.142 -0.142
 0.442  1.351  0.206 -0.037 -0.131 -0.141 -0.141
 0.444  1.353  0.210 -0.034 -0.129 -0.140 -0.140
 0.446  1.355  0.212 -0.032 -0.128 -0.138 -0.138
 0.448  1.358  0.215 -0.031 -0.126 -0.136 -0.136
 0.450  1.360  0.218 -0.028 -0.124 -0.135 -0.135
 0.452  1.362  0.221 -0.026 -0.123 -0.133 -0.133
 0.454  1.365  0.223 -0.025 -0.121 -0.132 -0.132
 0.456  1.368  0.226 -0.022 -0.119 -0.131 -0.131
 0.458  1.369  0.228 -0.020 -0.118 -0.129 -0.129
 0.460  1.372  0.231 -0.018 -0.116 -0.128 -0.128
 0.462  1.374  0.233 -0.017 -0.115 -0.127 -0.127
 0.464  1.376  0.236 -0.014 -0.113 -0.125 -0.125
 0.466  1.378  0.238 -0.012 -0.111 -0.124 -0.124
 0.468  1.381  0.240 -0.011 -0.110 -0.123 -0.123
 0.470  1.383  0.243 -0.009 -0.108 -0.121 -0.121
 0.472  1.385  0.245 -0.007 -0.107 -0.120 -0.120
 0.474  1.388  0.248 -0.005 -0.105 -0.119 -0.119
 0.476  1.390  0.250 -0.004 -0.105 -0.117 -0.117
 0.478  1.391  0.251 -0.002 -0.103 -0.116 -0.116
 0.480  1.393  0.254 -0.000 -0.102 -0.115 -0.115
 0.482  1.396  0.256  0.002 -0.100 -0.113 -0.113
 0.484  1.398  0.258  0.003 -0.099 -0.112 -0.112
 0.486  1.399  0.260  0.004 -0.098 -0.111 -0.111
 0.488  1.401  0.262  0.006 -0.097 -0.110 -0.110
 0.490  1.404  0.264  0.008 -0.095 -0.109 -0.109
 0.492  1.405  0.266  0.010 -0.095 -0.107 -0.107
 0.494  1.407  0.267  0.011 -0.093 -0.106 -0.106
 0.496  1.408  0.269  0.012 -0.092 -0.105 -0.105
 0.498  1.411  0.271  0.014 -0.091 -0.103 -0.103
 0.500  1.412  0.272  0.015 -0.090 -0.102 -0.102
 0.502  1.414  0.273  0.017 -0.089 -0.101 -0.101
 0.504  1.415  0.276  0.018 -0.088 -0.100 -0.100
 0.506  1.418  0.277  0.019 -0.087 -0.098 -0.098
 0.508  1.419  0.278  0.020 -0.086 -0.098 -0.098
 0.510  1.420  0.280  0.022 -0.085 -0.096 -0.096
 0.512  1.422  0.282  0.023 -0.084 -0.095 -0.095
 0.514  1.423  0.283  0.024 -0.083 -0.094 -0.094
 0.516  1.425  0.284  0.025 -0.082 -0.093 -0.093
 0.518  1.427  0.286  0.026 -0.081 -0.092 -0.092
 0.520  1.428  0.287  0.027 -0.080 -0.091 -0.091
 0.522  1.429  0.288  0.028 -0.079 -0.090 -0.090
 0.524  1.430  0.289  0.030 -0.079 -0.089 -0.089
 0.526  1.431  0.291  0.031 -0.078 -0.088 -0.088
 0.528  1.433  0.292  0.032 -0.077 -0.087 -0.087
 0.530  1.434  0.293  0.032 -0.076 -0.086 -0.086
 0.532  1.435  0.294  0.033 -0.075 -0.085 -0.085
 0.534  1.436  0.295  0.034 -0.074 -0.084 -0.084
 0.536  1.437  0.297  0.035 -0.074 -0.083 -0.083
 0.538  1.438  0.298  0.036 -0.073 -0.082 -0.082
 0.540  1.440  0.299  0.037 -0.072 -0.081 -0.081
 0.542  1.441  0.300  0.038 -0.071 -0.080 -0.080
 0.544  1.442  0.300  0.039 -0.070 -0.079 -0.079
 0.546  1.443  0.302  0.039 -0.069 -0.078 -0.078
 0.548  1.444  0.303  0.039 -0.069 -0.077 -0.077
 0.550  1.444  0.304  0.040 -0.068 -0.076 -0.076
 0.552  1.445  0.305  0.040 -0.067 -0.075 -0.075
 0.554  1.446  0.305  0.041 -0.066 -0.074 -0.074
 0.556  1.446  0.306  0.042 -0.066 -0.073 -0.073
 0.558  1.448  0.308  0.042 -0.065 -0.072 -0.072
 0.560  1.449  0.308  0.043 -0.064 -0.072 -0.072
 0.562  1.449  0.309  0.043 -0.064 -0.070 -0.070
 0.564  1.450  0.310  0.044 -0.063 -0.069 -0.069
 0.566  1.450  0.310  0.044 -0.062 -0.068 -0.068
 0.568  1.450  0.311  0.045 -0.061 -0.067 -0.067
 0.570  1.451  0.311  0.045 -0.061 -0.067 -0.067
 0.572  1.451  0.313  0.045 -0.061 -0.066 -0.066
 0.574  1.452  0.313  0.046 -0.060 -0.065 -0.065
 0.576  1.452  0.314  0.046 -0.059 -0.064 -0.064
 0.578  1.452  0.314  0.046 -0.059 -0.063 -0.063
 0.580  1.452  0.315  0.046 -0.058 -0.062 -0.062
 0.582  1.452  0.315  0.046 -0.057 -0.061 -0.061
 0.584  1.452  0.316  0.046 -0.056 -0.061 -0.061
 0.586  1.453  0.316  0.046 -0.056 -0.060 -0.060
 0.588  1.453  0.316  0.046 -0.056 -0.059 -0.059
 0.590  1.453  0.317  0.046 -0.055 -0.058 -0.058
 0.592  1.453  0.317  0.046 -0.054 -0.057 -0.057
 0.594  1.452  0.319  0.046 -0.054 -0.057 -0.057
 0.596  1.452  0.319  0.047 -0.053 -0.056 -0.056
 0.598  1.452  0.319  0.047 -0.052 -0.055 -0.055
 0.600  1.452  0.320  0.047 -0.051 -0.054 -0.054
 0.602  1.452  0.320  0.047 -0.051 -0.053 -0.053
 0.604  1.452  0.320  0.047 -0.051 -0.053 -0.053
 0.606  1.451  0.320  0.048 -0.050 -0.052 -0.052
 0.608  1.451  0.321  0.048 -0.049 -0.051 -0.051
 0.610  1.451  0.321  0.048 -0.048 -0.051 -0.051
 0.612  1.450  0.321  0.048 -0.048 -0.050 -0.050
 0.614  1.450  0.321  0.049 -0.047 -0.049 -0.049
 0.616  1.449  0.322  0.049 -0.046 -0.048 -0.048
 0.618  1.449  0.322  0.049 -0.046 -0.047 -0.047
 0.620  1.448  0.322  0.049 -0.045 -0.047 -0.047
 0.622  1.446  0.322  0.050 -0.044 -0.046 -0.046
 0.624  1.446  0.322  0.050 -0.043 -0.045 -0.045
 0.626  1.445  0.322  0.050 -0.043 -0.045 -0.045
 0.628  1.445  0.324  0.051 -0.042 -0.044 -0.044
 0.630  1.444  0.324  0.051 -0.041 -0.043 -0.043
 0.632  1.444  0.324  0.051 -0.041 -0.042 -0.042
 0.634  1.443  0.324  0.052 -0.040 -0.041 -0.041
 0.636  1.443  0.324  0.052 -0.039 -0.041 -0.041
 0.638  1.442  0.324  0.052 -0.038 -0.040 -0.040
 0.640  1.442  0.324  0.053 -0.038 -0.039 -0.039
 0.642  1.441  0.324  0.053 -0.037 -0.038 -0.038
 0.644  1.441  0.324  0.053 -0.036 -0.037 -0.037
 0.646  1.441  0.324  0.053 -0.035 -0.036 -0.036
 0.648  1.440  0.324  0.053 -0.035 -0.036 -0.036
 0.650  1.440  0.324  0.053 -0.034 -0.035 -0.035
 0.652  1.440  0.324  0.054 -0.033 -0.034 -0.034
 0.654  1.438  0.324  0.054 -0.033 -0.033 -0.033
 0.656  1.438  0.324  0.054 -0.032 -0.032 -0.032
 0.658  1.438  0.322  0.055 -0.032 -0.032 -0.032
 0.660  1.437  0.322  0.055 -0.031 -0.031 -0.031
 0.662  1.437  0.322  0.055 -0.030 -0.030 -0.030
 0.664  1.437  0.322  0.056 -0.030 -0.029 -0.029
 0.666  1.437  0.321  0.056 -0.030 -0.028 -0.028
 0.668  1.437  0.321  0.056 -0.029 -0.028 -0.028
 0.670  1.436  0.321  0.057 -0.028 -0.026 -0.026
 0.672  1.436  0.320  0.057 -0.028 -0.026 -0.026
 0.674  1.436  0.320  0.057 -0.028 -0.025 -0.025
 0.676  1.436  0.319  0.057 -0.028 -0.024 -0.024
 0.678  1.436  0.319  0.057 -0.027 -0.023 -0.023
 0.680  1.436  0.317  0.057 -0.027 -0.022 -0.022
 0.682  1.436  0.317  0.057 -0.026 -0.022 -0.022
 0.684  1.436  0.316  0.058 -0.026 -0.021 -0.021
 0.686  1.436  0.316  0.058 -0.026 -0.020 -0.020
 0.688  1.436  0.315  0.058 -0.025 -0.019 -0.019
 0.690  1.436  0.314  0.058 -0.025 -0.018 -0.018
 0.692  1.436  0.314  0.058 -0.025 -0.017 -0.017
 0.694  1.436  0.313  0.058 -0.025 -0.016 -0.016
 0.696  1.436  0.311  0.058 -0.025 -0.016 -0.016
 0.698  1.436  0.310  0.058 -0.025 -0.014 -0.014
 0.700  1.436  0.309  0.058 -0.025 -0.014 -0.014
 0.702  1.436  0.309  0.058 -0.025 -0.012 -0.012
 0.704  1.436  0.308  0.058 -0.025 -0.012 -0.012
 0.706  1.436  0.306  0.058 -0.025 -0.011 -0.011
 0.708  1.436  0.305  0.057 -0.025 -0.010 -0.010
 0.710  1.437  0.304  0.057 -0.025 -0.009 -0.009
 0.712  1.437  0.303  0.057 -0.025 -0.008 -0.008
 0.714  1.437  0.302  0.057 -0.025 -0.007 -0.007
 0.716  1.437  0.300  0.057 -0.025 -0.006 -0.006
 0.718  1.437  0.299  0.056 -0.025 -0.004 -0.004
 0.720  1.437  0.298  0.056 -0.025 -0.003 -0.003
 0.722  1.437  0.297  0.056 -0.025 -0.002 -0.002
 0.724  1.438  0.295  0.056 -0.025 -0.001 -0.001
 0.726  1.438  0.294  0.055 -0.025 -0.000 -0.000
 0.728  1.438  0.294  0.055 -0.025  0.001  0.001
 0.730  1.438  0.293  0.055 -0.025  0.002  0.002
 0.732  1.440  0.293  0.055 -0.025  0.003  0.003
 0.734  1.440  0.293  0.056 -0.024  0.004  0.004
 0.736  1.440  0.293  0.056 -0.023  0.005  0.005
 0.738  1.441  0.293  0.056 -0.023  0.006  0.006
 0.740  1.441  0.293  0.057 -0.022  0.007  0.007
 0.742  1.441  0.294  0.058 -0.021  0.009  0.009
 0.744  1.442  0.295  0.058 -0.020  0.009  0.009
 0.746  1.442  0.295  0.059 -0.019  0.011  0.011
 0.748  1.442  0.297  0.060 -0.017  0.012  0.012
 0.750  1.443  0.298  0.060 -0.016  0.013  0.013
 0.752  1.443  0.299  0.061 -0.015  0.015  0.015
 0.754  1.443  0.302  0.063 -0.013  0.016  0.016
 0.756  1.443  0.303  0.064 -0.012  0.017  0.017
 0.758  1.444  0.304  0.065 -0.010  0.019  0.019
 0.760  1.444  0.306  0.067 -0.008  0.021  0.021
 0.762  1.445  0.309  0.068 -0.006  0.022  0.022
 0.764  1.445  0.310  0.070 -0.004  0.024  0.024
 0.766  1.446  0.313  0.071 -0.002  0.026  0.026
 0.768  1.446  0.316  0.073  0.001  0.028  0.028
 0.770  1.448  0.319  0.075  0.003  0.030  0.030
 0.772  1.449  0.322  0.077  0.005  0.032  0.032
 0.774  1.450  0.325  0.079  0.008  0.035  0.035
 0.776  1.451  0.328  0.081  0.011  0.038  0.038
 0.778  1.453  0.332  0.084  0.014  0.040  0.040
 0.780  1.454  0.336  0.086  0.016  0.043  0.043
 0.782  1.457  0.341  0.089  0.019  0.046  0.046
 0.784  1.458  0.344  0.091  0.022  0.048  0.048
 0.786  1.460  0.348  0.094  0.026  0.052  0.052
 0.788  1.463  0.353  0.096  0.029  0.054  0.054
 0.790  1.465  0.357  0.100  0.032  0.058  0.058
 0.792  1.467  0.360  0.103  0.035  0.061  0.061
 0.794  1.469  0.365  0.105  0.038  0.065  0.065
 0.796  1.473  0.369  0.108  0.042  0.068  0.068
 0.798  1.475  0.372  0.110  0.045  0.071  0.071
 0.800  1.479  0.376  0.114  0.048  0.075  0.075
 0.802  1.482  0.381  0.117  0.051  0.079  0.079
 0.804  1.484  0.383  0.119  0.054  0.083  0.083
 0.806  1.488  0.387  0.122  0.057  0.087  0.087
 0.808  1.493  0.391  0.124  0.060  0.091  0.091
