# IsPeriodic    : True
# Period        : 0.601655 days
# Normalization : <g_mag>=0
# 
# Phase u_mag  g_mag  r_mag  i_mag  z_mag  y_mag
 0.000  0.514 -0.649 -0.602 -0.524 -0.429 -0.429
 0.002  0.514 -0.649 -0.602 -0.524 -0.429 -0.429
 0.004  0.514 -0.648 -0.602 -0.523 -0.429 -0.429
 0.006  0.515 -0.647 -0.601 -0.523 -0.429 -0.429
 0.008  0.515 -0.645 -0.600 -0.522 -0.428 -0.428
 0.010  0.517 -0.643 -0.599 -0.521 -0.428 -0.428
 0.012  0.518 -0.641 -0.599 -0.519 -0.427 -0.427
 0.014  0.520 -0.638 -0.597 -0.518 -0.427 -0.427
 0.016  0.522 -0.634 -0.596 -0.516 -0.426 -0.426
 0.018  0.524 -0.631 -0.594 -0.514 -0.426 -0.426
 0.020  0.527 -0.627 -0.593 -0.512 -0.425 -0.425
 0.022  0.529 -0.622 -0.590 -0.510 -0.424 -0.424
 0.024  0.531 -0.618 -0.589 -0.508 -0.424 -0.424
 0.026  0.535 -0.614 -0.587 -0.506 -0.423 -0.423
 0.028  0.538 -0.610 -0.584 -0.504 -0.422 -0.422
 0.030  0.540 -0.606 -0.582 -0.502 -0.421 -0.421
 0.032  0.544 -0.602 -0.580 -0.500 -0.421 -0.421
 0.034  0.547 -0.598 -0.578 -0.498 -0.420 -0.420
 0.036  0.551 -0.593 -0.575 -0.496 -0.419 -0.419
 0.038  0.555 -0.589 -0.572 -0.494 -0.418 -0.418
 0.040  0.558 -0.584 -0.570 -0.492 -0.417 -0.417
 0.042  0.563 -0.580 -0.567 -0.490 -0.416 -0.416
 0.044  0.567 -0.575 -0.564 -0.488 -0.415 -0.415
 0.046  0.571 -0.571 -0.560 -0.486 -0.414 -0.414
 0.048  0.576 -0.565 -0.557 -0.484 -0.413 -0.413
 0.050  0.580 -0.560 -0.554 -0.482 -0.412 -0.412
 0.052  0.586 -0.555 -0.551 -0.479 -0.411 -0.411
 0.054  0.591 -0.550 -0.547 -0.477 -0.410 -0.410
 0.056  0.596 -0.545 -0.542 -0.475 -0.408 -0.408
 0.058  0.602 -0.539 -0.539 -0.473 -0.407 -0.407
 0.060  0.607 -0.533 -0.535 -0.470 -0.406 -0.406
 0.062  0.613 -0.527 -0.530 -0.468 -0.405 -0.405
 0.064  0.619 -0.521 -0.526 -0.465 -0.403 -0.403
 0.066  0.625 -0.515 -0.521 -0.463 -0.402 -0.402
 0.068  0.632 -0.509 -0.517 -0.460 -0.400 -0.400
 0.070  0.638 -0.502 -0.512 -0.457 -0.399 -0.399
 0.072  0.644 -0.496 -0.508 -0.455 -0.397 -0.397
 0.074  0.651 -0.490 -0.503 -0.453 -0.396 -0.396
 0.076  0.657 -0.484 -0.498 -0.451 -0.394 -0.394
 0.078  0.665 -0.477 -0.493 -0.448 -0.393 -0.393
 0.080  0.671 -0.470 -0.488 -0.445 -0.391 -0.391
 0.082  0.678 -0.464 -0.484 -0.443 -0.390 -0.390
 0.084  0.684 -0.457 -0.479 -0.440 -0.388 -0.388
 0.086  0.690 -0.451 -0.474 -0.438 -0.387 -0.387
 0.088  0.697 -0.444 -0.470 -0.435 -0.386 -0.386
 0.090  0.703 -0.438 -0.465 -0.433 -0.384 -0.384
 0.092  0.709 -0.432 -0.461 -0.430 -0.383 -0.383
 0.094  0.715 -0.426 -0.456 -0.428 -0.381 -0.381
 0.096  0.720 -0.420 -0.452 -0.425 -0.380 -0.380
 0.098  0.727 -0.413 -0.448 -0.422 -0.378 -0.378
 0.100  0.732 -0.407 -0.444 -0.420 -0.377 -0.377
 0.102  0.737 -0.402 -0.440 -0.418 -0.376 -0.376
 0.104  0.743 -0.396 -0.436 -0.416 -0.375 -0.375
 0.106  0.748 -0.391 -0.432 -0.413 -0.373 -0.373
 0.108  0.753 -0.384 -0.428 -0.411 -0.372 -0.372
 0.110  0.759 -0.379 -0.425 -0.408 -0.371 -0.371
 0.112  0.764 -0.374 -0.421 -0.406 -0.369 -0.369
 0.114  0.768 -0.369 -0.417 -0.404 -0.368 -0.368
 0.116  0.774 -0.364 -0.413 -0.401 -0.367 -0.367
 0.118  0.778 -0.359 -0.410 -0.399 -0.366 -0.366
 0.120  0.783 -0.354 -0.407 -0.397 -0.364 -0.364
 0.122  0.788 -0.349 -0.403 -0.395 -0.364 -0.364
 0.124  0.792 -0.345 -0.400 -0.393 -0.362 -0.362
 0.126  0.797 -0.340 -0.397 -0.390 -0.361 -0.361
 0.128  0.801 -0.336 -0.393 -0.388 -0.360 -0.360
 0.130  0.806 -0.332 -0.390 -0.386 -0.359 -0.359
 0.132  0.809 -0.328 -0.387 -0.384 -0.358 -0.358
 0.134  0.814 -0.323 -0.384 -0.382 -0.356 -0.356
 0.136  0.817 -0.319 -0.382 -0.380 -0.356 -0.356
 0.138  0.822 -0.315 -0.379 -0.378 -0.354 -0.354
 0.140  0.825 -0.311 -0.376 -0.376 -0.353 -0.353
 0.142  0.829 -0.308 -0.374 -0.374 -0.352 -0.352
 0.144  0.832 -0.304 -0.371 -0.372 -0.351 -0.351
 0.146  0.836 -0.301 -0.368 -0.369 -0.350 -0.350
 0.148  0.839 -0.297 -0.365 -0.368 -0.349 -0.349
 0.150  0.843 -0.293 -0.363 -0.366 -0.348 -0.348
 0.152  0.846 -0.290 -0.360 -0.364 -0.347 -0.347
 0.154  0.850 -0.287 -0.358 -0.362 -0.346 -0.346
 0.156  0.854 -0.283 -0.355 -0.361 -0.345 -0.345
 0.158  0.857 -0.280 -0.353 -0.358 -0.344 -0.344
 0.160  0.861 -0.277 -0.350 -0.356 -0.343 -0.343
 0.162  0.863 -0.274 -0.347 -0.354 -0.342 -0.342
 0.164  0.867 -0.271 -0.345 -0.353 -0.341 -0.341
 0.166  0.870 -0.268 -0.343 -0.351 -0.340 -0.340
 0.168  0.874 -0.265 -0.340 -0.350 -0.339 -0.339
 0.170  0.878 -0.260 -0.338 -0.347 -0.338 -0.338
 0.172  0.881 -0.257 -0.335 -0.345 -0.337 -0.337
 0.174  0.885 -0.253 -0.332 -0.344 -0.336 -0.336
 0.176  0.887 -0.250 -0.330 -0.342 -0.335 -0.335
 0.178  0.891 -0.246 -0.328 -0.341 -0.334 -0.334
 0.180  0.894 -0.243 -0.325 -0.339 -0.333 -0.333
 0.182  0.898 -0.239 -0.323 -0.336 -0.332 -0.332
 0.184  0.901 -0.236 -0.320 -0.335 -0.331 -0.331
 0.186  0.905 -0.231 -0.317 -0.333 -0.330 -0.330
 0.188  0.909 -0.227 -0.315 -0.332 -0.329 -0.329
 0.190  0.911 -0.224 -0.313 -0.330 -0.328 -0.328
 0.192  0.915 -0.220 -0.310 -0.328 -0.327 -0.327
 0.194  0.918 -0.216 -0.308 -0.326 -0.326 -0.326
 0.196  0.922 -0.213 -0.305 -0.325 -0.325 -0.325
 0.198  0.925 -0.209 -0.302 -0.323 -0.324 -0.324
 0.200  0.929 -0.205 -0.300 -0.321 -0.323 -0.323
 0.202  0.932 -0.200 -0.298 -0.320 -0.322 -0.322
 0.204  0.935 -0.196 -0.296 -0.318 -0.321 -0.321
 0.206  0.939 -0.193 -0.293 -0.317 -0.320 -0.320
 0.208  0.942 -0.189 -0.290 -0.314 -0.319 -0.319
 0.210  0.945 -0.185 -0.288 -0.313 -0.317 -0.317
 0.212  0.949 -0.180 -0.286 -0.312 -0.317 -0.317
 0.214  0.952 -0.176 -0.283 -0.310 -0.316 -0.316
 0.216  0.956 -0.171 -0.281 -0.308 -0.315 -0.315
 0.218  0.959 -0.167 -0.278 -0.307 -0.314 -0.314
 0.220  0.962 -0.163 -0.276 -0.305 -0.312 -0.312
 0.222  0.965 -0.159 -0.273 -0.303 -0.312 -0.312
 0.224  0.969 -0.154 -0.271 -0.302 -0.311 -0.311
 0.226  0.972 -0.150 -0.269 -0.300 -0.309 -0.309
 0.228  0.975 -0.146 -0.266 -0.299 -0.309 -0.309
 0.230  0.979 -0.141 -0.264 -0.297 -0.307 -0.307
 0.232  0.981 -0.137 -0.262 -0.295 -0.306 -0.306
 0.234  0.985 -0.133 -0.260 -0.294 -0.305 -0.305
 0.236  0.988 -0.129 -0.257 -0.292 -0.304 -0.304
 0.238  0.991 -0.125 -0.254 -0.290 -0.304 -0.304
 0.240  0.994 -0.121 -0.252 -0.289 -0.302 -0.302
 0.242  0.997 -0.117 -0.250 -0.288 -0.301 -0.301
 0.244  1.000 -0.112 -0.248 -0.286 -0.300 -0.300
 0.246  1.003 -0.108 -0.245 -0.284 -0.299 -0.299
 0.248  1.006 -0.104 -0.243 -0.282 -0.298 -0.298
 0.250  1.009 -0.101 -0.241 -0.281 -0.297 -0.297
 0.252  1.012 -0.097 -0.239 -0.279 -0.296 -0.296
 0.254  1.015 -0.093 -0.236 -0.277 -0.295 -0.295
 0.256  1.018 -0.089 -0.235 -0.275 -0.294 -0.294
 0.258  1.020 -0.086 -0.233 -0.273 -0.293 -0.293
 0.260  1.023 -0.081 -0.230 -0.272 -0.292 -0.292
 0.262  1.026 -0.078 -0.228 -0.270 -0.291 -0.291
 0.264  1.029 -0.074 -0.226 -0.268 -0.290 -0.290
 0.266  1.032 -0.071 -0.224 -0.266 -0.289 -0.289
 0.268  1.035 -0.067 -0.221 -0.264 -0.288 -0.288
 0.270  1.037 -0.064 -0.220 -0.262 -0.287 -0.287
 0.272  1.040 -0.061 -0.218 -0.261 -0.286 -0.286
 0.274  1.043 -0.057 -0.215 -0.259 -0.285 -0.285
 0.276  1.045 -0.054 -0.213 -0.257 -0.284 -0.284
 0.278  1.048 -0.050 -0.212 -0.255 -0.283 -0.283
 0.280  1.051 -0.047 -0.209 -0.253 -0.282 -0.282
 0.282  1.053 -0.044 -0.207 -0.251 -0.281 -0.281
 0.284  1.055 -0.040 -0.206 -0.249 -0.279 -0.279
 0.286  1.058 -0.037 -0.203 -0.247 -0.279 -0.279
 0.288  1.060 -0.034 -0.201 -0.245 -0.278 -0.278
 0.290  1.063 -0.031 -0.200 -0.243 -0.276 -0.276
 0.292  1.066 -0.028 -0.197 -0.241 -0.276 -0.276
 0.294  1.068 -0.025 -0.195 -0.239 -0.274 -0.274
 0.296  1.070 -0.022 -0.194 -0.237 -0.274 -0.274
 0.298  1.073 -0.019 -0.191 -0.235 -0.272 -0.272
 0.300  1.075 -0.016 -0.189 -0.233 -0.271 -0.271
 0.302  1.078 -0.013 -0.188 -0.231 -0.270 -0.270
 0.304  1.080 -0.010 -0.185 -0.229 -0.269 -0.269
 0.306  1.083 -0.007 -0.183 -0.226 -0.268 -0.268
 0.308  1.085 -0.004 -0.182 -0.224 -0.267 -0.267
 0.310  1.088 -0.001 -0.179 -0.222 -0.266 -0.266
 0.312  1.090  0.001 -0.177 -0.221 -0.265 -0.265
 0.314  1.092  0.004 -0.175 -0.219 -0.264 -0.264
 0.316  1.095  0.008 -0.173 -0.217 -0.263 -0.263
 0.318  1.098  0.011 -0.171 -0.215 -0.262 -0.262
 0.320  1.099  0.014 -0.169 -0.213 -0.261 -0.261
 0.322  1.102  0.017 -0.166 -0.211 -0.260 -0.260
 0.324  1.105  0.020 -0.164 -0.209 -0.259 -0.259
 0.326  1.106  0.023 -0.163 -0.207 -0.257 -0.257
 0.328  1.109  0.026 -0.160 -0.206 -0.256 -0.256
 0.330  1.112  0.029 -0.158 -0.204 -0.255 -0.255
 0.332  1.114  0.032 -0.156 -0.202 -0.254 -0.254
 0.334  1.116  0.034 -0.154 -0.200 -0.253 -0.253
 0.336  1.119  0.037 -0.152 -0.198 -0.252 -0.252
 0.338  1.122  0.041 -0.150 -0.197 -0.251 -0.251
 0.340  1.123  0.044 -0.148 -0.195 -0.250 -0.250
 0.342  1.126  0.047 -0.145 -0.194 -0.249 -0.249
 0.344  1.128  0.050 -0.143 -0.191 -0.248 -0.248
 0.346  1.130  0.053 -0.141 -0.190 -0.246 -0.246
 0.348  1.133  0.056 -0.139 -0.188 -0.246 -0.246
 0.350  1.135  0.059 -0.136 -0.187 -0.244 -0.244
 0.352  1.138  0.062 -0.134 -0.185 -0.243 -0.243
 0.354  1.140  0.065 -0.132 -0.184 -0.242 -0.242
 0.356  1.142  0.069 -0.130 -0.182 -0.241 -0.241
 0.358  1.145  0.072 -0.128 -0.180 -0.240 -0.240
 0.360  1.146  0.075 -0.126 -0.179 -0.239 -0.239
 0.362  1.149  0.078 -0.124 -0.178 -0.238 -0.238
 0.364  1.152  0.081 -0.121 -0.176 -0.237 -0.237
 0.366  1.154  0.084 -0.119 -0.174 -0.236 -0.236
 0.368  1.156  0.086 -0.117 -0.173 -0.235 -0.235
 0.370  1.158  0.089 -0.115 -0.172 -0.233 -0.233
 0.372  1.161  0.092 -0.112 -0.170 -0.233 -0.233
 0.374  1.162  0.095 -0.110 -0.169 -0.231 -0.231
 0.376  1.165  0.099 -0.109 -0.167 -0.230 -0.230
 0.378  1.167  0.102 -0.106 -0.165 -0.229 -0.229
 0.380  1.169  0.105 -0.104 -0.164 -0.228 -0.228
 0.382  1.171  0.107 -0.102 -0.163 -0.227 -0.227
 0.384  1.174  0.110 -0.100 -0.161 -0.226 -0.226
 0.386  1.176  0.113 -0.098 -0.159 -0.225 -0.225
 0.388  1.178  0.116 -0.096 -0.158 -0.224 -0.224
 0.390  1.180  0.118 -0.094 -0.156 -0.223 -0.223
 0.392  1.183  0.121 -0.092 -0.154 -0.222 -0.222
 0.394  1.185  0.124 -0.090 -0.153 -0.220 -0.220
 0.396  1.187  0.126 -0.088 -0.151 -0.219 -0.219
 0.398  1.189  0.130 -0.086 -0.150 -0.218 -0.218
 0.400  1.192  0.132 -0.084 -0.147 -0.217 -0.217
 0.402  1.193  0.135 -0.082 -0.146 -0.216 -0.216
 0.404  1.196  0.137 -0.080 -0.144 -0.215 -0.215
 0.406  1.198  0.140 -0.078 -0.143 -0.214 -0.214
 0.408  1.200  0.142 -0.076 -0.141 -0.213 -0.213
 0.410  1.202  0.145 -0.074 -0.139 -0.212 -0.212
 0.412  1.204  0.147 -0.073 -0.137 -0.211 -0.211
 0.414  1.206  0.150 -0.070 -0.135 -0.210 -0.210
 0.416  1.209  0.152 -0.069 -0.134 -0.208 -0.208
 0.418  1.210  0.154 -0.067 -0.132 -0.208 -0.208
 0.420  1.213  0.156 -0.065 -0.130 -0.206 -0.206
 0.422  1.215  0.160 -0.063 -0.128 -0.205 -0.205
 0.424  1.217  0.162 -0.061 -0.126 -0.204 -0.204
 0.426  1.219  0.164 -0.060 -0.124 -0.203 -0.203
 0.428  1.221  0.166 -0.058 -0.122 -0.202 -0.202
 0.430  1.223  0.169 -0.056 -0.120 -0.201 -0.201
 0.432  1.225  0.171 -0.055 -0.119 -0.200 -0.200
 0.434  1.227  0.173 -0.052 -0.117 -0.199 -0.199
 0.436  1.229  0.175 -0.051 -0.114 -0.198 -0.198
 0.438  1.231  0.177 -0.049 -0.112 -0.197 -0.197
 0.440  1.232  0.179 -0.047 -0.110 -0.196 -0.196
 0.442  1.235  0.181 -0.046 -0.108 -0.195 -0.195
 0.444  1.237  0.183 -0.044 -0.106 -0.194 -0.194
 0.446  1.239  0.185 -0.042 -0.104 -0.193 -0.193
 0.448  1.240  0.187 -0.040 -0.102 -0.192 -0.192
 0.450  1.242  0.190 -0.039 -0.101 -0.191 -0.191
 0.452  1.244  0.192 -0.037 -0.099 -0.190 -0.190
 0.454  1.246  0.193 -0.036 -0.097 -0.189 -0.189
 0.456  1.248  0.195 -0.034 -0.095 -0.188 -0.188
 0.458  1.249  0.197 -0.032 -0.093 -0.187 -0.187
 0.460  1.251  0.199 -0.031 -0.092 -0.186 -0.186
 0.462  1.253  0.200 -0.029 -0.090 -0.185 -0.185
 0.464  1.255  0.202 -0.028 -0.088 -0.184 -0.184
 0.466  1.256  0.204 -0.026 -0.087 -0.183 -0.183
 0.468  1.258  0.205 -0.024 -0.085 -0.182 -0.182
 0.470  1.260  0.207 -0.022 -0.084 -0.181 -0.181
 0.472  1.262  0.208 -0.021 -0.082 -0.181 -0.181
 0.474  1.264  0.210 -0.019 -0.081 -0.180 -0.180
 0.476  1.265  0.211 -0.018 -0.079 -0.179 -0.179
 0.478  1.266  0.213 -0.016 -0.078 -0.178 -0.178
 0.480  1.268  0.214 -0.015 -0.077 -0.177 -0.177
 0.482  1.270  0.216 -0.013 -0.075 -0.176 -0.176
 0.484  1.272  0.217 -0.012 -0.074 -0.175 -0.175
 0.486  1.272  0.218 -0.010 -0.073 -0.175 -0.175
 0.488  1.274  0.220 -0.009 -0.072 -0.174 -0.174
 0.490  1.276  0.222 -0.007 -0.070 -0.173 -0.173
 0.492  1.277  0.223 -0.006 -0.070 -0.172 -0.172
 0.494  1.279  0.224 -0.004 -0.068 -0.172 -0.172
 0.496  1.280  0.225 -0.003 -0.068 -0.171 -0.171
 0.498  1.281  0.226 -0.001 -0.066 -0.170 -0.170
 0.500  1.283  0.227  0.000 -0.066 -0.169 -0.169
 0.502  1.284  0.228  0.002 -0.065 -0.168 -0.168
 0.504  1.286  0.229  0.003 -0.064 -0.168 -0.168
 0.506  1.287  0.230  0.005 -0.063 -0.167 -0.167
 0.508  1.288  0.231  0.005 -0.062 -0.166 -0.166
 0.510  1.289  0.232  0.007 -0.062 -0.165 -0.165
 0.512  1.291  0.233  0.008 -0.061 -0.165 -0.165
 0.514  1.292  0.234  0.010 -0.060 -0.164 -0.164
 0.516  1.293  0.235  0.011 -0.059 -0.163 -0.163
 0.518  1.294  0.236  0.012 -0.058 -0.162 -0.162
 0.520  1.296  0.236  0.013 -0.057 -0.162 -0.162
 0.522  1.296  0.237  0.014 -0.057 -0.161 -0.161
 0.524  1.297  0.238  0.015 -0.056 -0.160 -0.160
 0.526  1.298  0.239  0.017 -0.055 -0.159 -0.159
 0.528  1.299  0.240  0.017 -0.055 -0.159 -0.159
 0.530  1.300  0.241  0.018 -0.054 -0.158 -0.158
 0.532  1.301  0.241  0.019 -0.053 -0.157 -0.157
 0.534  1.302  0.242  0.020 -0.052 -0.156 -0.156
 0.536  1.303  0.243  0.021 -0.051 -0.156 -0.156
 0.538  1.303  0.244  0.022 -0.051 -0.155 -0.155
 0.540  1.304  0.244  0.023 -0.050 -0.154 -0.154
 0.542  1.305  0.245  0.023 -0.048 -0.153 -0.153
 0.544  1.306  0.246  0.024 -0.048 -0.153 -0.153
 0.546  1.307  0.247  0.025 -0.047 -0.152 -0.152
 0.548  1.308  0.247  0.026 -0.046 -0.151 -0.151
 0.550  1.308  0.248  0.026 -0.045 -0.150 -0.150
 0.552  1.309  0.250  0.026 -0.044 -0.149 -0.149
 0.554  1.310  0.250  0.027 -0.044 -0.148 -0.148
 0.556  1.310  0.251  0.028 -0.042 -0.148 -0.148
 0.558  1.311  0.252  0.028 -0.042 -0.147 -0.147
 0.560  1.311  0.252  0.029 -0.041 -0.146 -0.146
 0.562  1.311  0.253  0.029 -0.040 -0.145 -0.145
 0.564  1.311  0.254  0.029 -0.039 -0.145 -0.145
 0.566  1.312  0.254  0.029 -0.037 -0.144 -0.144
 0.568  1.312  0.255  0.030 -0.037 -0.143 -0.143
 0.570  1.313  0.256  0.030 -0.035 -0.142 -0.142
 0.572  1.313  0.256  0.031 -0.035 -0.141 -0.141
 0.574  1.313  0.257  0.031 -0.033 -0.140 -0.140
 0.576  1.314  0.258  0.031 -0.033 -0.140 -0.140
 0.578  1.314  0.258  0.031 -0.031 -0.139 -0.139
 0.580  1.314  0.259  0.032 -0.031 -0.138 -0.138
 0.582  1.314  0.259  0.032 -0.029 -0.137 -0.137
 0.584  1.315  0.260  0.032 -0.029 -0.137 -0.137
 0.586  1.315  0.260  0.032 -0.027 -0.136 -0.136
 0.588  1.315  0.261  0.032 -0.026 -0.135 -0.135
 0.590  1.315  0.261  0.032 -0.025 -0.134 -0.134
 0.592  1.315  0.262  0.032 -0.024 -0.134 -0.134
 0.594  1.316  0.262  0.033 -0.023 -0.133 -0.133
 0.596  1.316  0.263  0.033 -0.022 -0.132 -0.132
 0.598  1.316  0.263  0.033 -0.021 -0.131 -0.131
 0.600  1.316  0.263  0.034 -0.020 -0.131 -0.131
 0.602  1.316  0.264  0.034 -0.019 -0.130 -0.130
 0.604  1.316  0.264  0.035 -0.018 -0.129 -0.129
 0.606  1.316  0.264  0.035 -0.018 -0.129 -0.129
 0.608  1.316  0.264  0.035 -0.016 -0.128 -0.128
 0.610  1.316  0.265  0.035 -0.015 -0.128 -0.128
 0.612  1.316  0.265  0.035 -0.015 -0.127 -0.127
 0.614  1.316  0.265  0.036 -0.014 -0.126 -0.126
 0.616  1.316  0.265  0.036 -0.013 -0.126 -0.126
 0.618  1.316  0.266  0.036 -0.012 -0.125 -0.125
 0.620  1.316  0.266  0.037 -0.011 -0.125 -0.125
 0.622  1.316  0.266  0.037 -0.011 -0.124 -0.124
 0.624  1.316  0.266  0.038 -0.010 -0.123 -0.123
 0.626  1.315  0.266  0.038 -0.009 -0.123 -0.123
 0.628  1.315  0.266  0.038 -0.009 -0.123 -0.123
 0.630  1.315  0.266  0.038 -0.008 -0.122 -0.122
 0.632  1.315  0.266  0.039 -0.007 -0.122 -0.122
 0.634  1.315  0.266  0.039 -0.007 -0.121 -0.121
 0.636  1.314  0.266  0.040 -0.006 -0.121 -0.121
 0.638  1.314  0.266  0.040 -0.005 -0.121 -0.121
 0.640  1.314  0.266  0.041 -0.004 -0.120 -0.120
 0.642  1.314  0.265  0.041 -0.004 -0.120 -0.120
 0.644  1.313  0.265  0.041 -0.003 -0.119 -0.119
 0.646  1.313  0.265  0.041 -0.002 -0.119 -0.119
 0.648  1.313  0.265  0.042 -0.002 -0.118 -0.118
 0.650  1.312  0.265  0.042 -0.002 -0.118 -0.118
 0.652  1.312  0.265  0.042 -0.001 -0.117 -0.117
 0.654  1.312  0.264  0.043 -0.000 -0.117 -0.117
 0.656  1.312  0.264  0.043  0.000 -0.116 -0.116
 0.658  1.311  0.264  0.043  0.001 -0.116 -0.116
 0.660  1.311  0.264  0.043  0.001 -0.115 -0.115
 0.662  1.311  0.263  0.043  0.002 -0.115 -0.115
 0.664  1.311  0.263  0.043  0.002 -0.114 -0.114
 0.666  1.311  0.263  0.043  0.003 -0.114 -0.114
 0.668  1.311  0.263  0.043  0.004 -0.113 -0.113
 0.670  1.310  0.262  0.043  0.004 -0.112 -0.112
 0.672  1.310  0.262  0.043  0.005 -0.112 -0.112
 0.674  1.310  0.262  0.043  0.006 -0.111 -0.111
 0.676  1.309  0.262  0.042  0.007 -0.110 -0.110
 0.678  1.309  0.261  0.042  0.008 -0.110 -0.110
 0.680  1.309  0.261  0.042  0.009 -0.109 -0.109
 0.682  1.309  0.261  0.041  0.010 -0.108 -0.108
 0.684  1.308  0.261  0.041  0.011 -0.107 -0.107
 0.686  1.308  0.261  0.041  0.012 -0.107 -0.107
 0.688  1.308  0.260  0.040  0.013 -0.106 -0.106
 0.690  1.307  0.260  0.040  0.014 -0.105 -0.105
 0.692  1.307  0.260  0.039  0.015 -0.104 -0.104
 0.694  1.307  0.260  0.038  0.016 -0.103 -0.103
 0.696  1.306  0.260  0.038  0.018 -0.102 -0.102
 0.698  1.306  0.260  0.037  0.019 -0.101 -0.101
 0.700  1.306  0.260  0.036  0.020 -0.100 -0.100
 0.702  1.305  0.260  0.035  0.022 -0.099 -0.099
 0.704  1.305  0.259  0.035  0.022 -0.099 -0.099
 0.706  1.305  0.259  0.034  0.024 -0.097 -0.097
 0.708  1.305  0.259  0.032  0.025 -0.096 -0.096
 0.710  1.304  0.259  0.032  0.027 -0.095 -0.095
 0.712  1.304  0.259  0.031  0.029 -0.094 -0.094
 0.714  1.304  0.258  0.029  0.030 -0.093 -0.093
 0.716  1.303  0.258  0.029  0.031 -0.092 -0.092
 0.718  1.303  0.258  0.028  0.033 -0.091 -0.091
 0.720  1.303  0.258  0.027  0.035 -0.090 -0.090
 0.722  1.303  0.258  0.026  0.036 -0.088 -0.088
 0.724  1.303  0.258  0.025  0.037 -0.088 -0.088
 0.726  1.303  0.258  0.024  0.040 -0.086 -0.086
 0.728  1.303  0.258  0.024  0.042 -0.085 -0.085
 0.730  1.303  0.258  0.023  0.043 -0.083 -0.083
 0.732  1.302  0.259  0.023  0.045 -0.082 -0.082
 0.734  1.302  0.259  0.023  0.047 -0.081 -0.081
 0.736  1.302  0.260  0.023  0.049 -0.079 -0.079
 0.738  1.302  0.261  0.023  0.051 -0.078 -0.078
 0.740  1.301  0.262  0.023  0.053 -0.076 -0.076
 0.742  1.301  0.263  0.023  0.055 -0.074 -0.074
 0.744  1.301  0.265  0.024  0.058 -0.073 -0.073
 0.746  1.301  0.266  0.025  0.060 -0.071 -0.071
 0.748  1.301  0.268  0.026  0.063 -0.070 -0.070
 0.750  1.301  0.270  0.026  0.065 -0.068 -0.068
 0.752  1.300  0.271  0.027  0.068 -0.066 -0.066
 0.754  1.300  0.273  0.028  0.070 -0.065 -0.065
 0.756  1.300  0.276  0.029  0.073 -0.063 -0.063
 0.758  1.300  0.278  0.030  0.076 -0.061 -0.061
 0.760  1.300  0.281  0.032  0.079 -0.059 -0.059
 0.762  1.300  0.284  0.033  0.081 -0.058 -0.058
 0.764  1.300  0.287  0.035  0.084 -0.055 -0.055
 0.766  1.300  0.290  0.036  0.088 -0.053 -0.053
 0.768  1.300  0.293  0.038  0.090 -0.052 -0.052
 0.770  1.300  0.296  0.040  0.094 -0.050 -0.050
 0.772  1.300  0.300  0.042  0.097 -0.047 -0.047
 0.774  1.300  0.303  0.044  0.100 -0.045 -0.045
 0.776  1.299  0.307  0.047  0.103 -0.043 -0.043
 0.778  1.299  0.312  0.050  0.107 -0.041 -0.041
 0.780  1.299  0.316  0.052  0.111 -0.038 -0.038
 0.782  1.299  0.321  0.055  0.114 -0.036 -0.036
 0.784  1.299  0.325  0.058  0.118 -0.033 -0.033
 0.786  1.299  0.329  0.060  0.122 -0.031 -0.031
 0.788  1.299  0.334  0.063  0.125 -0.029 -0.029
 0.790  1.300  0.340  0.066  0.130 -0.027 -0.027
 0.792  1.300  0.344  0.069  0.133 -0.025 -0.025
 0.794  1.301  0.349  0.072  0.137 -0.023 -0.023
 0.796  1.301  0.353  0.075  0.141 -0.021 -0.021
 0.798  1.302  0.358  0.077  0.145 -0.019 -0.019
 0.800  1.303  0.362  0.080  0.148 -0.017 -0.017
 0.802  1.303  0.366  0.083  0.152 -0.016 -0.016
 0.804  1.304  0.371  0.086  0.155 -0.014 -0.014
 0.806  1.305  0.374  0.089  0.157 -0.013 -0.013
 0.808  1.307  0.377  0.092  0.160 -0.012 -0.012
