# IsPeriodic    : True
# Period        : 0.607577 days
# Normalization : <g_mag>=0
# 
# Phase u_mag  g_mag  r_mag  i_mag  z_mag  y_mag
 0.000  0.317 -0.866 -0.688 -0.582 -0.503 -0.503
 0.002  0.317 -0.867 -0.688 -0.582 -0.503 -0.503
 0.004  0.318 -0.866 -0.688 -0.582 -0.502 -0.502
 0.006  0.321 -0.864 -0.688 -0.581 -0.501 -0.501
 0.008  0.324 -0.863 -0.687 -0.580 -0.501 -0.501
 0.010  0.327 -0.860 -0.686 -0.579 -0.499 -0.499
 0.012  0.333 -0.858 -0.685 -0.578 -0.499 -0.499
 0.014  0.338 -0.855 -0.684 -0.576 -0.497 -0.497
 0.016  0.343 -0.852 -0.683 -0.575 -0.496 -0.496
 0.018  0.350 -0.848 -0.681 -0.572 -0.495 -0.495
 0.020  0.356 -0.844 -0.680 -0.571 -0.492 -0.492
 0.022  0.363 -0.840 -0.678 -0.568 -0.491 -0.491
 0.024  0.369 -0.836 -0.676 -0.567 -0.490 -0.490
 0.026  0.375 -0.832 -0.674 -0.564 -0.488 -0.488
 0.028  0.382 -0.828 -0.672 -0.562 -0.486 -0.486
 0.030  0.388 -0.823 -0.669 -0.560 -0.484 -0.484
 0.032  0.395 -0.819 -0.667 -0.557 -0.482 -0.482
 0.034  0.400 -0.813 -0.664 -0.555 -0.480 -0.480
 0.036  0.407 -0.809 -0.661 -0.553 -0.478 -0.478
 0.038  0.412 -0.804 -0.657 -0.550 -0.476 -0.476
 0.040  0.418 -0.798 -0.654 -0.548 -0.474 -0.474
 0.042  0.425 -0.793 -0.650 -0.545 -0.471 -0.471
 0.044  0.430 -0.787 -0.646 -0.542 -0.469 -0.469
 0.046  0.437 -0.781 -0.642 -0.539 -0.467 -0.467
 0.048  0.443 -0.775 -0.639 -0.536 -0.464 -0.464
 0.050  0.450 -0.769 -0.634 -0.533 -0.462 -0.462
 0.052  0.456 -0.762 -0.630 -0.530 -0.460 -0.460
 0.054  0.463 -0.755 -0.625 -0.526 -0.457 -0.457
 0.056  0.469 -0.748 -0.620 -0.523 -0.454 -0.454
 0.058  0.476 -0.740 -0.614 -0.519 -0.451 -0.451
 0.060  0.482 -0.733 -0.609 -0.516 -0.448 -0.448
 0.062  0.489 -0.725 -0.604 -0.512 -0.445 -0.445
 0.064  0.496 -0.717 -0.598 -0.508 -0.442 -0.442
 0.066  0.503 -0.709 -0.593 -0.504 -0.439 -0.439
 0.068  0.509 -0.701 -0.586 -0.500 -0.435 -0.435
 0.070  0.516 -0.693 -0.580 -0.497 -0.432 -0.432
 0.072  0.522 -0.685 -0.574 -0.492 -0.429 -0.429
 0.074  0.530 -0.677 -0.568 -0.488 -0.425 -0.425
 0.076  0.537 -0.667 -0.562 -0.484 -0.422 -0.422
 0.078  0.543 -0.659 -0.556 -0.480 -0.419 -0.419
 0.080  0.550 -0.651 -0.550 -0.475 -0.416 -0.416
 0.082  0.557 -0.642 -0.543 -0.471 -0.412 -0.412
 0.084  0.564 -0.633 -0.537 -0.467 -0.409 -0.409
 0.086  0.570 -0.625 -0.532 -0.463 -0.406 -0.406
 0.088  0.577 -0.617 -0.526 -0.459 -0.402 -0.402
 0.090  0.585 -0.608 -0.521 -0.455 -0.400 -0.400
 0.092  0.591 -0.600 -0.515 -0.452 -0.396 -0.396
 0.094  0.598 -0.592 -0.510 -0.448 -0.393 -0.393
 0.096  0.604 -0.585 -0.504 -0.444 -0.391 -0.391
 0.098  0.611 -0.577 -0.499 -0.440 -0.388 -0.388
 0.100  0.617 -0.569 -0.495 -0.437 -0.385 -0.385
 0.102  0.625 -0.561 -0.490 -0.433 -0.382 -0.382
 0.104  0.631 -0.554 -0.485 -0.429 -0.379 -0.379
 0.106  0.638 -0.546 -0.481 -0.426 -0.377 -0.377
 0.108  0.644 -0.539 -0.476 -0.422 -0.374 -0.374
 0.110  0.651 -0.531 -0.471 -0.419 -0.372 -0.372
 0.112  0.656 -0.524 -0.467 -0.416 -0.369 -0.369
 0.114  0.663 -0.517 -0.462 -0.413 -0.366 -0.366
 0.116  0.669 -0.509 -0.459 -0.410 -0.364 -0.364
 0.118  0.676 -0.502 -0.455 -0.407 -0.361 -0.361
 0.120  0.682 -0.496 -0.451 -0.404 -0.359 -0.359
 0.122  0.687 -0.489 -0.447 -0.401 -0.357 -0.357
 0.124  0.694 -0.482 -0.443 -0.398 -0.355 -0.355
 0.126  0.699 -0.475 -0.439 -0.396 -0.352 -0.352
 0.128  0.705 -0.469 -0.435 -0.392 -0.350 -0.350
 0.130  0.712 -0.463 -0.432 -0.390 -0.348 -0.348
 0.132  0.717 -0.457 -0.428 -0.388 -0.347 -0.347
 0.134  0.724 -0.451 -0.425 -0.385 -0.344 -0.344
 0.136  0.729 -0.444 -0.423 -0.383 -0.342 -0.342
 0.138  0.735 -0.439 -0.420 -0.381 -0.340 -0.340
 0.140  0.741 -0.432 -0.417 -0.378 -0.339 -0.339
 0.142  0.746 -0.427 -0.414 -0.376 -0.337 -0.337
 0.144  0.752 -0.421 -0.411 -0.373 -0.335 -0.335
 0.146  0.757 -0.415 -0.408 -0.372 -0.333 -0.333
 0.148  0.763 -0.409 -0.405 -0.370 -0.331 -0.331
 0.150  0.769 -0.404 -0.402 -0.367 -0.330 -0.330
 0.152  0.774 -0.398 -0.399 -0.365 -0.328 -0.328
 0.154  0.780 -0.393 -0.396 -0.363 -0.326 -0.326
 0.156  0.785 -0.388 -0.393 -0.361 -0.324 -0.324
 0.158  0.790 -0.381 -0.390 -0.359 -0.323 -0.323
 0.160  0.795 -0.375 -0.388 -0.357 -0.321 -0.321
 0.162  0.800 -0.370 -0.385 -0.355 -0.319 -0.319
 0.164  0.806 -0.365 -0.382 -0.353 -0.317 -0.317
 0.166  0.811 -0.359 -0.379 -0.351 -0.316 -0.316
 0.168  0.816 -0.354 -0.376 -0.349 -0.314 -0.314
 0.170  0.821 -0.348 -0.372 -0.347 -0.312 -0.312
 0.172  0.826 -0.343 -0.369 -0.344 -0.310 -0.310
 0.174  0.832 -0.338 -0.366 -0.342 -0.308 -0.308
 0.176  0.837 -0.332 -0.363 -0.340 -0.306 -0.306
 0.178  0.842 -0.327 -0.359 -0.338 -0.305 -0.305
 0.180  0.847 -0.321 -0.356 -0.336 -0.303 -0.303
 0.182  0.852 -0.316 -0.353 -0.333 -0.300 -0.300
 0.184  0.857 -0.311 -0.350 -0.332 -0.298 -0.298
 0.186  0.863 -0.305 -0.347 -0.329 -0.297 -0.297
 0.188  0.868 -0.300 -0.343 -0.327 -0.295 -0.295
 0.190  0.873 -0.294 -0.340 -0.325 -0.293 -0.293
 0.192  0.878 -0.289 -0.336 -0.323 -0.291 -0.291
 0.194  0.883 -0.284 -0.333 -0.321 -0.289 -0.289
 0.196  0.887 -0.278 -0.329 -0.318 -0.287 -0.287
 0.198  0.893 -0.273 -0.325 -0.316 -0.285 -0.285
 0.200  0.898 -0.267 -0.322 -0.314 -0.283 -0.283
 0.202  0.903 -0.262 -0.318 -0.312 -0.281 -0.281
 0.204  0.908 -0.257 -0.315 -0.310 -0.279 -0.279
 0.206  0.912 -0.251 -0.312 -0.307 -0.277 -0.277
 0.208  0.917 -0.246 -0.308 -0.305 -0.275 -0.275
 0.210  0.922 -0.240 -0.304 -0.303 -0.273 -0.273
 0.212  0.928 -0.235 -0.300 -0.301 -0.270 -0.270
 0.214  0.932 -0.230 -0.296 -0.299 -0.268 -0.268
 0.216  0.937 -0.224 -0.293 -0.296 -0.266 -0.266
 0.218  0.942 -0.220 -0.289 -0.294 -0.264 -0.264
 0.220  0.946 -0.215 -0.285 -0.291 -0.262 -0.262
 0.222  0.951 -0.209 -0.282 -0.289 -0.260 -0.260
 0.224  0.956 -0.204 -0.278 -0.287 -0.258 -0.258
 0.226  0.960 -0.199 -0.275 -0.285 -0.256 -0.256
 0.228  0.965 -0.193 -0.271 -0.283 -0.254 -0.254
 0.230  0.969 -0.189 -0.268 -0.280 -0.252 -0.252
 0.232  0.974 -0.184 -0.264 -0.278 -0.250 -0.250
 0.234  0.978 -0.178 -0.261 -0.276 -0.247 -0.247
 0.236  0.984 -0.174 -0.257 -0.274 -0.245 -0.245
 0.238  0.987 -0.169 -0.254 -0.272 -0.243 -0.243
 0.240  0.993 -0.165 -0.250 -0.269 -0.242 -0.242
 0.242  0.997 -0.159 -0.247 -0.267 -0.240 -0.240
 0.244  1.000 -0.155 -0.245 -0.265 -0.238 -0.238
 0.246  1.006 -0.150 -0.242 -0.263 -0.236 -0.236
 0.248  1.010 -0.146 -0.239 -0.261 -0.233 -0.233
 0.250  1.013 -0.140 -0.235 -0.258 -0.232 -0.232
 0.252  1.019 -0.136 -0.232 -0.257 -0.230 -0.230
 0.254  1.022 -0.132 -0.229 -0.254 -0.228 -0.228
 0.256  1.026 -0.127 -0.226 -0.252 -0.226 -0.226
 0.258  1.030 -0.123 -0.223 -0.250 -0.224 -0.224
 0.260  1.035 -0.119 -0.220 -0.248 -0.222 -0.222
 0.262  1.039 -0.115 -0.217 -0.246 -0.220 -0.220
 0.264  1.043 -0.111 -0.215 -0.243 -0.219 -0.219
 0.266  1.047 -0.107 -0.212 -0.242 -0.217 -0.217
 0.268  1.051 -0.103 -0.210 -0.239 -0.215 -0.215
 0.270  1.055 -0.099 -0.207 -0.238 -0.213 -0.213
 0.272  1.059 -0.095 -0.205 -0.235 -0.211 -0.211
 0.274  1.063 -0.090 -0.202 -0.233 -0.209 -0.209
 0.276  1.067 -0.086 -0.200 -0.231 -0.208 -0.208
 0.278  1.071 -0.082 -0.197 -0.229 -0.206 -0.206
 0.280  1.074 -0.078 -0.195 -0.227 -0.204 -0.204
 0.282  1.078 -0.074 -0.192 -0.225 -0.202 -0.202
 0.284  1.082 -0.070 -0.190 -0.223 -0.201 -0.201
 0.286  1.085 -0.068 -0.187 -0.221 -0.199 -0.199
 0.288  1.089 -0.063 -0.185 -0.219 -0.197 -0.197
 0.290  1.093 -0.059 -0.183 -0.217 -0.195 -0.195
 0.292  1.097 -0.057 -0.180 -0.215 -0.194 -0.194
 0.294  1.099 -0.053 -0.178 -0.213 -0.192 -0.192
 0.296  1.103 -0.049 -0.175 -0.211 -0.190 -0.190
 0.298  1.107 -0.045 -0.174 -0.209 -0.189 -0.189
 0.300  1.110 -0.042 -0.172 -0.207 -0.187 -0.187
 0.302  1.113 -0.038 -0.169 -0.205 -0.185 -0.185
 0.304  1.117 -0.034 -0.167 -0.203 -0.183 -0.183
 0.306  1.120 -0.031 -0.164 -0.201 -0.182 -0.182
 0.308  1.124 -0.027 -0.162 -0.198 -0.180 -0.180
 0.310  1.128 -0.023 -0.159 -0.197 -0.178 -0.178
 0.312  1.132 -0.019 -0.157 -0.194 -0.177 -0.177
 0.314  1.134 -0.015 -0.154 -0.193 -0.175 -0.175
 0.316  1.138 -0.012 -0.151 -0.190 -0.173 -0.173
 0.318  1.142 -0.008 -0.149 -0.189 -0.172 -0.172
 0.320  1.145 -0.004 -0.146 -0.187 -0.170 -0.170
 0.322  1.149  0.000 -0.143 -0.184 -0.169 -0.169
 0.324  1.152  0.004 -0.141 -0.183 -0.167 -0.167
 0.326  1.156  0.008 -0.139 -0.180 -0.165 -0.165
 0.328  1.160  0.012 -0.136 -0.179 -0.164 -0.164
 0.330  1.163  0.016 -0.134 -0.176 -0.162 -0.162
 0.332  1.167  0.020 -0.131 -0.174 -0.160 -0.160
 0.334  1.171  0.024 -0.128 -0.172 -0.159 -0.159
 0.336  1.175  0.028 -0.125 -0.170 -0.157 -0.157
 0.338  1.177  0.032 -0.123 -0.168 -0.156 -0.156
 0.340  1.181  0.037 -0.120 -0.166 -0.154 -0.154
 0.342  1.185  0.041 -0.117 -0.164 -0.152 -0.152
 0.344  1.189  0.045 -0.114 -0.162 -0.151 -0.151
 0.346  1.193  0.049 -0.111 -0.160 -0.150 -0.150
 0.348  1.197  0.053 -0.108 -0.157 -0.148 -0.148
 0.350  1.200  0.057 -0.105 -0.156 -0.146 -0.146
 0.352  1.203  0.061 -0.103 -0.153 -0.145 -0.145
 0.354  1.207  0.065 -0.101 -0.151 -0.143 -0.143
 0.356  1.211  0.069 -0.098 -0.149 -0.141 -0.141
 0.358  1.215  0.073 -0.095 -0.147 -0.140 -0.140
 0.360  1.219  0.078 -0.092 -0.145 -0.139 -0.139
 0.362  1.223  0.082 -0.089 -0.143 -0.137 -0.137
 0.364  1.226  0.086 -0.086 -0.141 -0.136 -0.136
 0.366  1.230  0.091 -0.083 -0.139 -0.134 -0.134
 0.368  1.234  0.095 -0.080 -0.137 -0.132 -0.132
 0.370  1.238  0.099 -0.077 -0.134 -0.131 -0.131
 0.372  1.242  0.103 -0.074 -0.133 -0.129 -0.129
 0.374  1.245  0.107 -0.071 -0.131 -0.127 -0.127
 0.376  1.249  0.111 -0.068 -0.128 -0.126 -0.126
 0.378  1.252  0.115 -0.067 -0.127 -0.125 -0.125
 0.380  1.256  0.119 -0.064 -0.124 -0.122 -0.122
 0.382  1.260  0.123 -0.061 -0.122 -0.121 -0.121
 0.384  1.264  0.127 -0.058 -0.120 -0.120 -0.120
 0.386  1.267  0.130 -0.056 -0.118 -0.118 -0.118
 0.388  1.271  0.134 -0.053 -0.116 -0.116 -0.116
 0.390  1.275  0.138 -0.050 -0.114 -0.114 -0.114
 0.392  1.278  0.142 -0.047 -0.112 -0.113 -0.113
 0.394  1.281  0.146 -0.045 -0.109 -0.111 -0.111
 0.396  1.285  0.149 -0.042 -0.108 -0.109 -0.109
 0.398  1.288  0.153 -0.039 -0.105 -0.108 -0.108
 0.400  1.291  0.157 -0.037 -0.103 -0.106 -0.106
 0.402  1.295  0.159 -0.034 -0.101 -0.104 -0.104
 0.404  1.298  0.163 -0.032 -0.099 -0.102 -0.102
 0.406  1.302  0.166 -0.030 -0.097 -0.101 -0.101
 0.408  1.304  0.170 -0.027 -0.095 -0.099 -0.099
 0.410  1.308  0.173 -0.024 -0.093 -0.097 -0.097
 0.412  1.311  0.177 -0.022 -0.090 -0.095 -0.095
 0.414  1.315  0.180 -0.019 -0.089 -0.094 -0.094
 0.416  1.317  0.184 -0.017 -0.086 -0.092 -0.092
 0.418  1.320  0.186 -0.014 -0.084 -0.090 -0.090
 0.420  1.324  0.189 -0.012 -0.082 -0.088 -0.088
 0.422  1.327  0.193 -0.009 -0.080 -0.086 -0.086
 0.424  1.329  0.196 -0.007 -0.078 -0.085 -0.085
 0.426  1.333  0.199 -0.004 -0.076 -0.083 -0.083
 0.428  1.336  0.201 -0.002 -0.074 -0.081 -0.081
 0.430  1.338  0.205  0.001 -0.071 -0.079 -0.079
 0.432  1.341  0.208  0.003 -0.070 -0.077 -0.077
 0.434  1.345  0.211  0.004 -0.067 -0.075 -0.075
 0.436  1.347  0.213  0.007 -0.065 -0.074 -0.074
 0.438  1.350  0.216  0.009 -0.063 -0.072 -0.072
 0.440  1.352  0.219  0.011 -0.061 -0.070 -0.070
 0.442  1.355  0.222  0.013 -0.060 -0.068 -0.068
 0.444  1.358  0.224  0.016 -0.057 -0.066 -0.066
 0.446  1.360  0.227  0.018 -0.056 -0.065 -0.065
 0.448  1.363  0.230  0.020 -0.053 -0.062 -0.062
 0.450  1.365  0.232  0.022 -0.052 -0.061 -0.061
 0.452  1.368  0.235  0.024 -0.050 -0.060 -0.060
 0.454  1.371  0.238  0.026 -0.048 -0.058 -0.058
 0.456  1.373  0.240  0.028 -0.046 -0.056 -0.056
 0.458  1.376  0.243  0.030 -0.045 -0.054 -0.054
 0.460  1.378  0.246  0.032 -0.043 -0.053 -0.053
 0.462  1.380  0.249  0.034 -0.041 -0.051 -0.051
 0.464  1.382  0.250  0.036 -0.039 -0.050 -0.050
 0.466  1.385  0.253  0.038 -0.037 -0.048 -0.048
 0.468  1.388  0.255  0.040 -0.036 -0.046 -0.046
 0.470  1.389  0.257  0.040 -0.034 -0.045 -0.045
 0.472  1.391  0.259  0.042 -0.033 -0.044 -0.044
 0.474  1.394  0.262  0.044 -0.031 -0.042 -0.042
 0.476  1.395  0.263  0.046 -0.030 -0.041 -0.041
 0.478  1.398  0.266  0.047 -0.029 -0.039 -0.039
 0.480  1.399  0.269  0.049 -0.027 -0.037 -0.037
 0.482  1.402  0.270  0.051 -0.026 -0.036 -0.036
 0.484  1.403  0.273  0.052 -0.024 -0.035 -0.035
 0.486  1.406  0.274  0.054 -0.023 -0.033 -0.033
 0.488  1.407  0.277  0.055 -0.022 -0.032 -0.032
 0.490  1.410  0.278  0.057 -0.020 -0.030 -0.030
 0.492  1.411  0.281  0.058 -0.019 -0.030 -0.030
 0.494  1.412  0.282  0.059 -0.018 -0.028 -0.028
 0.496  1.415  0.284  0.061 -0.017 -0.027 -0.027
 0.498  1.416  0.286  0.062 -0.015 -0.025 -0.025
 0.500  1.417  0.288  0.063 -0.015 -0.024 -0.024
 0.502  1.420  0.289  0.065 -0.013 -0.023 -0.023
 0.504  1.421  0.292  0.066 -0.012 -0.022 -0.022
 0.506  1.423  0.293  0.067 -0.011 -0.021 -0.021
 0.508  1.424  0.295  0.069 -0.010 -0.019 -0.019
 0.510  1.425  0.296  0.070 -0.009 -0.018 -0.018
 0.512  1.427  0.297  0.071 -0.007 -0.017 -0.017
 0.514  1.428  0.300  0.072 -0.007 -0.016 -0.016
 0.516  1.429  0.301  0.074 -0.006 -0.014 -0.014
 0.518  1.430  0.303  0.075 -0.004 -0.014 -0.014
 0.520  1.432  0.304  0.075 -0.004 -0.012 -0.012
 0.522  1.433  0.305  0.076 -0.003 -0.011 -0.011
 0.524  1.434  0.307  0.077 -0.002 -0.010 -0.010
 0.526  1.436  0.308  0.079 -0.001 -0.009 -0.009
 0.528  1.437  0.309  0.080  0.000 -0.008 -0.008
 0.530  1.438  0.309  0.081  0.001 -0.007 -0.007
 0.532  1.440  0.311  0.082  0.002 -0.005 -0.005
 0.534  1.441  0.312  0.083  0.003 -0.005 -0.005
 0.536  1.442  0.313  0.084  0.004 -0.003 -0.003
 0.538  1.442  0.315  0.086  0.004 -0.002 -0.002
 0.540  1.443  0.315  0.087  0.006 -0.001 -0.001
 0.542  1.445  0.316  0.088  0.007 -0.000 -0.000
 0.544  1.446  0.317  0.089  0.008  0.001  0.001
 0.546  1.446  0.317  0.090  0.008  0.002  0.002
 0.548  1.447  0.319  0.091  0.009  0.002  0.002
 0.550  1.449  0.319  0.092  0.010  0.004  0.004
 0.552  1.449  0.320  0.094  0.011  0.005  0.005
 0.554  1.450  0.320  0.095  0.011  0.006  0.006
 0.556  1.451  0.322  0.096  0.012  0.007  0.007
 0.558  1.451  0.322  0.097  0.013  0.007  0.007
 0.560  1.453  0.323  0.098  0.014  0.009  0.009
 0.562  1.453  0.323  0.099  0.015  0.009  0.009
 0.564  1.454  0.323  0.100  0.015  0.010  0.010
 0.566  1.454  0.324  0.101  0.016  0.012  0.012
 0.568  1.455  0.324  0.102  0.017  0.012  0.012
 0.570  1.455  0.324  0.103  0.017  0.013  0.013
 0.572  1.456  0.324  0.104  0.018  0.014  0.014
 0.574  1.456  0.324  0.105  0.019  0.015  0.015
 0.576  1.456  0.326  0.106  0.019  0.016  0.016
 0.578  1.458  0.326  0.107  0.020  0.016  0.016
 0.580  1.458  0.326  0.108  0.021  0.017  0.017
 0.582  1.458  0.326  0.109  0.022  0.019  0.019
 0.584  1.459  0.326  0.110  0.023  0.019  0.019
 0.586  1.459  0.326  0.111  0.023  0.020  0.020
 0.588  1.459  0.326  0.111  0.023  0.021  0.021
 0.590  1.459  0.327  0.112  0.024  0.022  0.022
 0.592  1.460  0.327  0.112  0.025  0.023  0.023
 0.594  1.460  0.327  0.113  0.026  0.023  0.023
 0.596  1.460  0.327  0.114  0.026  0.024  0.024
 0.598  1.460  0.327  0.115  0.027  0.025  0.025
 0.600  1.460  0.327  0.115  0.028  0.026  0.026
 0.602  1.462  0.328  0.116  0.029  0.027  0.027
 0.604  1.462  0.328  0.117  0.029  0.028  0.028
 0.606  1.462  0.328  0.117  0.030  0.028  0.028
 0.608  1.462  0.328  0.118  0.030  0.029  0.029
 0.610  1.462  0.330  0.119  0.031  0.030  0.030
 0.612  1.462  0.330  0.119  0.032  0.030  0.030
 0.614  1.462  0.330  0.120  0.033  0.032  0.032
 0.616  1.462  0.330  0.120  0.034  0.032  0.032
 0.618  1.462  0.331  0.121  0.034  0.033  0.033
 0.620  1.463  0.331  0.121  0.035  0.034  0.034
 0.622  1.463  0.331  0.122  0.036  0.035  0.035
 0.624  1.463  0.332  0.122  0.037  0.035  0.035
 0.626  1.463  0.332  0.123  0.037  0.036  0.036
 0.628  1.463  0.332  0.123  0.038  0.037  0.037
 0.630  1.463  0.334  0.123  0.039  0.038  0.038
 0.632  1.462  0.334  0.124  0.040  0.039  0.039
 0.634  1.462  0.334  0.124  0.041  0.039  0.039
 0.636  1.462  0.335  0.124  0.041  0.040  0.040
 0.638  1.462  0.335  0.125  0.042  0.041  0.041
 0.640  1.462  0.335  0.125  0.043  0.042  0.042
 0.642  1.462  0.336  0.125  0.044  0.042  0.042
 0.644  1.462  0.336  0.126  0.045  0.043  0.043
 0.646  1.462  0.336  0.126  0.045  0.044  0.044
 0.648  1.462  0.338  0.126  0.046  0.044  0.044
 0.650  1.460  0.338  0.126  0.047  0.046  0.046
 0.652  1.460  0.338  0.126  0.048  0.046  0.046
 0.654  1.460  0.339  0.126  0.049  0.047  0.047
 0.656  1.460  0.339  0.126  0.049  0.047  0.047
 0.658  1.460  0.339  0.126  0.049  0.048  0.048
 0.660  1.459  0.339  0.126  0.050  0.049  0.049
 0.662  1.459  0.339  0.126  0.051  0.049  0.049
 0.664  1.459  0.340  0.126  0.052  0.050  0.050
 0.666  1.459  0.340  0.126  0.052  0.051  0.051
 0.668  1.458  0.340  0.126  0.052  0.051  0.051
 0.670  1.458  0.340  0.126  0.053  0.052  0.052
 0.672  1.456  0.340  0.126  0.053  0.053  0.053
 0.674  1.456  0.339  0.126  0.054  0.053  0.053
 0.676  1.455  0.339  0.126  0.054  0.053  0.053
 0.678  1.455  0.339  0.125  0.055  0.054  0.054
 0.680  1.454  0.339  0.125  0.055  0.055  0.055
 0.682  1.454  0.339  0.125  0.056  0.055  0.055
 0.684  1.453  0.338  0.125  0.056  0.056  0.056
 0.686  1.451  0.338  0.124  0.056  0.056  0.056
 0.688  1.451  0.336  0.124  0.056  0.056  0.056
 0.690  1.450  0.336  0.124  0.056  0.057  0.057
 0.692  1.449  0.336  0.123  0.056  0.057  0.057
 0.694  1.449  0.335  0.123  0.056  0.058  0.058
 0.696  1.447  0.335  0.122  0.057  0.058  0.058
 0.698  1.446  0.334  0.122  0.057  0.058  0.058
 0.700  1.446  0.332  0.121  0.057  0.059  0.059
 0.702  1.445  0.332  0.121  0.057  0.059  0.059
 0.704  1.443  0.331  0.120  0.057  0.059  0.059
 0.706  1.442  0.330  0.120  0.057  0.060  0.060
 0.708  1.441  0.330  0.119  0.057  0.060  0.060
 0.710  1.440  0.328  0.118  0.057  0.060  0.060
 0.712  1.438  0.327  0.118  0.056  0.060  0.060
 0.714  1.437  0.326  0.117  0.056  0.061  0.061
 0.716  1.436  0.324  0.117  0.056  0.061  0.061
 0.718  1.433  0.323  0.116  0.056  0.061  0.061
 0.720  1.432  0.322  0.116  0.056  0.062  0.062
 0.722  1.430  0.320  0.116  0.056  0.062  0.062
 0.724  1.429  0.320  0.115  0.056  0.062  0.062
 0.726  1.428  0.319  0.115  0.056  0.063  0.063
 0.728  1.427  0.317  0.116  0.056  0.064  0.064
 0.730  1.425  0.317  0.116  0.056  0.065  0.065
 0.732  1.425  0.317  0.116  0.057  0.065  0.065
 0.734  1.424  0.317  0.117  0.058  0.067  0.067
 0.736  1.424  0.317  0.118  0.059  0.067  0.067
 0.738  1.424  0.317  0.118  0.060  0.069  0.069
 0.740  1.424  0.317  0.120  0.060  0.069  0.069
 0.742  1.425  0.317  0.121  0.061  0.071  0.071
 0.744  1.425  0.319  0.122  0.063  0.072  0.072
 0.746  1.427  0.319  0.124  0.064  0.074  0.074
 0.748  1.428  0.320  0.125  0.065  0.076  0.076
 0.750  1.429  0.322  0.127  0.067  0.077  0.077
 0.752  1.432  0.323  0.129  0.068  0.079  0.079
 0.754  1.433  0.324  0.131  0.070  0.081  0.081
 0.756  1.436  0.326  0.133  0.071  0.083  0.083
 0.758  1.438  0.327  0.135  0.074  0.085  0.085
 0.760  1.442  0.328  0.137  0.075  0.087  0.087
 0.762  1.445  0.331  0.140  0.078  0.089  0.089
 0.764  1.449  0.332  0.142  0.079  0.091  0.091
 0.766  1.453  0.335  0.145  0.082  0.093  0.093
 0.768  1.456  0.338  0.147  0.085  0.096  0.096
 0.770  1.462  0.340  0.150  0.087  0.098  0.098
 0.772  1.467  0.343  0.153  0.090  0.101  0.101
 0.774  1.471  0.346  0.157  0.093  0.104  0.104
 0.776  1.477  0.349  0.161  0.096  0.106  0.106
 0.778  1.482  0.353  0.164  0.099  0.109  0.109
 0.780  1.489  0.355  0.168  0.102  0.113  0.113
 0.782  1.494  0.359  0.172  0.105  0.116  0.116
 0.784  1.501  0.363  0.176  0.108  0.119  0.119
 0.786  1.508  0.367  0.180  0.112  0.122  0.122
 0.788  1.515  0.371  0.183  0.116  0.125  0.125
 0.790  1.523  0.374  0.187  0.120  0.128  0.128
 0.792  1.529  0.378  0.191  0.123  0.131  0.131
 0.794  1.537  0.382  0.195  0.126  0.134  0.134
 0.796  1.545  0.386  0.199  0.130  0.137  0.137
 0.798  1.554  0.390  0.203  0.133  0.140  0.140
 0.800  1.560  0.394  0.207  0.137  0.143  0.143
 0.802  1.568  0.399  0.211  0.140  0.146  0.146
 0.804  1.576  0.403  0.214  0.143  0.149  0.149
 0.806  1.582  0.405  0.218  0.146  0.152  0.152
 0.808  1.589  0.409  0.220  0.150  0.154  0.154
