# IsPeriodic    : True
# Period        : 0.627758 days
# Normalization : <g_mag>=0
# 
# Phase u_mag  g_mag  r_mag  i_mag  z_mag  y_mag
 0.000  0.650 -0.587 -0.588 -0.526 -0.485 -0.485
 0.002  0.650 -0.586 -0.588 -0.526 -0.485 -0.485
 0.004  0.651 -0.585 -0.588 -0.526 -0.485 -0.485
 0.006  0.652 -0.584 -0.586 -0.526 -0.484 -0.484
 0.008  0.654 -0.582 -0.586 -0.525 -0.484 -0.484
 0.010  0.654 -0.580 -0.584 -0.524 -0.483 -0.483
 0.012  0.657 -0.578 -0.583 -0.524 -0.482 -0.482
 0.014  0.659 -0.575 -0.581 -0.523 -0.481 -0.481
 0.016  0.661 -0.572 -0.579 -0.522 -0.480 -0.480
 0.018  0.664 -0.569 -0.577 -0.520 -0.479 -0.479
 0.020  0.666 -0.566 -0.575 -0.519 -0.478 -0.478
 0.022  0.669 -0.562 -0.573 -0.518 -0.476 -0.476
 0.024  0.671 -0.558 -0.571 -0.516 -0.475 -0.475
 0.026  0.675 -0.555 -0.569 -0.515 -0.473 -0.473
 0.028  0.677 -0.551 -0.567 -0.514 -0.472 -0.472
 0.030  0.680 -0.547 -0.565 -0.512 -0.470 -0.470
 0.032  0.683 -0.544 -0.563 -0.510 -0.469 -0.469
 0.034  0.686 -0.541 -0.561 -0.509 -0.468 -0.468
 0.036  0.688 -0.537 -0.559 -0.507 -0.466 -0.466
 0.038  0.692 -0.534 -0.557 -0.506 -0.465 -0.465
 0.040  0.695 -0.530 -0.555 -0.504 -0.463 -0.463
 0.042  0.698 -0.526 -0.553 -0.503 -0.461 -0.461
 0.044  0.701 -0.523 -0.550 -0.501 -0.460 -0.460
 0.046  0.704 -0.519 -0.548 -0.499 -0.458 -0.458
 0.048  0.708 -0.514 -0.545 -0.498 -0.457 -0.457
 0.050  0.711 -0.511 -0.543 -0.496 -0.456 -0.456
 0.052  0.715 -0.507 -0.541 -0.494 -0.454 -0.454
 0.054  0.719 -0.503 -0.538 -0.493 -0.453 -0.453
 0.056  0.722 -0.498 -0.536 -0.490 -0.451 -0.451
 0.058  0.726 -0.494 -0.533 -0.489 -0.450 -0.450
 0.060  0.730 -0.489 -0.530 -0.487 -0.448 -0.448
 0.062  0.734 -0.485 -0.527 -0.485 -0.447 -0.447
 0.064  0.738 -0.480 -0.524 -0.483 -0.446 -0.446
 0.066  0.743 -0.475 -0.522 -0.482 -0.444 -0.444
 0.068  0.747 -0.471 -0.519 -0.479 -0.443 -0.443
 0.070  0.751 -0.466 -0.515 -0.477 -0.442 -0.442
 0.072  0.756 -0.461 -0.513 -0.475 -0.441 -0.441
 0.074  0.760 -0.457 -0.509 -0.474 -0.439 -0.439
 0.076  0.765 -0.451 -0.507 -0.472 -0.438 -0.438
 0.078  0.770 -0.446 -0.504 -0.469 -0.436 -0.436
 0.080  0.774 -0.441 -0.500 -0.467 -0.435 -0.435
 0.082  0.778 -0.436 -0.498 -0.465 -0.434 -0.434
 0.084  0.783 -0.431 -0.494 -0.463 -0.432 -0.432
 0.086  0.787 -0.427 -0.492 -0.461 -0.431 -0.431
 0.088  0.792 -0.422 -0.488 -0.459 -0.430 -0.430
 0.090  0.797 -0.417 -0.486 -0.457 -0.429 -0.429
 0.092  0.801 -0.412 -0.482 -0.454 -0.427 -0.427
 0.094  0.805 -0.406 -0.479 -0.452 -0.426 -0.426
 0.096  0.810 -0.402 -0.477 -0.450 -0.425 -0.425
 0.098  0.815 -0.397 -0.473 -0.448 -0.423 -0.423
 0.100  0.819 -0.392 -0.471 -0.446 -0.422 -0.422
 0.102  0.823 -0.387 -0.468 -0.444 -0.421 -0.421
 0.104  0.827 -0.382 -0.464 -0.442 -0.420 -0.420
 0.106  0.832 -0.378 -0.462 -0.440 -0.418 -0.418
 0.108  0.837 -0.374 -0.459 -0.438 -0.418 -0.418
 0.110  0.841 -0.369 -0.456 -0.436 -0.416 -0.416
 0.112  0.845 -0.364 -0.454 -0.434 -0.415 -0.415
 0.114  0.849 -0.359 -0.451 -0.432 -0.414 -0.414
 0.116  0.853 -0.355 -0.448 -0.431 -0.413 -0.413
 0.118  0.858 -0.350 -0.445 -0.428 -0.411 -0.411
 0.120  0.862 -0.346 -0.443 -0.427 -0.410 -0.410
 0.122  0.866 -0.342 -0.440 -0.425 -0.409 -0.409
 0.124  0.870 -0.337 -0.437 -0.423 -0.408 -0.408
 0.126  0.874 -0.333 -0.434 -0.422 -0.406 -0.406
 0.128  0.878 -0.328 -0.432 -0.420 -0.405 -0.405
 0.130  0.882 -0.324 -0.429 -0.418 -0.404 -0.404
 0.132  0.887 -0.319 -0.426 -0.417 -0.403 -0.403
 0.134  0.890 -0.316 -0.424 -0.415 -0.402 -0.402
 0.136  0.894 -0.311 -0.422 -0.414 -0.401 -0.401
 0.138  0.898 -0.307 -0.419 -0.412 -0.400 -0.400
 0.140  0.902 -0.303 -0.416 -0.411 -0.398 -0.398
 0.142  0.906 -0.298 -0.414 -0.409 -0.397 -0.397
 0.144  0.910 -0.294 -0.411 -0.407 -0.396 -0.396
 0.146  0.914 -0.290 -0.409 -0.406 -0.395 -0.395
 0.148  0.918 -0.286 -0.407 -0.405 -0.394 -0.394
 0.150  0.921 -0.282 -0.404 -0.404 -0.393 -0.393
 0.152  0.925 -0.278 -0.401 -0.402 -0.392 -0.392
 0.154  0.929 -0.274 -0.399 -0.401 -0.391 -0.391
 0.156  0.933 -0.270 -0.396 -0.400 -0.390 -0.390
 0.158  0.936 -0.266 -0.394 -0.398 -0.389 -0.389
 0.160  0.940 -0.262 -0.392 -0.397 -0.387 -0.387
 0.162  0.944 -0.258 -0.390 -0.396 -0.386 -0.386
 0.164  0.947 -0.254 -0.388 -0.395 -0.385 -0.385
 0.166  0.951 -0.250 -0.385 -0.394 -0.384 -0.384
 0.168  0.955 -0.246 -0.383 -0.393 -0.383 -0.383
 0.170  0.959 -0.242 -0.380 -0.391 -0.382 -0.382
 0.172  0.962 -0.238 -0.378 -0.390 -0.381 -0.381
 0.174  0.965 -0.235 -0.376 -0.389 -0.380 -0.380
 0.176  0.969 -0.231 -0.373 -0.387 -0.379 -0.379
 0.178  0.973 -0.227 -0.371 -0.386 -0.378 -0.378
 0.180  0.976 -0.223 -0.369 -0.385 -0.377 -0.377
 0.182  0.980 -0.220 -0.366 -0.384 -0.376 -0.376
 0.184  0.983 -0.216 -0.364 -0.382 -0.375 -0.375
 0.186  0.986 -0.212 -0.362 -0.381 -0.374 -0.374
 0.188  0.990 -0.208 -0.360 -0.380 -0.372 -0.372
 0.190  0.993 -0.205 -0.358 -0.378 -0.371 -0.371
 0.192  0.997 -0.201 -0.356 -0.377 -0.370 -0.370
 0.194  0.999 -0.197 -0.354 -0.375 -0.369 -0.369
 0.196  1.003 -0.193 -0.352 -0.374 -0.368 -0.368
 0.198  1.006 -0.190 -0.349 -0.373 -0.367 -0.367
 0.200  1.009 -0.186 -0.347 -0.371 -0.366 -0.366
 0.202  1.013 -0.182 -0.345 -0.370 -0.365 -0.365
 0.204  1.015 -0.179 -0.343 -0.368 -0.364 -0.364
 0.206  1.019 -0.176 -0.341 -0.367 -0.363 -0.363
 0.208  1.022 -0.172 -0.339 -0.365 -0.362 -0.362
 0.210  1.025 -0.168 -0.337 -0.364 -0.361 -0.361
 0.212  1.028 -0.165 -0.335 -0.362 -0.360 -0.360
 0.214  1.031 -0.161 -0.332 -0.361 -0.359 -0.359
 0.216  1.034 -0.157 -0.330 -0.359 -0.358 -0.358
 0.218  1.037 -0.154 -0.328 -0.357 -0.357 -0.357
 0.220  1.040 -0.151 -0.326 -0.356 -0.356 -0.356
 0.222  1.043 -0.147 -0.324 -0.354 -0.355 -0.355
 0.224  1.046 -0.144 -0.322 -0.353 -0.354 -0.354
 0.226  1.049 -0.140 -0.321 -0.351 -0.353 -0.353
 0.228  1.052 -0.137 -0.319 -0.350 -0.352 -0.352
 0.230  1.055 -0.133 -0.317 -0.348 -0.351 -0.351
 0.232  1.058 -0.129 -0.315 -0.346 -0.350 -0.350
 0.234  1.060 -0.126 -0.313 -0.345 -0.349 -0.349
 0.236  1.064 -0.123 -0.311 -0.343 -0.348 -0.348
 0.238  1.066 -0.120 -0.309 -0.342 -0.347 -0.347
 0.240  1.069 -0.117 -0.307 -0.340 -0.346 -0.346
 0.242  1.072 -0.113 -0.305 -0.338 -0.345 -0.345
 0.244  1.075 -0.110 -0.303 -0.336 -0.343 -0.343
 0.246  1.077 -0.106 -0.301 -0.335 -0.342 -0.342
 0.248  1.080 -0.103 -0.298 -0.333 -0.341 -0.341
 0.250  1.083 -0.100 -0.296 -0.332 -0.341 -0.341
 0.252  1.086 -0.096 -0.294 -0.330 -0.339 -0.339
 0.254  1.089 -0.094 -0.292 -0.329 -0.338 -0.338
 0.256  1.091 -0.091 -0.290 -0.327 -0.337 -0.337
 0.258  1.094 -0.087 -0.288 -0.325 -0.336 -0.336
 0.260  1.097 -0.084 -0.286 -0.324 -0.335 -0.335
 0.262  1.100 -0.081 -0.284 -0.322 -0.334 -0.334
 0.264  1.102 -0.077 -0.282 -0.321 -0.332 -0.332
 0.266  1.105 -0.074 -0.281 -0.319 -0.331 -0.331
 0.268  1.108 -0.071 -0.279 -0.317 -0.330 -0.330
 0.270  1.110 -0.068 -0.277 -0.316 -0.329 -0.329
 0.272  1.113 -0.066 -0.275 -0.315 -0.328 -0.328
 0.274  1.116 -0.062 -0.273 -0.313 -0.327 -0.327
 0.276  1.119 -0.059 -0.271 -0.312 -0.325 -0.325
 0.278  1.121 -0.056 -0.269 -0.310 -0.324 -0.324
 0.280  1.124 -0.053 -0.266 -0.309 -0.323 -0.323
 0.282  1.126 -0.050 -0.264 -0.307 -0.321 -0.321
 0.284  1.129 -0.047 -0.262 -0.306 -0.320 -0.320
 0.286  1.131 -0.044 -0.260 -0.304 -0.319 -0.319
 0.288  1.134 -0.041 -0.258 -0.303 -0.317 -0.317
 0.290  1.136 -0.039 -0.256 -0.302 -0.316 -0.316
 0.292  1.139 -0.036 -0.254 -0.300 -0.315 -0.315
 0.294  1.142 -0.033 -0.252 -0.299 -0.313 -0.313
 0.296  1.145 -0.030 -0.250 -0.297 -0.312 -0.312
 0.298  1.147 -0.027 -0.248 -0.296 -0.310 -0.310
 0.300  1.150 -0.024 -0.246 -0.294 -0.309 -0.309
 0.302  1.152 -0.021 -0.244 -0.293 -0.308 -0.308
 0.304  1.155 -0.018 -0.242 -0.292 -0.306 -0.306
 0.306  1.158 -0.015 -0.240 -0.291 -0.305 -0.305
 0.308  1.159 -0.012 -0.239 -0.289 -0.303 -0.303
 0.310  1.162 -0.010 -0.237 -0.287 -0.302 -0.302
 0.312  1.164 -0.007 -0.235 -0.286 -0.301 -0.301
 0.314  1.167 -0.004 -0.232 -0.285 -0.299 -0.299
 0.316  1.169 -0.001 -0.230 -0.284 -0.298 -0.298
 0.318  1.172  0.001 -0.229 -0.282 -0.296 -0.296
 0.320  1.174  0.004 -0.227 -0.281 -0.295 -0.295
 0.322  1.177  0.007 -0.225 -0.280 -0.293 -0.293
 0.324  1.180  0.010 -0.223 -0.278 -0.292 -0.292
 0.326  1.182  0.013 -0.222 -0.276 -0.290 -0.290
 0.328  1.185  0.016 -0.220 -0.275 -0.289 -0.289
 0.330  1.187  0.017 -0.218 -0.274 -0.288 -0.288
 0.332  1.190  0.020 -0.216 -0.273 -0.287 -0.287
 0.334  1.191  0.023 -0.214 -0.271 -0.285 -0.285
 0.336  1.194  0.026 -0.212 -0.270 -0.284 -0.284
 0.338  1.197  0.028 -0.211 -0.269 -0.283 -0.283
 0.340  1.199  0.031 -0.209 -0.267 -0.281 -0.281
 0.342  1.202  0.034 -0.207 -0.265 -0.280 -0.280
 0.344  1.204  0.037 -0.205 -0.264 -0.279 -0.279
 0.346  1.207  0.039 -0.203 -0.263 -0.277 -0.277
 0.348  1.208  0.042 -0.202 -0.261 -0.277 -0.277
 0.350  1.211  0.045 -0.200 -0.260 -0.275 -0.275
 0.352  1.213  0.046 -0.198 -0.259 -0.274 -0.274
 0.354  1.216  0.049 -0.196 -0.257 -0.273 -0.273
 0.356  1.219  0.052 -0.195 -0.255 -0.271 -0.271
 0.358  1.220  0.054 -0.193 -0.254 -0.270 -0.270
 0.360  1.223  0.057 -0.192 -0.253 -0.269 -0.269
 0.362  1.225  0.060 -0.190 -0.251 -0.268 -0.268
 0.364  1.228  0.062 -0.188 -0.250 -0.266 -0.266
 0.366  1.230  0.065 -0.187 -0.249 -0.265 -0.265
 0.368  1.232  0.067 -0.185 -0.247 -0.264 -0.264
 0.370  1.235  0.070 -0.184 -0.245 -0.263 -0.263
 0.372  1.237  0.073 -0.182 -0.244 -0.262 -0.262
 0.374  1.239  0.074 -0.180 -0.243 -0.261 -0.261
 0.376  1.241  0.077 -0.179 -0.241 -0.260 -0.260
 0.378  1.244  0.079 -0.177 -0.240 -0.259 -0.259
 0.380  1.246  0.082 -0.175 -0.238 -0.258 -0.258
 0.382  1.248  0.084 -0.174 -0.237 -0.257 -0.257
 0.384  1.251  0.087 -0.172 -0.235 -0.255 -0.255
 0.386  1.252  0.089 -0.171 -0.234 -0.254 -0.254
 0.388  1.255  0.091 -0.169 -0.233 -0.253 -0.253
 0.390  1.257  0.094 -0.167 -0.231 -0.252 -0.252
 0.392  1.259  0.096 -0.166 -0.230 -0.251 -0.251
 0.394  1.262  0.099 -0.164 -0.228 -0.250 -0.250
 0.396  1.263  0.100 -0.162 -0.227 -0.249 -0.249
 0.398  1.266  0.102 -0.161 -0.225 -0.247 -0.247
 0.400  1.268  0.105 -0.159 -0.224 -0.246 -0.246
 0.402  1.270  0.107 -0.158 -0.223 -0.245 -0.245
 0.404  1.272  0.109 -0.156 -0.221 -0.244 -0.244
 0.406  1.274  0.111 -0.154 -0.220 -0.242 -0.242
 0.408  1.276  0.114 -0.153 -0.219 -0.241 -0.241
 0.410  1.279  0.116 -0.152 -0.217 -0.240 -0.240
 0.412  1.280  0.118 -0.150 -0.215 -0.238 -0.238
 0.414  1.283  0.120 -0.148 -0.214 -0.237 -0.237
 0.416  1.285  0.122 -0.147 -0.213 -0.236 -0.236
 0.418  1.286  0.125 -0.145 -0.211 -0.235 -0.235
 0.420  1.289  0.127 -0.143 -0.210 -0.233 -0.233
 0.422  1.291  0.128 -0.142 -0.209 -0.232 -0.232
 0.424  1.293  0.130 -0.140 -0.208 -0.230 -0.230
 0.426  1.295  0.132 -0.139 -0.206 -0.229 -0.229
 0.428  1.296  0.134 -0.137 -0.204 -0.228 -0.228
 0.430  1.299  0.136 -0.136 -0.203 -0.226 -0.226
 0.432  1.301  0.138 -0.134 -0.202 -0.225 -0.225
 0.434  1.302  0.140 -0.132 -0.201 -0.224 -0.224
 0.436  1.304  0.142 -0.131 -0.199 -0.222 -0.222
 0.438  1.307  0.144 -0.129 -0.198 -0.220 -0.220
 0.440  1.308  0.146 -0.128 -0.197 -0.219 -0.219
 0.442  1.310  0.148 -0.126 -0.195 -0.217 -0.217
 0.444  1.312  0.150 -0.125 -0.194 -0.216 -0.216
 0.446  1.313  0.152 -0.123 -0.192 -0.214 -0.214
 0.448  1.315  0.154 -0.122 -0.191 -0.213 -0.213
 0.450  1.318  0.156 -0.120 -0.190 -0.212 -0.212
 0.452  1.319  0.157 -0.119 -0.189 -0.210 -0.210
 0.454  1.321  0.158 -0.118 -0.187 -0.208 -0.208
 0.456  1.323  0.160 -0.115 -0.186 -0.207 -0.207
 0.458  1.324  0.162 -0.114 -0.184 -0.205 -0.205
 0.460  1.326  0.164 -0.113 -0.183 -0.204 -0.204
 0.462  1.328  0.166 -0.111 -0.182 -0.202 -0.202
 0.464  1.329  0.167 -0.110 -0.181 -0.201 -0.201
 0.466  1.330  0.169 -0.109 -0.180 -0.200 -0.200
 0.468  1.332  0.171 -0.107 -0.178 -0.198 -0.198
 0.470  1.334  0.172 -0.106 -0.177 -0.197 -0.197
 0.472  1.335  0.174 -0.105 -0.176 -0.196 -0.196
 0.474  1.337  0.176 -0.103 -0.175 -0.194 -0.194
 0.476  1.339  0.177 -0.102 -0.173 -0.193 -0.193
 0.478  1.340  0.179 -0.101 -0.172 -0.192 -0.192
 0.480  1.341  0.181 -0.099 -0.171 -0.190 -0.190
 0.482  1.343  0.182 -0.098 -0.170 -0.189 -0.189
 0.484  1.344  0.184 -0.096 -0.169 -0.188 -0.188
 0.486  1.346  0.184 -0.095 -0.168 -0.187 -0.187
 0.488  1.347  0.186 -0.094 -0.167 -0.186 -0.186
 0.490  1.348  0.187 -0.092 -0.166 -0.185 -0.185
 0.492  1.350  0.189 -0.091 -0.165 -0.184 -0.184
 0.494  1.351  0.190 -0.090 -0.164 -0.183 -0.183
 0.496  1.352  0.192 -0.089 -0.163 -0.182 -0.182
 0.498  1.353  0.193 -0.088 -0.162 -0.181 -0.181
 0.500  1.355  0.194 -0.086 -0.161 -0.180 -0.180
 0.502  1.356  0.196 -0.085 -0.160 -0.179 -0.179
 0.504  1.357  0.197 -0.084 -0.159 -0.178 -0.178
 0.506  1.358  0.199 -0.083 -0.158 -0.177 -0.177
 0.508  1.359  0.200 -0.081 -0.157 -0.176 -0.176
 0.510  1.361  0.201 -0.080 -0.155 -0.175 -0.175
 0.512  1.362  0.202 -0.079 -0.154 -0.174 -0.174
 0.514  1.363  0.204 -0.078 -0.154 -0.174 -0.174
 0.516  1.364  0.205 -0.077 -0.153 -0.173 -0.173
 0.518  1.365  0.206 -0.076 -0.152 -0.172 -0.172
 0.520  1.366  0.207 -0.075 -0.151 -0.171 -0.171
 0.522  1.367  0.208 -0.074 -0.150 -0.171 -0.171
 0.524  1.368  0.210 -0.073 -0.149 -0.170 -0.170
 0.526  1.369  0.211 -0.071 -0.148 -0.169 -0.169
 0.528  1.370  0.212 -0.071 -0.148 -0.169 -0.169
 0.530  1.371  0.212 -0.070 -0.147 -0.168 -0.168
 0.532  1.372  0.213 -0.069 -0.146 -0.167 -0.167
 0.534  1.373  0.214 -0.068 -0.145 -0.166 -0.166
 0.536  1.374  0.215 -0.067 -0.144 -0.166 -0.166
 0.538  1.374  0.216 -0.066 -0.143 -0.165 -0.165
 0.540  1.375  0.217 -0.065 -0.142 -0.164 -0.164
 0.542  1.376  0.217 -0.064 -0.142 -0.164 -0.164
 0.544  1.376  0.218 -0.063 -0.141 -0.163 -0.163
 0.546  1.377  0.219 -0.062 -0.140 -0.162 -0.162
 0.548  1.378  0.220 -0.061 -0.140 -0.161 -0.161
 0.550  1.379  0.221 -0.060 -0.139 -0.161 -0.161
 0.552  1.379  0.221 -0.060 -0.138 -0.160 -0.160
 0.554  1.379  0.222 -0.059 -0.137 -0.160 -0.160
 0.556  1.380  0.223 -0.058 -0.137 -0.159 -0.159
 0.558  1.381  0.224 -0.058 -0.136 -0.158 -0.158
 0.560  1.381  0.224 -0.056 -0.135 -0.157 -0.157
 0.562  1.382  0.225 -0.056 -0.134 -0.157 -0.157
 0.564  1.383  0.225 -0.055 -0.134 -0.156 -0.156
 0.566  1.383  0.226 -0.054 -0.133 -0.155 -0.155
 0.568  1.384  0.227 -0.054 -0.132 -0.154 -0.154
 0.570  1.384  0.227 -0.053 -0.132 -0.154 -0.154
 0.572  1.385  0.228 -0.052 -0.131 -0.153 -0.153
 0.574  1.385  0.228 -0.052 -0.131 -0.152 -0.152
 0.576  1.385  0.228 -0.052 -0.130 -0.151 -0.151
 0.578  1.385  0.229 -0.051 -0.130 -0.151 -0.151
 0.580  1.386  0.229 -0.050 -0.129 -0.150 -0.150
 0.582  1.386  0.230 -0.050 -0.128 -0.149 -0.149
 0.584  1.386  0.230 -0.049 -0.128 -0.149 -0.149
 0.586  1.387  0.230 -0.048 -0.127 -0.148 -0.148
 0.588  1.387  0.231 -0.048 -0.127 -0.147 -0.147
 0.590  1.387  0.231 -0.047 -0.126 -0.147 -0.147
 0.592  1.388  0.231 -0.047 -0.126 -0.146 -0.146
 0.594  1.388  0.232 -0.047 -0.125 -0.145 -0.145
 0.596  1.388  0.232 -0.046 -0.124 -0.144 -0.144
 0.598  1.388  0.232 -0.046 -0.124 -0.144 -0.144
 0.600  1.388  0.233 -0.045 -0.123 -0.143 -0.143
 0.602  1.388  0.233 -0.045 -0.123 -0.142 -0.142
 0.604  1.389  0.233 -0.045 -0.122 -0.141 -0.141
 0.606  1.389  0.234 -0.045 -0.122 -0.140 -0.140
 0.608  1.389  0.234 -0.044 -0.121 -0.139 -0.139
 0.610  1.389  0.234 -0.044 -0.121 -0.139 -0.139
 0.612  1.389  0.235 -0.044 -0.120 -0.138 -0.138
 0.614  1.389  0.235 -0.043 -0.120 -0.137 -0.137
 0.616  1.389  0.235 -0.043 -0.119 -0.136 -0.136
 0.618  1.389  0.236 -0.043 -0.119 -0.135 -0.135
 0.620  1.389  0.236 -0.043 -0.119 -0.135 -0.135
 0.622  1.389  0.236 -0.043 -0.118 -0.134 -0.134
 0.624  1.389  0.237 -0.043 -0.118 -0.133 -0.133
 0.626  1.389  0.237 -0.043 -0.117 -0.132 -0.132
 0.628  1.388  0.237 -0.043 -0.117 -0.131 -0.131
 0.630  1.388  0.237 -0.043 -0.116 -0.130 -0.130
 0.632  1.388  0.238 -0.043 -0.116 -0.129 -0.129
 0.634  1.388  0.238 -0.043 -0.115 -0.128 -0.128
 0.636  1.388  0.238 -0.043 -0.114 -0.127 -0.127
 0.638  1.387  0.238 -0.043 -0.114 -0.125 -0.125
 0.640  1.387  0.239 -0.043 -0.113 -0.124 -0.124
 0.642  1.387  0.239 -0.043 -0.113 -0.123 -0.123
 0.644  1.386  0.239 -0.043 -0.112 -0.123 -0.123
 0.646  1.386  0.239 -0.043 -0.112 -0.122 -0.122
 0.648  1.386  0.240 -0.043 -0.112 -0.120 -0.120
 0.650  1.385  0.240 -0.043 -0.111 -0.119 -0.119
 0.652  1.385  0.240 -0.043 -0.111 -0.118 -0.118
 0.654  1.385  0.240 -0.043 -0.110 -0.117 -0.117
 0.656  1.385  0.240 -0.043 -0.110 -0.116 -0.116
 0.658  1.385  0.240 -0.043 -0.110 -0.115 -0.115
 0.660  1.385  0.240 -0.043 -0.109 -0.113 -0.113
 0.662  1.385  0.240 -0.043 -0.109 -0.112 -0.112
 0.664  1.384  0.240 -0.043 -0.108 -0.111 -0.111
 0.666  1.384  0.241 -0.043 -0.108 -0.110 -0.110
 0.668  1.384  0.241 -0.043 -0.107 -0.109 -0.109
 0.670  1.384  0.241 -0.043 -0.106 -0.107 -0.107
 0.672  1.384  0.241 -0.043 -0.105 -0.106 -0.106
 0.674  1.383  0.241 -0.043 -0.104 -0.105 -0.105
 0.676  1.383  0.242 -0.043 -0.103 -0.103 -0.103
 0.678  1.383  0.242 -0.042 -0.102 -0.102 -0.102
 0.680  1.383  0.242 -0.042 -0.101 -0.100 -0.100
 0.682  1.383  0.242 -0.041 -0.099 -0.098 -0.098
 0.684  1.383  0.242 -0.041 -0.098 -0.097 -0.097
 0.686  1.383  0.242 -0.041 -0.097 -0.095 -0.095
 0.688  1.383  0.243 -0.040 -0.095 -0.094 -0.094
 0.690  1.383  0.243 -0.040 -0.093 -0.092 -0.092
 0.692  1.383  0.243 -0.039 -0.092 -0.090 -0.090
 0.694  1.383  0.243 -0.039 -0.090 -0.088 -0.088
 0.696  1.384  0.243 -0.038 -0.088 -0.086 -0.086
 0.698  1.384  0.243 -0.037 -0.086 -0.084 -0.084
 0.700  1.384  0.244 -0.037 -0.084 -0.083 -0.083
 0.702  1.384  0.244 -0.036 -0.082 -0.081 -0.081
 0.704  1.384  0.244 -0.035 -0.080 -0.079 -0.079
 0.706  1.385  0.244 -0.035 -0.078 -0.076 -0.076
 0.708  1.385  0.244 -0.034 -0.076 -0.074 -0.074
 0.710  1.385  0.244 -0.033 -0.073 -0.072 -0.072
 0.712  1.385  0.244 -0.033 -0.070 -0.070 -0.070
 0.714  1.385  0.244 -0.032 -0.068 -0.068 -0.068
 0.716  1.385  0.244 -0.031 -0.065 -0.065 -0.065
 0.718  1.385  0.244 -0.030 -0.062 -0.063 -0.063
 0.720  1.385  0.245 -0.029 -0.059 -0.060 -0.060
 0.722  1.386  0.245 -0.028 -0.056 -0.058 -0.058
 0.724  1.387  0.245 -0.027 -0.053 -0.055 -0.055
 0.726  1.387  0.245 -0.026 -0.050 -0.053 -0.053
 0.728  1.388  0.246 -0.024 -0.047 -0.050 -0.050
 0.730  1.389  0.246 -0.023 -0.044 -0.047 -0.047
 0.732  1.390  0.247 -0.022 -0.041 -0.045 -0.045
 0.734  1.390  0.248 -0.020 -0.038 -0.042 -0.042
 0.736  1.392  0.249 -0.019 -0.035 -0.040 -0.040
 0.738  1.393  0.251 -0.017 -0.031 -0.037 -0.037
 0.740  1.395  0.252 -0.016 -0.029 -0.034 -0.034
 0.742  1.396  0.253 -0.013 -0.026 -0.032 -0.032
 0.744  1.397  0.255 -0.011 -0.023 -0.030 -0.030
 0.746  1.399  0.257 -0.009 -0.020 -0.027 -0.027
 0.748  1.401  0.259 -0.007 -0.018 -0.025 -0.025
 0.750  1.403  0.261 -0.005 -0.016 -0.022 -0.022
 0.752  1.405  0.263 -0.003 -0.014 -0.020 -0.020
 0.754  1.407  0.266 -0.001 -0.011 -0.019 -0.019
 0.756  1.409  0.268  0.001 -0.010 -0.017 -0.017
 0.758  1.411  0.270  0.004 -0.008 -0.015 -0.015
 0.760  1.413  0.273  0.006 -0.007 -0.014 -0.014
 0.762  1.416  0.275  0.009 -0.006 -0.012 -0.012
 0.764  1.418  0.279  0.012 -0.005 -0.011 -0.011
 0.766  1.421  0.282  0.014 -0.004 -0.010 -0.010
 0.768  1.424  0.285  0.017 -0.002 -0.008 -0.008
 0.770  1.427  0.289  0.021 -0.002 -0.007 -0.007
 0.772  1.430  0.293  0.024 -0.001 -0.007 -0.007
 0.774  1.434  0.296  0.027 -0.001 -0.006 -0.006
 0.776  1.437  0.301  0.031 -0.000 -0.006 -0.006
 0.778  1.440  0.305  0.034 -0.000 -0.005 -0.005
 0.780  1.445  0.310  0.038 -0.000 -0.005 -0.005
 0.782  1.448  0.314  0.041 -0.000 -0.004 -0.004
 0.784  1.452  0.319  0.045 -0.001 -0.004 -0.004
 0.786  1.456  0.324  0.048 -0.001 -0.004 -0.004
 0.788  1.460  0.328  0.052 -0.001 -0.004 -0.004
 0.790  1.463  0.333  0.056 -0.002 -0.004 -0.004
 0.792  1.467  0.338  0.059 -0.003 -0.004 -0.004
 0.794  1.471  0.343  0.063 -0.004 -0.004 -0.004
 0.796  1.474  0.348  0.066 -0.005 -0.004 -0.004
 0.798  1.478  0.352  0.070 -0.006 -0.005 -0.005
 0.800  1.480  0.356  0.072 -0.007 -0.006 -0.006
 0.802  1.484  0.360  0.076 -0.009 -0.006 -0.006
 0.804  1.486  0.364  0.078 -0.011 -0.007 -0.007
 0.806  1.489  0.367  0.081 -0.012 -0.008 -0.008
 0.808  1.490  0.370  0.083 -0.015 -0.009 -0.009
