# IsPeriodic    : True
# Period        : 0.470048 days
# Normalization : <g_mag>=0
# 
# Phase u_mag  g_mag  r_mag  i_mag  z_mag  y_mag
 0.000  0.111 -0.988 -0.784 -0.615 -0.516 -0.516
 0.002  0.111 -0.988 -0.784 -0.615 -0.516 -0.516
 0.004  0.114 -0.986 -0.784 -0.615 -0.515 -0.515
 0.006  0.118 -0.985 -0.783 -0.614 -0.514 -0.514
 0.008  0.122 -0.982 -0.781 -0.613 -0.514 -0.514
 0.010  0.128 -0.979 -0.779 -0.612 -0.512 -0.512
 0.012  0.135 -0.975 -0.777 -0.611 -0.511 -0.511
 0.014  0.144 -0.970 -0.775 -0.609 -0.509 -0.509
 0.016  0.152 -0.966 -0.773 -0.608 -0.507 -0.507
 0.018  0.162 -0.960 -0.770 -0.606 -0.505 -0.505
 0.020  0.172 -0.954 -0.767 -0.604 -0.503 -0.503
 0.022  0.183 -0.949 -0.765 -0.602 -0.500 -0.500
 0.024  0.192 -0.943 -0.761 -0.599 -0.498 -0.498
 0.026  0.203 -0.937 -0.758 -0.598 -0.496 -0.496
 0.028  0.214 -0.931 -0.755 -0.595 -0.493 -0.493
 0.030  0.223 -0.924 -0.751 -0.592 -0.490 -0.490
 0.032  0.234 -0.918 -0.747 -0.590 -0.488 -0.488
 0.034  0.243 -0.912 -0.744 -0.587 -0.486 -0.486
 0.036  0.252 -0.905 -0.739 -0.584 -0.483 -0.483
 0.038  0.262 -0.899 -0.735 -0.581 -0.480 -0.480
 0.040  0.271 -0.892 -0.731 -0.578 -0.478 -0.478
 0.042  0.282 -0.885 -0.726 -0.574 -0.475 -0.475
 0.044  0.291 -0.878 -0.721 -0.571 -0.472 -0.472
 0.046  0.300 -0.870 -0.717 -0.567 -0.470 -0.470
 0.048  0.310 -0.863 -0.711 -0.564 -0.466 -0.466
 0.050  0.319 -0.856 -0.706 -0.560 -0.463 -0.463
 0.052  0.328 -0.847 -0.700 -0.556 -0.459 -0.459
 0.054  0.337 -0.838 -0.695 -0.551 -0.456 -0.456
 0.056  0.348 -0.830 -0.688 -0.547 -0.452 -0.452
 0.058  0.358 -0.821 -0.683 -0.542 -0.449 -0.449
 0.060  0.367 -0.812 -0.676 -0.538 -0.446 -0.446
 0.062  0.376 -0.802 -0.669 -0.532 -0.442 -0.442
 0.064  0.385 -0.793 -0.663 -0.528 -0.438 -0.438
 0.066  0.395 -0.783 -0.656 -0.523 -0.434 -0.434
 0.068  0.404 -0.773 -0.649 -0.517 -0.430 -0.430
 0.070  0.413 -0.763 -0.641 -0.512 -0.426 -0.426
 0.072  0.423 -0.753 -0.635 -0.506 -0.422 -0.422
 0.074  0.432 -0.743 -0.627 -0.501 -0.418 -0.418
 0.076  0.441 -0.733 -0.620 -0.496 -0.414 -0.414
 0.078  0.450 -0.722 -0.613 -0.490 -0.409 -0.409
 0.080  0.460 -0.712 -0.606 -0.485 -0.405 -0.405
 0.082  0.467 -0.702 -0.598 -0.480 -0.401 -0.401
 0.084  0.477 -0.692 -0.590 -0.474 -0.397 -0.397
 0.086  0.486 -0.682 -0.584 -0.469 -0.393 -0.393
 0.088  0.495 -0.672 -0.577 -0.463 -0.389 -0.389
 0.090  0.503 -0.662 -0.570 -0.458 -0.385 -0.385
 0.092  0.512 -0.651 -0.564 -0.454 -0.381 -0.381
 0.094  0.522 -0.641 -0.557 -0.448 -0.377 -0.377
 0.096  0.529 -0.633 -0.550 -0.444 -0.374 -0.374
 0.098  0.539 -0.623 -0.544 -0.439 -0.370 -0.370
 0.100  0.546 -0.614 -0.537 -0.434 -0.367 -0.367
 0.102  0.556 -0.604 -0.531 -0.430 -0.363 -0.363
 0.104  0.563 -0.595 -0.525 -0.425 -0.360 -0.360
 0.106  0.571 -0.586 -0.519 -0.421 -0.356 -0.356
 0.108  0.580 -0.578 -0.514 -0.417 -0.353 -0.353
 0.110  0.588 -0.569 -0.507 -0.413 -0.349 -0.349
 0.112  0.596 -0.560 -0.501 -0.408 -0.346 -0.346
 0.114  0.604 -0.553 -0.496 -0.404 -0.343 -0.343
 0.116  0.611 -0.544 -0.490 -0.400 -0.340 -0.340
 0.118  0.619 -0.537 -0.485 -0.396 -0.336 -0.336
 0.120  0.627 -0.528 -0.479 -0.392 -0.333 -0.333
 0.122  0.635 -0.521 -0.474 -0.388 -0.330 -0.330
 0.124  0.641 -0.514 -0.468 -0.385 -0.327 -0.327
 0.126  0.649 -0.507 -0.464 -0.381 -0.324 -0.324
 0.128  0.656 -0.499 -0.458 -0.378 -0.322 -0.322
 0.130  0.663 -0.492 -0.454 -0.374 -0.319 -0.319
 0.132  0.670 -0.485 -0.449 -0.371 -0.316 -0.316
 0.134  0.676 -0.478 -0.445 -0.368 -0.313 -0.313
 0.136  0.684 -0.472 -0.439 -0.364 -0.311 -0.311
 0.138  0.690 -0.465 -0.435 -0.362 -0.308 -0.308
 0.140  0.698 -0.459 -0.430 -0.359 -0.305 -0.305
 0.142  0.704 -0.453 -0.427 -0.355 -0.303 -0.303
 0.144  0.711 -0.446 -0.422 -0.353 -0.301 -0.301
 0.146  0.717 -0.440 -0.418 -0.350 -0.299 -0.299
 0.148  0.723 -0.434 -0.414 -0.347 -0.296 -0.296
 0.150  0.729 -0.428 -0.409 -0.344 -0.294 -0.294
 0.152  0.735 -0.423 -0.406 -0.341 -0.292 -0.292
 0.154  0.741 -0.417 -0.401 -0.338 -0.289 -0.289
 0.156  0.748 -0.411 -0.397 -0.336 -0.287 -0.287
 0.158  0.754 -0.405 -0.394 -0.333 -0.285 -0.285
 0.160  0.760 -0.401 -0.389 -0.330 -0.282 -0.282
 0.162  0.765 -0.395 -0.385 -0.328 -0.280 -0.280
 0.164  0.771 -0.389 -0.381 -0.325 -0.278 -0.278
 0.166  0.777 -0.383 -0.377 -0.322 -0.275 -0.275
 0.168  0.783 -0.378 -0.374 -0.319 -0.273 -0.273
 0.170  0.788 -0.372 -0.369 -0.317 -0.271 -0.271
 0.172  0.794 -0.366 -0.365 -0.314 -0.268 -0.268
 0.174  0.800 -0.360 -0.361 -0.311 -0.266 -0.266
 0.176  0.807 -0.354 -0.357 -0.309 -0.264 -0.264
 0.178  0.811 -0.349 -0.354 -0.306 -0.261 -0.261
 0.180  0.817 -0.343 -0.349 -0.303 -0.259 -0.259
 0.182  0.824 -0.337 -0.345 -0.301 -0.257 -0.257
 0.184  0.828 -0.331 -0.341 -0.298 -0.254 -0.254
 0.186  0.834 -0.325 -0.337 -0.295 -0.252 -0.252
 0.188  0.841 -0.318 -0.334 -0.294 -0.250 -0.250
 0.190  0.845 -0.312 -0.329 -0.291 -0.247 -0.247
 0.192  0.851 -0.307 -0.326 -0.288 -0.246 -0.246
 0.194  0.856 -0.301 -0.321 -0.285 -0.244 -0.244
 0.196  0.862 -0.295 -0.318 -0.283 -0.241 -0.241
 0.198  0.868 -0.289 -0.315 -0.280 -0.239 -0.239
 0.200  0.873 -0.283 -0.310 -0.277 -0.237 -0.237
 0.202  0.879 -0.278 -0.307 -0.276 -0.234 -0.234
 0.204  0.884 -0.272 -0.302 -0.273 -0.232 -0.232
 0.206  0.890 -0.265 -0.299 -0.270 -0.230 -0.230
 0.208  0.896 -0.259 -0.296 -0.268 -0.227 -0.227
 0.210  0.901 -0.253 -0.291 -0.265 -0.225 -0.225
 0.212  0.907 -0.247 -0.288 -0.263 -0.223 -0.223
 0.214  0.912 -0.240 -0.284 -0.260 -0.220 -0.220
 0.216  0.918 -0.234 -0.280 -0.258 -0.218 -0.218
 0.218  0.923 -0.228 -0.277 -0.255 -0.216 -0.216
 0.220  0.929 -0.223 -0.272 -0.252 -0.213 -0.213
 0.222  0.933 -0.215 -0.269 -0.251 -0.211 -0.211
 0.224  0.940 -0.210 -0.266 -0.248 -0.209 -0.209
 0.226  0.944 -0.204 -0.262 -0.245 -0.206 -0.206
 0.228  0.950 -0.198 -0.258 -0.243 -0.205 -0.205
 0.230  0.955 -0.192 -0.255 -0.241 -0.203 -0.203
 0.232  0.961 -0.186 -0.251 -0.238 -0.200 -0.200
 0.234  0.966 -0.181 -0.248 -0.236 -0.198 -0.198
 0.236  0.971 -0.175 -0.245 -0.234 -0.196 -0.196
 0.238  0.977 -0.169 -0.241 -0.231 -0.193 -0.193
 0.240  0.981 -0.163 -0.238 -0.229 -0.192 -0.192
 0.242  0.986 -0.157 -0.234 -0.226 -0.189 -0.189
 0.244  0.992 -0.152 -0.230 -0.224 -0.187 -0.187
 0.246  0.997 -0.146 -0.227 -0.222 -0.185 -0.185
 0.248  1.002 -0.141 -0.224 -0.219 -0.183 -0.183
 0.250  1.006 -0.136 -0.220 -0.217 -0.181 -0.181
 0.252  1.011 -0.130 -0.217 -0.215 -0.179 -0.179
 0.254  1.016 -0.126 -0.214 -0.213 -0.177 -0.177
 0.256  1.020 -0.120 -0.211 -0.210 -0.175 -0.175
 0.258  1.025 -0.114 -0.208 -0.208 -0.172 -0.172
 0.260  1.029 -0.110 -0.205 -0.206 -0.171 -0.171
 0.262  1.034 -0.104 -0.201 -0.203 -0.169 -0.169
 0.264  1.039 -0.099 -0.198 -0.201 -0.167 -0.167
 0.266  1.043 -0.095 -0.195 -0.199 -0.165 -0.165
 0.268  1.048 -0.089 -0.191 -0.197 -0.163 -0.163
 0.270  1.051 -0.085 -0.189 -0.194 -0.161 -0.161
 0.272  1.056 -0.081 -0.186 -0.192 -0.159 -0.159
 0.274  1.060 -0.075 -0.182 -0.191 -0.157 -0.157
 0.276  1.065 -0.070 -0.179 -0.188 -0.155 -0.155
 0.278  1.068 -0.066 -0.177 -0.186 -0.153 -0.153
 0.280  1.073 -0.062 -0.174 -0.183 -0.151 -0.151
 0.282  1.076 -0.057 -0.170 -0.182 -0.149 -0.149
 0.284  1.081 -0.053 -0.168 -0.179 -0.148 -0.148
 0.286  1.085 -0.049 -0.165 -0.177 -0.146 -0.146
 0.288  1.088 -0.044 -0.161 -0.175 -0.144 -0.144
 0.290  1.091 -0.040 -0.159 -0.173 -0.142 -0.142
 0.292  1.096 -0.036 -0.156 -0.171 -0.140 -0.140
 0.294  1.099 -0.031 -0.154 -0.168 -0.138 -0.138
 0.296  1.102 -0.027 -0.150 -0.166 -0.137 -0.137
 0.298  1.107 -0.023 -0.148 -0.165 -0.134 -0.134
 0.300  1.110 -0.018 -0.145 -0.162 -0.133 -0.133
 0.302  1.113 -0.014 -0.141 -0.160 -0.131 -0.131
 0.304  1.118 -0.011 -0.139 -0.158 -0.129 -0.129
 0.306  1.121 -0.007 -0.136 -0.156 -0.127 -0.127
 0.308  1.124 -0.002 -0.134 -0.154 -0.126 -0.126
 0.310  1.127  0.002 -0.130 -0.151 -0.124 -0.124
 0.312  1.132  0.006 -0.128 -0.149 -0.122 -0.122
 0.314  1.135  0.009 -0.125 -0.147 -0.121 -0.121
 0.316  1.138  0.014 -0.121 -0.145 -0.118 -0.118
 0.318  1.142  0.018 -0.119 -0.142 -0.117 -0.117
 0.320  1.146  0.022 -0.116 -0.141 -0.115 -0.115
 0.322  1.149  0.027 -0.114 -0.138 -0.113 -0.113
 0.324  1.153  0.031 -0.110 -0.136 -0.111 -0.111
 0.326  1.156  0.034 -0.107 -0.133 -0.110 -0.110
 0.328  1.161  0.038 -0.105 -0.132 -0.107 -0.107
 0.330  1.164  0.043 -0.101 -0.129 -0.106 -0.106
 0.332  1.169  0.047 -0.099 -0.127 -0.104 -0.104
 0.334  1.172  0.050 -0.096 -0.124 -0.103 -0.103
 0.336  1.175  0.054 -0.094 -0.123 -0.100 -0.100
 0.338  1.180  0.059 -0.090 -0.120 -0.099 -0.099
 0.340  1.184  0.063 -0.088 -0.118 -0.097 -0.097
 0.342  1.187  0.067 -0.085 -0.116 -0.095 -0.095
 0.344  1.192  0.070 -0.081 -0.113 -0.093 -0.093
 0.346  1.195  0.074 -0.079 -0.111 -0.092 -0.092
 0.348  1.200  0.079 -0.076 -0.108 -0.090 -0.090
 0.350  1.203  0.082 -0.074 -0.107 -0.088 -0.088
 0.352  1.208  0.086 -0.070 -0.104 -0.086 -0.086
 0.354  1.212  0.090 -0.068 -0.102 -0.084 -0.084
 0.356  1.215  0.095 -0.065 -0.099 -0.083 -0.083
 0.358  1.220  0.098 -0.061 -0.097 -0.081 -0.081
 0.360  1.225  0.102 -0.059 -0.095 -0.080 -0.080
 0.362  1.229  0.106 -0.056 -0.092 -0.077 -0.077
 0.364  1.232  0.109 -0.054 -0.090 -0.076 -0.076
 0.366  1.237  0.114 -0.050 -0.088 -0.074 -0.074
 0.368  1.242  0.118 -0.048 -0.085 -0.072 -0.072
 0.370  1.246  0.122 -0.045 -0.083 -0.070 -0.070
 0.372  1.249  0.125 -0.042 -0.081 -0.069 -0.069
 0.374  1.254  0.130 -0.039 -0.079 -0.066 -0.066
 0.376  1.259  0.134 -0.037 -0.076 -0.065 -0.065
 0.378  1.263  0.137 -0.034 -0.074 -0.063 -0.063
 0.380  1.268  0.141 -0.031 -0.072 -0.061 -0.061
 0.382  1.271  0.145 -0.028 -0.070 -0.059 -0.059
 0.384  1.276  0.150 -0.026 -0.067 -0.057 -0.057
 0.386  1.280  0.153 -0.022 -0.065 -0.056 -0.056
 0.388  1.283  0.157 -0.020 -0.063 -0.053 -0.053
 0.390  1.288  0.161 -0.017 -0.061 -0.052 -0.052
 0.392  1.293  0.166 -0.015 -0.058 -0.049 -0.049
 0.394  1.296  0.169 -0.011 -0.056 -0.048 -0.048
 0.396  1.300  0.173 -0.009 -0.055 -0.045 -0.045
 0.398  1.303  0.177 -0.006 -0.052 -0.044 -0.044
 0.400  1.308  0.180 -0.004 -0.050 -0.042 -0.042
 0.402  1.311  0.185 -0.000 -0.048 -0.040 -0.040
 0.404  1.316  0.189  0.002 -0.046 -0.038 -0.038
 0.406  1.319  0.193  0.005 -0.044 -0.036 -0.036
 0.408  1.324  0.196  0.008 -0.041 -0.034 -0.034
 0.410  1.327  0.201  0.011 -0.039 -0.032 -0.032
 0.412  1.331  0.205  0.013 -0.038 -0.030 -0.030
 0.414  1.334  0.209  0.016 -0.035 -0.028 -0.028
 0.416  1.338  0.212  0.019 -0.033 -0.026 -0.026
 0.418  1.342  0.216  0.021 -0.031 -0.024 -0.024
 0.420  1.345  0.221  0.024 -0.029 -0.021 -0.021
 0.422  1.348  0.225  0.026 -0.027 -0.020 -0.020
 0.424  1.351  0.229  0.030 -0.025 -0.018 -0.018
 0.426  1.356  0.232  0.032 -0.023 -0.015 -0.015
 0.428  1.359  0.237  0.035 -0.021 -0.014 -0.014
 0.430  1.362  0.241  0.038 -0.019 -0.011 -0.011
 0.432  1.365  0.245  0.040 -0.017 -0.009 -0.009
 0.434  1.369  0.248  0.043 -0.015 -0.008 -0.008
 0.436  1.372  0.253  0.045 -0.014 -0.005 -0.005
 0.438  1.375  0.257  0.049 -0.011 -0.003 -0.003
 0.440  1.378  0.261  0.051 -0.009 -0.001 -0.001
 0.442  1.381  0.264  0.053 -0.007  0.001  0.001
 0.444  1.384  0.269  0.056 -0.005  0.003  0.003
 0.446  1.387  0.272  0.059 -0.003  0.005  0.005
 0.448  1.390  0.276  0.061 -0.001  0.007  0.007
 0.450  1.393  0.279  0.063  0.001  0.009  0.009
 0.452  1.396  0.283  0.066  0.003  0.011  0.011
 0.454  1.399  0.286  0.069  0.004  0.013  0.013
 0.456  1.403  0.289  0.071  0.007  0.015  0.015
 0.458  1.406  0.293  0.073  0.009  0.016  0.016
 0.460  1.409  0.296  0.076  0.011  0.019  0.019
 0.462  1.412  0.299  0.079  0.012  0.020  0.020
 0.464  1.413  0.302  0.081  0.015  0.022  0.022
 0.466  1.417  0.305  0.083  0.017  0.024  0.024
 0.468  1.420  0.308  0.085  0.019  0.026  0.026
 0.470  1.423  0.311  0.088  0.020  0.027  0.027
 0.472  1.424  0.314  0.091  0.022  0.030  0.030
 0.474  1.427  0.316  0.093  0.025  0.031  0.031
 0.476  1.430  0.319  0.095  0.027  0.033  0.033
 0.478  1.434  0.322  0.098  0.029  0.034  0.034
 0.480  1.435  0.324  0.100  0.030  0.037  0.037
 0.482  1.438  0.327  0.102  0.032  0.038  0.038
 0.484  1.441  0.329  0.104  0.035  0.040  0.040
 0.486  1.443  0.331  0.106  0.037  0.041  0.041
 0.488  1.446  0.334  0.109  0.038  0.043  0.043
 0.490  1.447  0.335  0.111  0.040  0.044  0.044
 0.492  1.451  0.338  0.113  0.043  0.046  0.046
 0.494  1.452  0.340  0.115  0.045  0.047  0.047
 0.496  1.455  0.341  0.118  0.046  0.049  0.049
 0.498  1.458  0.344  0.120  0.048  0.050  0.050
 0.500  1.460  0.345  0.122  0.050  0.052  0.052
 0.502  1.463  0.347  0.124  0.053  0.054  0.054
 0.504  1.465  0.348  0.126  0.054  0.055  0.055
 0.506  1.466  0.350  0.129  0.056  0.057  0.057
 0.508  1.469  0.351  0.130  0.058  0.058  0.058
 0.510  1.471  0.353  0.132  0.060  0.059  0.059
 0.512  1.474  0.354  0.134  0.062  0.061  0.061
 0.514  1.475  0.356  0.136  0.063  0.062  0.062
 0.516  1.477  0.357  0.138  0.065  0.064  0.064
 0.518  1.480  0.358  0.140  0.067  0.065  0.065
 0.520  1.482  0.360  0.142  0.069  0.066  0.066
 0.522  1.483  0.361  0.143  0.071  0.067  0.067
 0.524  1.485  0.363  0.145  0.071  0.069  0.069
 0.526  1.488  0.364  0.146  0.073  0.070  0.070
 0.528  1.489  0.366  0.149  0.075  0.071  0.071
 0.530  1.491  0.366  0.150  0.076  0.072  0.072
 0.532  1.492  0.367  0.152  0.078  0.074  0.074
 0.534  1.494  0.369  0.153  0.079  0.075  0.075
 0.536  1.494  0.370  0.155  0.080  0.076  0.076
 0.538  1.495  0.370  0.156  0.081  0.078  0.078
 0.540  1.497  0.371  0.158  0.083  0.078  0.078
 0.542  1.499  0.373  0.160  0.084  0.080  0.080
 0.544  1.499  0.373  0.161  0.085  0.081  0.081
 0.546  1.500  0.374  0.162  0.087  0.081  0.081
 0.548  1.502  0.374  0.163  0.088  0.083  0.083
 0.550  1.502  0.376  0.164  0.088  0.084  0.084
 0.552  1.503  0.376  0.166  0.089  0.085  0.085
 0.554  1.503  0.377  0.168  0.090  0.086  0.086
 0.556  1.503  0.377  0.169  0.091  0.087  0.087
 0.558  1.505  0.379  0.170  0.092  0.088  0.088
 0.560  1.505  0.379  0.171  0.093  0.089  0.089
 0.562  1.505  0.379  0.172  0.094  0.090  0.090
 0.564  1.506  0.380  0.173  0.095  0.091  0.091
 0.566  1.506  0.380  0.174  0.096  0.091  0.091
 0.568  1.506  0.380  0.175  0.097  0.092  0.092
 0.570  1.506  0.382  0.175  0.097  0.094  0.094
 0.572  1.506  0.382  0.176  0.097  0.095  0.095
 0.574  1.506  0.382  0.178  0.098  0.095  0.095
 0.576  1.506  0.382  0.179  0.098  0.096  0.096
 0.578  1.505  0.382  0.179  0.099  0.097  0.097
 0.580  1.505  0.383  0.180  0.100  0.098  0.098
 0.582  1.505  0.383  0.181  0.100  0.098  0.098
 0.584  1.505  0.383  0.181  0.101  0.099  0.099
 0.586  1.503  0.383  0.182  0.101  0.100  0.100
 0.588  1.503  0.383  0.182  0.102  0.101  0.101
 0.590  1.503  0.383  0.183  0.102  0.102  0.102
 0.592  1.502  0.383  0.183  0.103  0.102  0.102
 0.594  1.502  0.383  0.184  0.103  0.103  0.103
 0.596  1.502  0.383  0.184  0.104  0.103  0.103
 0.598  1.500  0.383  0.185  0.104  0.104  0.104
 0.600  1.500  0.383  0.185  0.105  0.105  0.105
 0.602  1.500  0.383  0.185  0.105  0.105  0.105
 0.604  1.499  0.383  0.185  0.105  0.106  0.106
 0.606  1.499  0.383  0.186  0.105  0.107  0.107
 0.608  1.499  0.383  0.186  0.106  0.107  0.107
 0.610  1.497  0.383  0.186  0.106  0.108  0.108
 0.612  1.497  0.383  0.186  0.106  0.109  0.109
 0.614  1.497  0.383  0.186  0.107  0.109  0.109
 0.616  1.497  0.383  0.186  0.107  0.109  0.109
 0.618  1.495  0.383  0.186  0.107  0.110  0.110
 0.620  1.495  0.383  0.186  0.108  0.111  0.111
 0.622  1.495  0.383  0.186  0.108  0.112  0.112
 0.624  1.495  0.383  0.186  0.108  0.112  0.112
 0.626  1.495  0.383  0.186  0.109  0.112  0.112
 0.628  1.494  0.383  0.185  0.109  0.112  0.112
 0.630  1.494  0.383  0.185  0.109  0.113  0.113
 0.632  1.494  0.383  0.185  0.109  0.114  0.114
 0.634  1.494  0.382  0.184  0.110  0.114  0.114
 0.636  1.494  0.382  0.184  0.110  0.115  0.115
 0.638  1.494  0.382  0.184  0.110  0.115  0.115
 0.640  1.494  0.382  0.183  0.110  0.115  0.115
 0.642  1.494  0.382  0.183  0.110  0.115  0.115
 0.644  1.494  0.382  0.182  0.111  0.116  0.116
 0.646  1.492  0.380  0.182  0.111  0.116  0.116
 0.648  1.492  0.380  0.181  0.111  0.117  0.117
 0.650  1.492  0.380  0.181  0.111  0.117  0.117
 0.652  1.492  0.380  0.180  0.111  0.118  0.118
 0.654  1.492  0.379  0.180  0.111  0.118  0.118
 0.656  1.492  0.379  0.179  0.112  0.118  0.118
 0.658  1.492  0.379  0.179  0.112  0.119  0.119
 0.660  1.492  0.379  0.179  0.112  0.119  0.119
 0.662  1.492  0.377  0.178  0.112  0.119  0.119
 0.664  1.494  0.377  0.178  0.112  0.119  0.119
 0.666  1.494  0.377  0.176  0.113  0.120  0.120
 0.668  1.494  0.376  0.176  0.113  0.120  0.120
 0.670  1.492  0.376  0.175  0.113  0.120  0.120
 0.672  1.492  0.376  0.175  0.113  0.121  0.121
 0.674  1.492  0.374  0.175  0.113  0.121  0.121
 0.676  1.492  0.374  0.174  0.114  0.122  0.122
 0.678  1.492  0.374  0.174  0.114  0.122  0.122
 0.680  1.492  0.373  0.174  0.114  0.122  0.122
 0.682  1.492  0.373  0.173  0.114  0.122  0.122
 0.684  1.492  0.371  0.173  0.114  0.123  0.123
 0.686  1.492  0.371  0.173  0.114  0.123  0.123
 0.688  1.491  0.371  0.173  0.114  0.123  0.123
 0.690  1.491  0.370  0.172  0.114  0.124  0.124
 0.692  1.491  0.370  0.172  0.115  0.124  0.124
 0.694  1.491  0.369  0.172  0.115  0.125  0.125
 0.696  1.491  0.369  0.172  0.115  0.125  0.125
 0.698  1.491  0.367  0.172  0.116  0.126  0.126
 0.700  1.489  0.367  0.171  0.116  0.126  0.126
 0.702  1.489  0.366  0.171  0.116  0.126  0.126
 0.704  1.489  0.366  0.171  0.116  0.126  0.126
 0.706  1.489  0.364  0.171  0.117  0.126  0.126
 0.708  1.488  0.364  0.171  0.117  0.127  0.127
 0.710  1.488  0.363  0.171  0.117  0.127  0.127
 0.712  1.488  0.363  0.171  0.118  0.128  0.128
 0.714  1.486  0.361  0.170  0.118  0.128  0.128
 0.716  1.486  0.361  0.170  0.118  0.128  0.128
 0.718  1.485  0.360  0.170  0.119  0.129  0.129
 0.720  1.485  0.358  0.170  0.119  0.129  0.129
 0.722  1.485  0.358  0.170  0.119  0.129  0.129
 0.724  1.483  0.357  0.170  0.120  0.129  0.129
 0.726  1.483  0.357  0.170  0.120  0.130  0.130
 0.728  1.483  0.356  0.170  0.120  0.131  0.131
 0.730  1.482  0.356  0.170  0.121  0.131  0.131
 0.732  1.482  0.356  0.170  0.121  0.132  0.132
 0.734  1.482  0.356  0.170  0.121  0.132  0.132
 0.736  1.482  0.354  0.170  0.122  0.133  0.133
 0.738  1.482  0.354  0.170  0.122  0.134  0.134
 0.740  1.482  0.354  0.170  0.122  0.135  0.135
 0.742  1.482  0.354  0.169  0.122  0.136  0.136
 0.744  1.483  0.354  0.169  0.122  0.137  0.137
 0.746  1.485  0.354  0.169  0.122  0.138  0.138
 0.748  1.485  0.354  0.169  0.122  0.139  0.139
 0.750  1.486  0.356  0.169  0.123  0.140  0.140
 0.752  1.488  0.356  0.169  0.123  0.141  0.141
 0.754  1.491  0.356  0.169  0.123  0.143  0.143
 0.756  1.492  0.356  0.169  0.124  0.143  0.143
 0.758  1.495  0.357  0.169  0.124  0.145  0.145
 0.760  1.499  0.357  0.169  0.124  0.146  0.146
 0.762  1.502  0.358  0.169  0.125  0.147  0.147
 0.764  1.505  0.358  0.169  0.125  0.149  0.149
 0.766  1.508  0.360  0.169  0.125  0.150  0.150
 0.768  1.513  0.361  0.169  0.126  0.152  0.152
 0.770  1.517  0.361  0.169  0.126  0.153  0.153
 0.772  1.520  0.363  0.169  0.126  0.155  0.155
 0.774  1.525  0.364  0.169  0.126  0.156  0.156
 0.776  1.530  0.366  0.169  0.127  0.158  0.158
 0.778  1.534  0.367  0.169  0.127  0.160  0.160
 0.780  1.539  0.369  0.168  0.127  0.162  0.162
 0.782  1.545  0.370  0.168  0.127  0.164  0.164
 0.784  1.551  0.371  0.168  0.127  0.166  0.166
 0.786  1.556  0.374  0.169  0.128  0.168  0.168
 0.788  1.562  0.376  0.169  0.128  0.170  0.170
 0.790  1.570  0.377  0.169  0.129  0.172  0.172
 0.792  1.576  0.379  0.169  0.130  0.173  0.173
 0.794  1.584  0.382  0.170  0.131  0.176  0.176
 0.796  1.591  0.383  0.171  0.131  0.178  0.178
 0.798  1.599  0.385  0.171  0.132  0.180  0.180
 0.800  1.605  0.387  0.173  0.133  0.182  0.182
 0.802  1.613  0.389  0.174  0.135  0.184  0.184
 0.804  1.621  0.390  0.175  0.137  0.187  0.187
 0.806  1.627  0.393  0.178  0.138  0.188  0.188
 0.808  1.633  0.395  0.179  0.140  0.191  0.191
