# IsPeriodic    : True
# Period        : 0.525050 days
# Normalization : <g_mag>=0
# 
# Phase u_mag  g_mag  r_mag  i_mag  z_mag  y_mag
 0.000  0.649 -0.501 -0.460 -0.396 -0.402 -0.402
 0.002  0.649 -0.501 -0.460 -0.396 -0.402 -0.402
 0.004  0.650 -0.501 -0.460 -0.396 -0.401 -0.401
 0.006  0.651 -0.500 -0.460 -0.395 -0.401 -0.401
 0.008  0.651 -0.498 -0.460 -0.395 -0.401 -0.401
 0.010  0.653 -0.497 -0.459 -0.395 -0.399 -0.399
 0.012  0.654 -0.494 -0.459 -0.394 -0.399 -0.399
 0.014  0.656 -0.492 -0.458 -0.394 -0.397 -0.397
 0.016  0.658 -0.490 -0.458 -0.393 -0.396 -0.396
 0.018  0.660 -0.487 -0.456 -0.392 -0.394 -0.394
 0.020  0.662 -0.484 -0.455 -0.392 -0.392 -0.392
 0.022  0.665 -0.481 -0.455 -0.391 -0.390 -0.390
 0.024  0.668 -0.478 -0.454 -0.390 -0.388 -0.388
 0.026  0.670 -0.475 -0.453 -0.389 -0.386 -0.386
 0.028  0.672 -0.471 -0.451 -0.388 -0.385 -0.385
 0.030  0.675 -0.468 -0.450 -0.388 -0.382 -0.382
 0.032  0.678 -0.464 -0.448 -0.386 -0.380 -0.380
 0.034  0.680 -0.461 -0.446 -0.385 -0.379 -0.379
 0.036  0.683 -0.457 -0.445 -0.384 -0.376 -0.376
 0.038  0.686 -0.454 -0.443 -0.382 -0.374 -0.374
 0.040  0.689 -0.450 -0.441 -0.381 -0.373 -0.373
 0.042  0.692 -0.447 -0.439 -0.380 -0.371 -0.371
 0.044  0.695 -0.443 -0.437 -0.378 -0.369 -0.369
 0.046  0.698 -0.440 -0.435 -0.377 -0.367 -0.367
 0.048  0.701 -0.436 -0.432 -0.375 -0.365 -0.365
 0.050  0.704 -0.432 -0.430 -0.373 -0.363 -0.363
 0.052  0.707 -0.428 -0.427 -0.372 -0.361 -0.361
 0.054  0.711 -0.425 -0.424 -0.370 -0.360 -0.360
 0.056  0.714 -0.421 -0.422 -0.369 -0.358 -0.358
 0.058  0.718 -0.417 -0.419 -0.367 -0.356 -0.356
 0.060  0.721 -0.413 -0.416 -0.365 -0.354 -0.354
 0.062  0.724 -0.409 -0.413 -0.364 -0.353 -0.353
 0.064  0.728 -0.405 -0.410 -0.362 -0.351 -0.351
 0.066  0.732 -0.401 -0.407 -0.361 -0.350 -0.350
 0.068  0.735 -0.397 -0.404 -0.359 -0.348 -0.348
 0.070  0.739 -0.393 -0.401 -0.358 -0.347 -0.347
 0.072  0.743 -0.388 -0.399 -0.356 -0.345 -0.345
 0.074  0.747 -0.384 -0.396 -0.354 -0.344 -0.344
 0.076  0.751 -0.379 -0.393 -0.353 -0.342 -0.342
 0.078  0.755 -0.376 -0.390 -0.352 -0.341 -0.341
 0.080  0.758 -0.371 -0.387 -0.350 -0.339 -0.339
 0.082  0.763 -0.367 -0.385 -0.349 -0.338 -0.338
 0.084  0.767 -0.362 -0.382 -0.347 -0.336 -0.336
 0.086  0.771 -0.357 -0.380 -0.346 -0.335 -0.335
 0.088  0.775 -0.353 -0.377 -0.345 -0.334 -0.334
 0.090  0.779 -0.349 -0.375 -0.343 -0.332 -0.332
 0.092  0.783 -0.344 -0.373 -0.342 -0.331 -0.331
 0.094  0.788 -0.339 -0.371 -0.341 -0.330 -0.330
 0.096  0.791 -0.335 -0.368 -0.339 -0.329 -0.329
 0.098  0.796 -0.331 -0.366 -0.338 -0.327 -0.327
 0.100  0.799 -0.326 -0.364 -0.337 -0.326 -0.326
 0.102  0.804 -0.322 -0.362 -0.335 -0.325 -0.325
 0.104  0.808 -0.317 -0.359 -0.334 -0.323 -0.323
 0.106  0.812 -0.313 -0.357 -0.333 -0.322 -0.322
 0.108  0.816 -0.309 -0.355 -0.332 -0.320 -0.320
 0.110  0.819 -0.305 -0.353 -0.331 -0.319 -0.319
 0.112  0.823 -0.301 -0.352 -0.329 -0.318 -0.318
 0.114  0.827 -0.297 -0.350 -0.328 -0.317 -0.317
 0.116  0.831 -0.293 -0.348 -0.327 -0.315 -0.315
 0.118  0.834 -0.289 -0.346 -0.326 -0.314 -0.314
 0.120  0.838 -0.285 -0.344 -0.325 -0.313 -0.313
 0.122  0.842 -0.281 -0.343 -0.323 -0.311 -0.311
 0.124  0.845 -0.277 -0.341 -0.323 -0.310 -0.310
 0.126  0.849 -0.273 -0.339 -0.321 -0.309 -0.309
 0.128  0.852 -0.269 -0.337 -0.320 -0.307 -0.307
 0.130  0.855 -0.266 -0.336 -0.319 -0.306 -0.306
 0.132  0.859 -0.262 -0.335 -0.318 -0.305 -0.305
 0.134  0.863 -0.258 -0.333 -0.316 -0.303 -0.303
 0.136  0.866 -0.255 -0.331 -0.315 -0.302 -0.302
 0.138  0.869 -0.251 -0.330 -0.314 -0.301 -0.301
 0.140  0.872 -0.248 -0.329 -0.313 -0.299 -0.299
 0.142  0.875 -0.245 -0.327 -0.312 -0.298 -0.298
 0.144  0.879 -0.241 -0.326 -0.310 -0.296 -0.296
 0.146  0.882 -0.238 -0.324 -0.309 -0.295 -0.295
 0.148  0.885 -0.235 -0.322 -0.308 -0.294 -0.294
 0.150  0.888 -0.232 -0.321 -0.307 -0.292 -0.292
 0.152  0.891 -0.228 -0.320 -0.305 -0.291 -0.291
 0.154  0.894 -0.225 -0.318 -0.304 -0.290 -0.290
 0.156  0.897 -0.222 -0.316 -0.303 -0.288 -0.288
 0.158  0.900 -0.219 -0.314 -0.301 -0.287 -0.287
 0.160  0.903 -0.216 -0.313 -0.300 -0.285 -0.285
 0.162  0.906 -0.214 -0.311 -0.299 -0.284 -0.284
 0.164  0.909 -0.210 -0.309 -0.297 -0.282 -0.282
 0.166  0.912 -0.207 -0.308 -0.296 -0.281 -0.281
 0.168  0.915 -0.204 -0.306 -0.295 -0.279 -0.279
 0.170  0.918 -0.201 -0.304 -0.293 -0.278 -0.278
 0.172  0.921 -0.198 -0.303 -0.292 -0.277 -0.277
 0.174  0.924 -0.195 -0.301 -0.291 -0.275 -0.275
 0.176  0.927 -0.192 -0.299 -0.289 -0.274 -0.274
 0.178  0.930 -0.188 -0.298 -0.288 -0.273 -0.273
 0.180  0.933 -0.185 -0.296 -0.286 -0.271 -0.271
 0.182  0.936 -0.182 -0.294 -0.285 -0.270 -0.270
 0.184  0.939 -0.179 -0.292 -0.284 -0.268 -0.268
 0.186  0.942 -0.176 -0.290 -0.282 -0.267 -0.267
 0.188  0.945 -0.173 -0.289 -0.281 -0.266 -0.266
 0.190  0.948 -0.169 -0.287 -0.279 -0.264 -0.264
 0.192  0.952 -0.166 -0.285 -0.278 -0.263 -0.263
 0.194  0.955 -0.163 -0.283 -0.276 -0.262 -0.262
 0.196  0.958 -0.159 -0.281 -0.275 -0.261 -0.261
 0.198  0.962 -0.156 -0.279 -0.274 -0.259 -0.259
 0.200  0.965 -0.153 -0.277 -0.272 -0.258 -0.258
 0.202  0.968 -0.149 -0.276 -0.271 -0.257 -0.257
 0.204  0.971 -0.146 -0.274 -0.269 -0.256 -0.256
 0.206  0.974 -0.143 -0.272 -0.268 -0.255 -0.255
 0.208  0.978 -0.139 -0.270 -0.266 -0.253 -0.253
 0.210  0.981 -0.136 -0.268 -0.265 -0.252 -0.252
 0.212  0.985 -0.132 -0.266 -0.264 -0.251 -0.251
 0.214  0.988 -0.129 -0.264 -0.262 -0.250 -0.250
 0.216  0.991 -0.125 -0.262 -0.261 -0.249 -0.249
 0.218  0.995 -0.122 -0.260 -0.260 -0.248 -0.248
 0.220  0.998 -0.118 -0.258 -0.259 -0.247 -0.247
 0.222  1.002 -0.114 -0.257 -0.258 -0.245 -0.245
 0.224  1.006 -0.111 -0.254 -0.256 -0.245 -0.245
 0.226  1.008 -0.107 -0.253 -0.255 -0.243 -0.243
 0.228  1.012 -0.103 -0.251 -0.254 -0.242 -0.242
 0.230  1.016 -0.099 -0.249 -0.253 -0.241 -0.241
 0.232  1.020 -0.096 -0.247 -0.251 -0.240 -0.240
 0.234  1.023 -0.092 -0.245 -0.250 -0.239 -0.239
 0.236  1.026 -0.088 -0.243 -0.249 -0.238 -0.238
 0.238  1.030 -0.085 -0.242 -0.248 -0.237 -0.237
 0.240  1.033 -0.081 -0.239 -0.247 -0.236 -0.236
 0.242  1.037 -0.077 -0.238 -0.246 -0.235 -0.235
 0.244  1.040 -0.074 -0.236 -0.244 -0.234 -0.234
 0.246  1.043 -0.070 -0.234 -0.243 -0.233 -0.233
 0.248  1.046 -0.066 -0.232 -0.243 -0.232 -0.232
 0.250  1.050 -0.063 -0.230 -0.241 -0.231 -0.231
 0.252  1.053 -0.059 -0.229 -0.240 -0.230 -0.230
 0.254  1.056 -0.056 -0.226 -0.240 -0.228 -0.228
 0.256  1.059 -0.052 -0.225 -0.238 -0.228 -0.228
 0.258  1.062 -0.049 -0.223 -0.237 -0.226 -0.226
 0.260  1.065 -0.046 -0.221 -0.236 -0.225 -0.225
 0.262  1.068 -0.043 -0.219 -0.235 -0.224 -0.224
 0.264  1.071 -0.040 -0.217 -0.234 -0.223 -0.223
 0.266  1.074 -0.037 -0.215 -0.233 -0.222 -0.222
 0.268  1.077 -0.033 -0.213 -0.232 -0.221 -0.221
 0.270  1.080 -0.030 -0.212 -0.231 -0.220 -0.220
 0.272  1.083 -0.027 -0.210 -0.230 -0.219 -0.219
 0.274  1.086 -0.024 -0.208 -0.229 -0.217 -0.217
 0.276  1.089 -0.021 -0.206 -0.228 -0.216 -0.216
 0.278  1.091 -0.018 -0.204 -0.226 -0.215 -0.215
 0.280  1.094 -0.015 -0.203 -0.225 -0.214 -0.214
 0.282  1.097 -0.012 -0.201 -0.224 -0.213 -0.213
 0.284  1.099 -0.009 -0.199 -0.223 -0.211 -0.211
 0.286  1.102 -0.007 -0.197 -0.221 -0.210 -0.210
 0.288  1.104 -0.004 -0.195 -0.220 -0.209 -0.209
 0.290  1.107 -0.001 -0.193 -0.219 -0.208 -0.208
 0.292  1.110  0.001 -0.191 -0.217 -0.207 -0.207
 0.294  1.112  0.004 -0.189 -0.216 -0.206 -0.206
 0.296  1.114  0.007 -0.187 -0.214 -0.204 -0.204
 0.298  1.117  0.009 -0.185 -0.213 -0.203 -0.203
 0.300  1.119  0.012 -0.183 -0.211 -0.202 -0.202
 0.302  1.122  0.015 -0.181 -0.210 -0.200 -0.200
 0.304  1.124  0.017 -0.179 -0.208 -0.199 -0.199
 0.306  1.126  0.019 -0.176 -0.207 -0.198 -0.198
 0.308  1.128  0.022 -0.174 -0.205 -0.197 -0.197
 0.310  1.131  0.025 -0.172 -0.203 -0.195 -0.195
 0.312  1.134  0.027 -0.170 -0.202 -0.194 -0.194
 0.314  1.136  0.029 -0.168 -0.200 -0.193 -0.193
 0.316  1.138  0.032 -0.166 -0.198 -0.192 -0.192
 0.318  1.140  0.034 -0.164 -0.197 -0.190 -0.190
 0.320  1.142  0.037 -0.161 -0.195 -0.189 -0.189
 0.322  1.145  0.040 -0.159 -0.193 -0.188 -0.188
 0.324  1.147  0.042 -0.157 -0.191 -0.186 -0.186
 0.326  1.149  0.044 -0.154 -0.189 -0.185 -0.185
 0.328  1.151  0.047 -0.152 -0.187 -0.184 -0.184
 0.330  1.154  0.049 -0.149 -0.186 -0.183 -0.183
 0.332  1.157  0.052 -0.147 -0.184 -0.182 -0.182
 0.334  1.159  0.055 -0.144 -0.182 -0.181 -0.181
 0.336  1.161  0.057 -0.142 -0.180 -0.179 -0.179
 0.338  1.163  0.059 -0.140 -0.178 -0.178 -0.178
 0.340  1.165  0.062 -0.137 -0.176 -0.177 -0.177
 0.342  1.168  0.065 -0.135 -0.174 -0.175 -0.175
 0.344  1.170  0.067 -0.132 -0.172 -0.174 -0.174
 0.346  1.173  0.070 -0.130 -0.171 -0.173 -0.173
 0.348  1.175  0.073 -0.127 -0.168 -0.172 -0.172
 0.350  1.177  0.075 -0.125 -0.167 -0.171 -0.171
 0.352  1.180  0.077 -0.123 -0.165 -0.169 -0.169
 0.354  1.182  0.080 -0.120 -0.163 -0.168 -0.168
 0.356  1.184  0.083 -0.117 -0.162 -0.167 -0.167
 0.358  1.186  0.085 -0.115 -0.160 -0.166 -0.166
 0.360  1.189  0.088 -0.113 -0.159 -0.164 -0.164
 0.362  1.191  0.091 -0.111 -0.157 -0.164 -0.164
 0.364  1.194  0.093 -0.109 -0.155 -0.162 -0.162
 0.366  1.196  0.096 -0.106 -0.154 -0.161 -0.161
 0.368  1.198  0.098 -0.104 -0.152 -0.160 -0.160
 0.370  1.200  0.101 -0.102 -0.151 -0.158 -0.158
 0.372  1.203  0.103 -0.100 -0.149 -0.158 -0.158
 0.374  1.205  0.106 -0.097 -0.148 -0.156 -0.156
 0.376  1.207  0.109 -0.096 -0.146 -0.155 -0.155
 0.378  1.209  0.111 -0.093 -0.145 -0.154 -0.154
 0.380  1.212  0.114 -0.092 -0.144 -0.153 -0.153
 0.382  1.214  0.117 -0.089 -0.142 -0.152 -0.152
 0.384  1.217  0.119 -0.088 -0.141 -0.150 -0.150
 0.386  1.219  0.121 -0.086 -0.140 -0.150 -0.150
 0.388  1.221  0.124 -0.084 -0.138 -0.148 -0.148
 0.390  1.224  0.126 -0.082 -0.137 -0.147 -0.147
 0.392  1.226  0.129 -0.080 -0.136 -0.146 -0.146
 0.394  1.227  0.131 -0.079 -0.135 -0.145 -0.145
 0.396  1.229  0.133 -0.077 -0.134 -0.144 -0.144
 0.398  1.232  0.136 -0.075 -0.133 -0.142 -0.142
 0.400  1.234  0.138 -0.074 -0.132 -0.141 -0.141
 0.402  1.236  0.140 -0.072 -0.131 -0.140 -0.140
 0.404  1.238  0.142 -0.070 -0.129 -0.139 -0.139
 0.406  1.241  0.144 -0.069 -0.129 -0.138 -0.138
 0.408  1.243  0.146 -0.068 -0.128 -0.137 -0.137
 0.410  1.245  0.148 -0.066 -0.126 -0.136 -0.136
 0.412  1.247  0.151 -0.065 -0.125 -0.135 -0.135
 0.414  1.249  0.152 -0.063 -0.125 -0.133 -0.133
 0.416  1.251  0.155 -0.062 -0.123 -0.133 -0.133
 0.418  1.253  0.156 -0.060 -0.122 -0.131 -0.131
 0.420  1.255  0.158 -0.059 -0.121 -0.130 -0.130
 0.422  1.257  0.160 -0.058 -0.120 -0.129 -0.129
 0.424  1.259  0.162 -0.056 -0.119 -0.128 -0.128
 0.426  1.261  0.163 -0.055 -0.118 -0.127 -0.127
 0.428  1.263  0.166 -0.054 -0.117 -0.126 -0.126
 0.430  1.265  0.167 -0.052 -0.116 -0.125 -0.125
 0.432  1.267  0.169 -0.051 -0.115 -0.124 -0.124
 0.434  1.269  0.170 -0.050 -0.114 -0.123 -0.123
 0.436  1.271  0.172 -0.049 -0.113 -0.122 -0.122
 0.438  1.273  0.173 -0.047 -0.112 -0.121 -0.121
 0.440  1.275  0.175 -0.046 -0.111 -0.119 -0.119
 0.442  1.277  0.177 -0.045 -0.110 -0.119 -0.119
 0.444  1.279  0.178 -0.043 -0.109 -0.117 -0.117
 0.446  1.281  0.180 -0.042 -0.107 -0.116 -0.116
 0.448  1.282  0.180 -0.041 -0.106 -0.115 -0.115
 0.450  1.284  0.182 -0.039 -0.106 -0.114 -0.114
 0.452  1.286  0.184 -0.038 -0.104 -0.113 -0.113
 0.454  1.288  0.185 -0.037 -0.103 -0.112 -0.112
 0.456  1.289  0.187 -0.036 -0.102 -0.111 -0.111
 0.458  1.291  0.188 -0.034 -0.101 -0.110 -0.110
 0.460  1.293  0.189 -0.033 -0.100 -0.109 -0.109
 0.462  1.294  0.191 -0.032 -0.099 -0.108 -0.108
 0.464  1.296  0.192 -0.031 -0.098 -0.107 -0.107
 0.466  1.297  0.193 -0.029 -0.096 -0.106 -0.106
 0.468  1.299  0.195 -0.028 -0.095 -0.105 -0.105
 0.470  1.300  0.196 -0.027 -0.094 -0.104 -0.104
 0.472  1.302  0.198 -0.025 -0.093 -0.103 -0.103
 0.474  1.303  0.199 -0.024 -0.092 -0.102 -0.102
 0.476  1.305  0.200 -0.023 -0.091 -0.102 -0.102
 0.478  1.306  0.202 -0.022 -0.090 -0.100 -0.100
 0.480  1.308  0.202 -0.020 -0.089 -0.099 -0.099
 0.482  1.308  0.204 -0.019 -0.087 -0.099 -0.099
 0.484  1.310  0.206 -0.018 -0.087 -0.098 -0.098
 0.486  1.311  0.207 -0.017 -0.085 -0.097 -0.097
 0.488  1.312  0.208 -0.015 -0.084 -0.096 -0.096
 0.490  1.314  0.210 -0.014 -0.083 -0.095 -0.095
 0.492  1.314  0.211 -0.013 -0.082 -0.094 -0.094
 0.494  1.315  0.212 -0.012 -0.081 -0.093 -0.093
 0.496  1.317  0.213 -0.011 -0.080 -0.092 -0.092
 0.498  1.317  0.215 -0.010 -0.079 -0.091 -0.091
 0.500  1.318  0.216 -0.009 -0.078 -0.091 -0.091
 0.502  1.320  0.217 -0.007 -0.077 -0.090 -0.090
 0.504  1.320  0.219 -0.006 -0.076 -0.089 -0.089
 0.506  1.321  0.220 -0.005 -0.076 -0.088 -0.088
 0.508  1.322  0.221 -0.004 -0.075 -0.087 -0.087
 0.510  1.322  0.223 -0.003 -0.074 -0.086 -0.086
 0.512  1.323  0.224 -0.002 -0.073 -0.085 -0.085
 0.514  1.324  0.225 -0.001 -0.072 -0.085 -0.085
 0.516  1.325  0.227 -0.000 -0.072 -0.084 -0.084
 0.518  1.325  0.228  0.001 -0.071 -0.083 -0.083
 0.520  1.326  0.229  0.001 -0.070 -0.083 -0.083
 0.522  1.327  0.230  0.003 -0.069 -0.082 -0.082
 0.524  1.328  0.232  0.003 -0.068 -0.081 -0.081
 0.526  1.328  0.232  0.004 -0.068 -0.080 -0.080
 0.528  1.328  0.234  0.005 -0.067 -0.080 -0.080
 0.530  1.329  0.235  0.005 -0.066 -0.079 -0.079
 0.532  1.330  0.236  0.006 -0.065 -0.078 -0.078
 0.534  1.331  0.236  0.007 -0.065 -0.077 -0.077
 0.536  1.331  0.237  0.008 -0.064 -0.076 -0.076
 0.538  1.332  0.238  0.008 -0.064 -0.076 -0.076
 0.540  1.333  0.239  0.009 -0.063 -0.075 -0.075
 0.542  1.333  0.239  0.009 -0.062 -0.074 -0.074
 0.544  1.334  0.240  0.010 -0.062 -0.074 -0.074
 0.546  1.334  0.240  0.010 -0.061 -0.073 -0.073
 0.548  1.335  0.241  0.011 -0.061 -0.072 -0.072
 0.550  1.336  0.242  0.012 -0.060 -0.071 -0.071
 0.552  1.336  0.242  0.012 -0.060 -0.071 -0.071
 0.554  1.337  0.242  0.013 -0.059 -0.070 -0.070
 0.556  1.337  0.243  0.013 -0.058 -0.069 -0.069
 0.558  1.338  0.243  0.013 -0.058 -0.069 -0.069
 0.560  1.338  0.243  0.014 -0.057 -0.068 -0.068
 0.562  1.339  0.243  0.014 -0.056 -0.067 -0.067
 0.564  1.340  0.243  0.014 -0.056 -0.066 -0.066
 0.566  1.340  0.243  0.015 -0.055 -0.066 -0.066
 0.568  1.340  0.243  0.015 -0.054 -0.065 -0.065
 0.570  1.341  0.243  0.016 -0.054 -0.064 -0.064
 0.572  1.342  0.243  0.016 -0.053 -0.064 -0.064
 0.574  1.343  0.243  0.016 -0.053 -0.063 -0.063
 0.576  1.343  0.243  0.017 -0.052 -0.063 -0.063
 0.578  1.343  0.242  0.017 -0.051 -0.062 -0.062
 0.580  1.344  0.242  0.017 -0.050 -0.061 -0.061
 0.582  1.344  0.241  0.018 -0.049 -0.060 -0.060
 0.584  1.345  0.240  0.018 -0.049 -0.060 -0.060
 0.586  1.346  0.240  0.019 -0.048 -0.059 -0.059
 0.588  1.346  0.239  0.019 -0.047 -0.059 -0.059
 0.590  1.346  0.239  0.020 -0.046 -0.058 -0.058
 0.592  1.347  0.239  0.020 -0.045 -0.057 -0.057
 0.594  1.347  0.238  0.021 -0.044 -0.057 -0.057
 0.596  1.348  0.238  0.021 -0.043 -0.056 -0.056
 0.598  1.349  0.237  0.022 -0.042 -0.056 -0.056
 0.600  1.349  0.237  0.022 -0.041 -0.055 -0.055
 0.602  1.349  0.236  0.023 -0.040 -0.055 -0.055
 0.604  1.349  0.236  0.023 -0.039 -0.054 -0.054
 0.606  1.350  0.236  0.024 -0.038 -0.053 -0.053
 0.608  1.350  0.236  0.024 -0.037 -0.053 -0.053
 0.610  1.351  0.236  0.025 -0.036 -0.052 -0.052
 0.612  1.351  0.236  0.026 -0.035 -0.052 -0.052
 0.614  1.352  0.236  0.026 -0.034 -0.051 -0.051
 0.616  1.352  0.236  0.027 -0.033 -0.051 -0.051
 0.618  1.352  0.236  0.027 -0.032 -0.050 -0.050
 0.620  1.352  0.236  0.028 -0.031 -0.049 -0.049
 0.622  1.352  0.236  0.029 -0.030 -0.049 -0.049
 0.624  1.353  0.236  0.030 -0.029 -0.048 -0.048
 0.626  1.353  0.236  0.030 -0.028 -0.048 -0.048
 0.628  1.353  0.236  0.031 -0.027 -0.047 -0.047
 0.630  1.354  0.237  0.031 -0.026 -0.047 -0.047
 0.632  1.354  0.237  0.032 -0.025 -0.046 -0.046
 0.634  1.354  0.238  0.033 -0.024 -0.046 -0.046
 0.636  1.354  0.239  0.033 -0.022 -0.045 -0.045
 0.638  1.354  0.239  0.034 -0.022 -0.044 -0.044
 0.640  1.354  0.239  0.035 -0.021 -0.044 -0.044
 0.642  1.354  0.240  0.036 -0.020 -0.044 -0.044
 0.644  1.354  0.241  0.037 -0.019 -0.043 -0.043
 0.646  1.355  0.242  0.037 -0.018 -0.043 -0.043
 0.648  1.355  0.243  0.039 -0.017 -0.042 -0.042
 0.650  1.355  0.243  0.040 -0.016 -0.041 -0.041
 0.652  1.355  0.244  0.040 -0.015 -0.041 -0.041
 0.654  1.355  0.246  0.041 -0.014 -0.041 -0.041
 0.656  1.355  0.247  0.042 -0.013 -0.040 -0.040
 0.658  1.355  0.247  0.044 -0.012 -0.040 -0.040
 0.660  1.355  0.249  0.044 -0.011 -0.039 -0.039
 0.662  1.355  0.250  0.045 -0.011 -0.039 -0.039
 0.664  1.356  0.251  0.046 -0.010 -0.038 -0.038
 0.666  1.356  0.252  0.048 -0.009 -0.038 -0.038
 0.668  1.356  0.254  0.049 -0.008 -0.037 -0.037
 0.670  1.356  0.254  0.050 -0.007 -0.037 -0.037
 0.672  1.356  0.256  0.051 -0.007 -0.036 -0.036
 0.674  1.357  0.257  0.053 -0.006 -0.035 -0.035
 0.676  1.357  0.258  0.054 -0.005 -0.035 -0.035
 0.678  1.357  0.259  0.055 -0.004 -0.034 -0.034
 0.680  1.357  0.260  0.056 -0.003 -0.034 -0.034
 0.682  1.358  0.261  0.058 -0.003 -0.033 -0.033
 0.684  1.358  0.262  0.059 -0.002 -0.032 -0.032
 0.686  1.359  0.263  0.060 -0.001 -0.032 -0.032
 0.688  1.359  0.264  0.062 -0.000 -0.031 -0.031
 0.690  1.360  0.265  0.063  0.001 -0.030 -0.030
 0.692  1.360  0.266  0.065  0.001 -0.029 -0.029
 0.694  1.360  0.267  0.067  0.002 -0.028 -0.028
 0.696  1.361  0.268  0.068  0.003 -0.027 -0.027
 0.698  1.362  0.269  0.069  0.004 -0.027 -0.027
 0.700  1.363  0.270  0.071  0.004 -0.026 -0.026
 0.702  1.363  0.271  0.073  0.005 -0.025 -0.025
 0.704  1.363  0.272  0.074  0.006 -0.024 -0.024
 0.706  1.364  0.272  0.076  0.007 -0.023 -0.023
 0.708  1.365  0.273  0.078  0.008 -0.022 -0.022
 0.710  1.366  0.274  0.079  0.008 -0.021 -0.021
 0.712  1.366  0.275  0.081  0.009 -0.020 -0.020
 0.714  1.368  0.276  0.082  0.011 -0.019 -0.019
 0.716  1.369  0.276  0.083  0.012 -0.018 -0.018
 0.718  1.369  0.277  0.085  0.012 -0.017 -0.017
 0.720  1.370  0.279  0.086  0.014 -0.016 -0.016
 0.722  1.372  0.280  0.087  0.015 -0.014 -0.014
 0.724  1.372  0.280  0.088  0.016 -0.013 -0.013
 0.726  1.373  0.280  0.090  0.017 -0.012 -0.012
 0.728  1.375  0.281  0.091  0.018 -0.010 -0.010
 0.730  1.375  0.282  0.091  0.019 -0.009 -0.009
 0.732  1.376  0.283  0.092  0.020 -0.008 -0.008
 0.734  1.378  0.283  0.094  0.022 -0.007 -0.007
 0.736  1.378  0.283  0.094  0.023 -0.005 -0.005
 0.738  1.379  0.284  0.095  0.024 -0.004 -0.004
 0.740  1.380  0.284  0.096  0.025 -0.003 -0.003
 0.742  1.381  0.285  0.096  0.027 -0.002 -0.002
 0.744  1.382  0.285  0.097  0.028 -0.000 -0.000
 0.746  1.383  0.285  0.097  0.029  0.001  0.001
 0.748  1.384  0.285  0.098  0.031  0.002  0.002
 0.750  1.384  0.285  0.099  0.032  0.003  0.003
 0.752  1.385  0.285  0.099  0.034  0.004  0.004
 0.754  1.386  0.284  0.099  0.035  0.006  0.006
 0.756  1.386  0.284  0.100  0.037  0.007  0.007
 0.758  1.387  0.283  0.100  0.039  0.008  0.008
 0.760  1.388  0.283  0.100  0.040  0.009  0.009
 0.762  1.389  0.283  0.101  0.041  0.010  0.010
 0.764  1.389  0.282  0.101  0.043  0.010  0.010
 0.766  1.389  0.280  0.101  0.044  0.011  0.011
 0.768  1.390  0.280  0.101  0.045  0.012  0.012
 0.770  1.390  0.279  0.101  0.046  0.013  0.013
 0.772  1.391  0.277  0.101  0.046  0.014  0.014
 0.774  1.391  0.276  0.100  0.047  0.015  0.015
 0.776  1.391  0.275  0.100  0.047  0.015  0.015
 0.778  1.392  0.273  0.099  0.047  0.016  0.016
 0.780  1.392  0.272  0.099  0.046  0.016  0.016
 0.782  1.392  0.270  0.097  0.046  0.017  0.017
 0.784  1.392  0.269  0.096  0.045  0.018  0.018
 0.786  1.392  0.266  0.095  0.043  0.018  0.018
 0.788  1.392  0.265  0.093  0.043  0.018  0.018
 0.790  1.392  0.262  0.091  0.041  0.019  0.019
 0.792  1.393  0.261  0.088  0.039  0.020  0.020
 0.794  1.393  0.258  0.086  0.038  0.020  0.020
 0.796  1.393  0.256  0.083  0.035  0.021  0.021
 0.798  1.393  0.254  0.079  0.033  0.021  0.021
 0.800  1.393  0.251  0.076  0.031  0.021  0.021
 0.802  1.392  0.249  0.071  0.028  0.022  0.022
 0.804  1.392  0.246  0.067  0.025  0.022  0.022
 0.806  1.392  0.243  0.063  0.022  0.022  0.022
 0.808  1.390  0.239  0.058  0.019  0.022  0.022
