# IsPeriodic    : True
# Period        : 0.477397 days
# Normalization : <g_mag>=0
# 
# Phase u_mag  g_mag  r_mag  i_mag  z_mag  y_mag
 0.000  0.254 -0.923 -0.737 -0.638 -0.517 -0.517
 0.002  0.254 -0.923 -0.737 -0.638 -0.517 -0.517
 0.004  0.256 -0.922 -0.736 -0.637 -0.517 -0.517
 0.006  0.259 -0.921 -0.735 -0.635 -0.516 -0.516
 0.008  0.264 -0.918 -0.733 -0.634 -0.516 -0.516
 0.010  0.269 -0.915 -0.732 -0.631 -0.515 -0.515
 0.012  0.275 -0.911 -0.730 -0.628 -0.515 -0.515
 0.014  0.284 -0.907 -0.728 -0.625 -0.514 -0.514
 0.016  0.291 -0.903 -0.724 -0.622 -0.513 -0.513
 0.018  0.301 -0.898 -0.722 -0.618 -0.512 -0.512
 0.020  0.309 -0.892 -0.719 -0.614 -0.510 -0.510
 0.022  0.319 -0.887 -0.717 -0.610 -0.510 -0.510
 0.024  0.328 -0.881 -0.714 -0.606 -0.508 -0.508
 0.026  0.338 -0.876 -0.711 -0.602 -0.506 -0.506
 0.028  0.348 -0.870 -0.707 -0.598 -0.504 -0.504
 0.030  0.357 -0.864 -0.704 -0.594 -0.503 -0.503
 0.032  0.367 -0.858 -0.701 -0.591 -0.501 -0.501
 0.034  0.375 -0.853 -0.698 -0.587 -0.499 -0.499
 0.036  0.384 -0.846 -0.694 -0.584 -0.496 -0.496
 0.038  0.392 -0.841 -0.690 -0.580 -0.494 -0.494
 0.040  0.401 -0.834 -0.686 -0.577 -0.492 -0.492
 0.042  0.411 -0.827 -0.682 -0.573 -0.489 -0.489
 0.044  0.420 -0.820 -0.678 -0.569 -0.487 -0.487
 0.046  0.428 -0.814 -0.674 -0.566 -0.484 -0.484
 0.048  0.437 -0.807 -0.670 -0.562 -0.481 -0.481
 0.050  0.445 -0.800 -0.665 -0.558 -0.477 -0.477
 0.052  0.454 -0.792 -0.660 -0.554 -0.474 -0.474
 0.054  0.463 -0.784 -0.655 -0.550 -0.471 -0.471
 0.056  0.473 -0.776 -0.650 -0.546 -0.468 -0.468
 0.058  0.481 -0.768 -0.645 -0.542 -0.464 -0.464
 0.060  0.490 -0.759 -0.639 -0.538 -0.461 -0.461
 0.062  0.498 -0.750 -0.633 -0.534 -0.456 -0.456
 0.064  0.507 -0.742 -0.627 -0.530 -0.453 -0.453
 0.066  0.516 -0.732 -0.621 -0.526 -0.448 -0.448
 0.068  0.524 -0.723 -0.615 -0.522 -0.444 -0.444
 0.070  0.533 -0.713 -0.609 -0.517 -0.440 -0.440
 0.072  0.541 -0.704 -0.603 -0.513 -0.436 -0.436
 0.074  0.550 -0.694 -0.597 -0.509 -0.431 -0.431
 0.076  0.558 -0.685 -0.591 -0.505 -0.428 -0.428
 0.078  0.567 -0.675 -0.585 -0.501 -0.423 -0.423
 0.080  0.576 -0.666 -0.578 -0.497 -0.419 -0.419
 0.082  0.583 -0.656 -0.572 -0.493 -0.415 -0.415
 0.084  0.591 -0.647 -0.566 -0.488 -0.410 -0.410
 0.086  0.600 -0.637 -0.560 -0.484 -0.406 -0.406
 0.088  0.609 -0.628 -0.554 -0.480 -0.403 -0.403
 0.090  0.616 -0.619 -0.549 -0.476 -0.398 -0.398
 0.092  0.624 -0.609 -0.543 -0.472 -0.395 -0.395
 0.094  0.633 -0.600 -0.537 -0.468 -0.391 -0.391
 0.096  0.640 -0.591 -0.531 -0.464 -0.388 -0.388
 0.098  0.649 -0.582 -0.526 -0.460 -0.385 -0.385
 0.100  0.656 -0.574 -0.521 -0.456 -0.381 -0.381
 0.102  0.664 -0.564 -0.516 -0.452 -0.378 -0.378
 0.104  0.672 -0.556 -0.511 -0.448 -0.374 -0.374
 0.106  0.679 -0.548 -0.506 -0.444 -0.371 -0.371
 0.108  0.687 -0.540 -0.501 -0.441 -0.368 -0.368
 0.110  0.694 -0.532 -0.496 -0.437 -0.366 -0.366
 0.112  0.702 -0.524 -0.491 -0.433 -0.363 -0.363
 0.114  0.709 -0.517 -0.486 -0.430 -0.360 -0.360
 0.116  0.716 -0.509 -0.482 -0.426 -0.357 -0.357
 0.118  0.723 -0.502 -0.477 -0.423 -0.354 -0.354
 0.120  0.730 -0.494 -0.473 -0.419 -0.351 -0.351
 0.122  0.737 -0.487 -0.469 -0.416 -0.349 -0.349
 0.124  0.743 -0.480 -0.464 -0.413 -0.347 -0.347
 0.126  0.750 -0.474 -0.460 -0.409 -0.344 -0.344
 0.128  0.757 -0.467 -0.456 -0.405 -0.341 -0.341
 0.130  0.763 -0.460 -0.452 -0.402 -0.339 -0.339
 0.132  0.770 -0.453 -0.448 -0.399 -0.337 -0.337
 0.134  0.776 -0.446 -0.444 -0.396 -0.335 -0.335
 0.136  0.783 -0.441 -0.440 -0.393 -0.333 -0.333
 0.138  0.789 -0.434 -0.437 -0.390 -0.331 -0.331
 0.140  0.796 -0.429 -0.433 -0.387 -0.330 -0.330
 0.142  0.802 -0.423 -0.430 -0.383 -0.328 -0.328
 0.144  0.808 -0.417 -0.427 -0.380 -0.326 -0.326
 0.146  0.813 -0.411 -0.423 -0.377 -0.324 -0.324
 0.148  0.819 -0.406 -0.420 -0.375 -0.322 -0.322
 0.150  0.825 -0.400 -0.417 -0.372 -0.320 -0.320
 0.152  0.830 -0.395 -0.413 -0.369 -0.319 -0.319
 0.154  0.836 -0.390 -0.410 -0.366 -0.317 -0.317
 0.156  0.842 -0.384 -0.407 -0.363 -0.315 -0.315
 0.158  0.848 -0.379 -0.404 -0.361 -0.314 -0.314
 0.160  0.853 -0.375 -0.400 -0.357 -0.311 -0.311
 0.162  0.858 -0.369 -0.397 -0.355 -0.310 -0.310
 0.164  0.863 -0.364 -0.394 -0.353 -0.309 -0.309
 0.166  0.869 -0.358 -0.391 -0.350 -0.306 -0.306
 0.168  0.875 -0.353 -0.387 -0.347 -0.305 -0.305
 0.170  0.879 -0.348 -0.384 -0.345 -0.303 -0.303
 0.172  0.885 -0.342 -0.381 -0.342 -0.301 -0.301
 0.174  0.891 -0.337 -0.378 -0.339 -0.299 -0.299
 0.176  0.896 -0.331 -0.374 -0.337 -0.298 -0.298
 0.178  0.901 -0.326 -0.371 -0.334 -0.295 -0.295
 0.180  0.906 -0.321 -0.368 -0.332 -0.294 -0.294
 0.182  0.912 -0.315 -0.364 -0.329 -0.292 -0.292
 0.184  0.916 -0.310 -0.361 -0.327 -0.289 -0.289
 0.186  0.922 -0.304 -0.358 -0.324 -0.288 -0.288
 0.188  0.928 -0.297 -0.353 -0.321 -0.286 -0.286
 0.190  0.932 -0.292 -0.350 -0.319 -0.284 -0.284
 0.192  0.938 -0.287 -0.347 -0.317 -0.282 -0.282
 0.194  0.942 -0.281 -0.343 -0.314 -0.280 -0.280
 0.196  0.948 -0.276 -0.340 -0.312 -0.279 -0.279
 0.198  0.953 -0.270 -0.336 -0.310 -0.276 -0.276
 0.200  0.958 -0.265 -0.333 -0.307 -0.275 -0.275
 0.202  0.964 -0.260 -0.330 -0.305 -0.273 -0.273
 0.204  0.968 -0.254 -0.326 -0.302 -0.270 -0.270
 0.206  0.974 -0.247 -0.323 -0.300 -0.269 -0.269
 0.208  0.979 -0.242 -0.320 -0.298 -0.267 -0.267
 0.210  0.984 -0.237 -0.316 -0.295 -0.265 -0.265
 0.212  0.989 -0.231 -0.313 -0.294 -0.262 -0.262
 0.214  0.994 -0.224 -0.309 -0.291 -0.261 -0.261
 0.216  0.999 -0.219 -0.306 -0.289 -0.259 -0.259
 0.218  1.004 -0.214 -0.303 -0.287 -0.257 -0.257
 0.220  1.009 -0.208 -0.299 -0.284 -0.255 -0.255
 0.222  1.014 -0.201 -0.296 -0.283 -0.253 -0.253
 0.224  1.019 -0.196 -0.292 -0.280 -0.251 -0.251
 0.226  1.024 -0.190 -0.289 -0.278 -0.249 -0.249
 0.228  1.029 -0.185 -0.286 -0.276 -0.247 -0.247
 0.230  1.034 -0.180 -0.283 -0.274 -0.245 -0.245
 0.232  1.039 -0.174 -0.279 -0.272 -0.243 -0.243
 0.234  1.044 -0.169 -0.276 -0.270 -0.241 -0.241
 0.236  1.048 -0.163 -0.273 -0.268 -0.239 -0.239
 0.238  1.054 -0.158 -0.270 -0.265 -0.237 -0.237
 0.240  1.058 -0.153 -0.267 -0.264 -0.235 -0.235
 0.242  1.062 -0.147 -0.262 -0.262 -0.233 -0.233
 0.244  1.068 -0.142 -0.259 -0.259 -0.232 -0.232
 0.246  1.072 -0.136 -0.256 -0.258 -0.230 -0.230
 0.248  1.077 -0.132 -0.253 -0.255 -0.227 -0.227
 0.250  1.081 -0.127 -0.250 -0.253 -0.226 -0.226
 0.252  1.085 -0.121 -0.247 -0.251 -0.224 -0.224
 0.254  1.089 -0.117 -0.244 -0.249 -0.222 -0.222
 0.256  1.094 -0.112 -0.241 -0.247 -0.220 -0.220
 0.258  1.098 -0.106 -0.238 -0.245 -0.219 -0.219
 0.260  1.102 -0.102 -0.235 -0.243 -0.216 -0.216
 0.262  1.107 -0.097 -0.232 -0.241 -0.214 -0.214
 0.264  1.111 -0.093 -0.229 -0.239 -0.213 -0.213
 0.266  1.115 -0.089 -0.226 -0.236 -0.211 -0.211
 0.268  1.120 -0.083 -0.224 -0.235 -0.209 -0.209
 0.270  1.122 -0.079 -0.221 -0.232 -0.207 -0.207
 0.272  1.127 -0.075 -0.218 -0.231 -0.205 -0.205
 0.274  1.131 -0.070 -0.215 -0.228 -0.203 -0.203
 0.276  1.135 -0.066 -0.213 -0.227 -0.202 -0.202
 0.278  1.138 -0.062 -0.210 -0.225 -0.200 -0.200
 0.280  1.142 -0.058 -0.207 -0.222 -0.198 -0.198
 0.282  1.145 -0.054 -0.204 -0.221 -0.196 -0.196
 0.284  1.150 -0.050 -0.202 -0.218 -0.194 -0.194
 0.286  1.154 -0.046 -0.199 -0.217 -0.193 -0.193
 0.288  1.157 -0.041 -0.196 -0.214 -0.191 -0.191
 0.290  1.160 -0.037 -0.194 -0.213 -0.189 -0.189
 0.292  1.164 -0.033 -0.191 -0.210 -0.187 -0.187
 0.294  1.167 -0.029 -0.189 -0.209 -0.186 -0.186
 0.296  1.170 -0.025 -0.186 -0.206 -0.183 -0.183
 0.298  1.174 -0.021 -0.183 -0.204 -0.182 -0.182
 0.300  1.177 -0.017 -0.181 -0.203 -0.181 -0.181
 0.302  1.180 -0.013 -0.178 -0.200 -0.178 -0.178
 0.304  1.184 -0.010 -0.176 -0.199 -0.177 -0.177
 0.306  1.187 -0.006 -0.173 -0.196 -0.175 -0.175
 0.308  1.190 -0.002 -0.169 -0.195 -0.173 -0.173
 0.310  1.193  0.002 -0.167 -0.192 -0.172 -0.172
 0.312  1.197  0.006 -0.164 -0.191 -0.170 -0.170
 0.314  1.200  0.009 -0.162 -0.188 -0.168 -0.168
 0.316  1.203  0.013 -0.159 -0.186 -0.167 -0.167
 0.318  1.207  0.017 -0.156 -0.184 -0.164 -0.164
 0.320  1.210  0.021 -0.154 -0.182 -0.163 -0.163
 0.322  1.213  0.025 -0.151 -0.180 -0.162 -0.162
 0.324  1.217  0.029 -0.149 -0.178 -0.159 -0.159
 0.326  1.220  0.032 -0.146 -0.176 -0.158 -0.158
 0.328  1.224  0.036 -0.143 -0.174 -0.156 -0.156
 0.330  1.227  0.040 -0.141 -0.172 -0.154 -0.154
 0.332  1.231  0.044 -0.138 -0.170 -0.153 -0.153
 0.334  1.234  0.047 -0.136 -0.168 -0.151 -0.151
 0.336  1.237  0.051 -0.133 -0.166 -0.149 -0.149
 0.338  1.241  0.055 -0.130 -0.164 -0.148 -0.148
 0.340  1.245  0.059 -0.128 -0.162 -0.146 -0.146
 0.342  1.248  0.063 -0.125 -0.160 -0.145 -0.145
 0.344  1.253  0.066 -0.123 -0.158 -0.143 -0.143
 0.346  1.255  0.070 -0.120 -0.155 -0.141 -0.141
 0.348  1.260  0.074 -0.117 -0.154 -0.140 -0.140
 0.350  1.263  0.076 -0.115 -0.151 -0.138 -0.138
 0.352  1.267  0.080 -0.112 -0.149 -0.136 -0.136
 0.354  1.271  0.085 -0.110 -0.147 -0.135 -0.135
 0.356  1.274  0.089 -0.107 -0.145 -0.133 -0.133
 0.358  1.278  0.091 -0.104 -0.143 -0.132 -0.132
 0.360  1.283  0.095 -0.102 -0.141 -0.129 -0.129
 0.362  1.287  0.099 -0.099 -0.139 -0.128 -0.128
 0.364  1.290  0.102 -0.097 -0.136 -0.126 -0.126
 0.366  1.294  0.106 -0.094 -0.134 -0.125 -0.125
 0.368  1.298  0.110 -0.091 -0.133 -0.123 -0.123
 0.370  1.303  0.114 -0.089 -0.130 -0.121 -0.121
 0.372  1.306  0.117 -0.086 -0.128 -0.120 -0.120
 0.374  1.310  0.121 -0.084 -0.126 -0.118 -0.118
 0.376  1.314  0.125 -0.081 -0.124 -0.116 -0.116
 0.378  1.318  0.128 -0.077 -0.121 -0.115 -0.115
 0.380  1.323  0.132 -0.075 -0.120 -0.113 -0.113
 0.382  1.326  0.136 -0.072 -0.118 -0.111 -0.111
 0.384  1.330  0.140 -0.070 -0.116 -0.110 -0.110
 0.386  1.334  0.143 -0.067 -0.114 -0.108 -0.108
 0.388  1.337  0.147 -0.065 -0.111 -0.106 -0.106
 0.390  1.341  0.151 -0.062 -0.110 -0.105 -0.105
 0.392  1.346  0.155 -0.059 -0.107 -0.103 -0.103
 0.394  1.349  0.158 -0.057 -0.106 -0.101 -0.101
 0.396  1.353  0.162 -0.054 -0.103 -0.099 -0.099
 0.398  1.356  0.166 -0.052 -0.101 -0.098 -0.098
 0.400  1.360  0.168 -0.049 -0.099 -0.096 -0.096
 0.402  1.363  0.173 -0.047 -0.097 -0.094 -0.094
 0.404  1.367  0.177 -0.044 -0.096 -0.092 -0.092
 0.406  1.370  0.181 -0.042 -0.093 -0.091 -0.091
 0.408  1.374  0.183 -0.039 -0.092 -0.089 -0.089
 0.410  1.377  0.187 -0.037 -0.089 -0.087 -0.087
 0.412  1.381  0.192 -0.034 -0.088 -0.086 -0.086
 0.414  1.384  0.196 -0.032 -0.085 -0.083 -0.083
 0.416  1.387  0.198 -0.029 -0.084 -0.082 -0.082
 0.418  1.391  0.202 -0.027 -0.081 -0.080 -0.080
 0.420  1.394  0.206 -0.024 -0.080 -0.078 -0.078
 0.422  1.397  0.210 -0.022 -0.078 -0.077 -0.077
 0.424  1.400  0.215 -0.019 -0.076 -0.075 -0.075
 0.426  1.404  0.217 -0.017 -0.074 -0.073 -0.073
 0.428  1.407  0.221 -0.014 -0.072 -0.071 -0.071
 0.430  1.410  0.225 -0.012 -0.070 -0.069 -0.069
 0.432  1.413  0.229 -0.009 -0.069 -0.067 -0.067
 0.434  1.416  0.232 -0.007 -0.066 -0.066 -0.066
 0.436  1.419  0.236 -0.004 -0.065 -0.064 -0.064
 0.438  1.421  0.240 -0.002 -0.062 -0.062 -0.062
 0.440  1.424  0.244  0.001 -0.061 -0.061 -0.061
 0.442  1.427  0.247  0.003 -0.059 -0.058 -0.058
 0.444  1.430  0.251  0.005 -0.057 -0.057 -0.057
 0.446  1.433  0.254  0.008 -0.055 -0.056 -0.056
 0.448  1.436  0.258  0.010 -0.054 -0.053 -0.053
 0.450  1.439  0.261  0.014 -0.051 -0.052 -0.052
 0.452  1.442  0.265  0.016 -0.050 -0.050 -0.050
 0.454  1.444  0.267  0.018 -0.048 -0.048 -0.048
 0.456  1.447  0.270  0.020 -0.046 -0.047 -0.047
 0.458  1.450  0.274  0.023 -0.044 -0.045 -0.045
 0.460  1.453  0.277  0.025 -0.043 -0.043 -0.043
 0.462  1.456  0.280  0.027 -0.040 -0.042 -0.042
 0.464  1.457  0.282  0.029 -0.039 -0.040 -0.040
 0.466  1.460  0.285  0.031 -0.037 -0.039 -0.039
 0.468  1.463  0.288  0.034 -0.036 -0.037 -0.037
 0.470  1.466  0.290  0.036 -0.033 -0.035 -0.035
 0.472  1.467  0.293  0.038 -0.032 -0.034 -0.034
 0.474  1.470  0.296  0.040 -0.030 -0.032 -0.032
 0.476  1.473  0.299  0.042 -0.028 -0.030 -0.030
 0.478  1.476  0.301  0.044 -0.026 -0.028 -0.028
 0.480  1.477  0.303  0.046 -0.025 -0.027 -0.027
 0.482  1.480  0.305  0.048 -0.023 -0.026 -0.026
 0.484  1.483  0.308  0.050 -0.021 -0.024 -0.024
 0.486  1.484  0.309  0.052 -0.019 -0.023 -0.023
 0.488  1.487  0.312  0.054 -0.018 -0.020 -0.020
 0.490  1.489  0.313  0.056 -0.015 -0.019 -0.019
 0.492  1.492  0.316  0.058 -0.014 -0.018 -0.018
 0.494  1.493  0.317  0.060 -0.012 -0.016 -0.016
 0.496  1.496  0.319  0.062 -0.011 -0.015 -0.015
 0.498  1.499  0.322  0.064 -0.008 -0.013 -0.013
 0.500  1.500  0.323  0.065 -0.007 -0.012 -0.012
 0.502  1.503  0.324  0.067 -0.005 -0.010 -0.010
 0.504  1.505  0.326  0.069 -0.003 -0.009 -0.009
 0.506  1.506  0.327  0.071 -0.001 -0.007 -0.007
 0.508  1.509  0.328  0.072  0.000 -0.006 -0.006
 0.510  1.510  0.330  0.074  0.002 -0.004 -0.004
 0.512  1.513  0.331  0.076  0.004 -0.003 -0.003
 0.514  1.515  0.332  0.077  0.005 -0.001 -0.001
 0.516  1.516  0.334  0.079  0.008  0.000  0.000
 0.518  1.519  0.335  0.081  0.009  0.001  0.001
 0.520  1.520  0.336  0.082  0.011  0.002  0.002
 0.522  1.522  0.338  0.084  0.012  0.004  0.004
 0.524  1.523  0.339  0.085  0.013  0.005  0.005
 0.526  1.526  0.341  0.087  0.015  0.007  0.007
 0.528  1.527  0.342  0.088  0.016  0.008  0.008
 0.530  1.529  0.342  0.089  0.018  0.009  0.009
 0.532  1.530  0.343  0.091  0.019  0.010  0.010
 0.534  1.532  0.345  0.092  0.020  0.012  0.012
 0.536  1.532  0.346  0.093  0.022  0.012  0.012
 0.538  1.533  0.346  0.094  0.022  0.014  0.014
 0.540  1.535  0.347  0.096  0.023  0.015  0.015
 0.542  1.536  0.349  0.097  0.025  0.016  0.016
 0.544  1.536  0.349  0.098  0.026  0.017  0.017
 0.546  1.537  0.350  0.099  0.026  0.018  0.018
 0.548  1.539  0.350  0.100  0.028  0.019  0.019
 0.550  1.539  0.351  0.101  0.029  0.020  0.020
 0.552  1.540  0.351  0.102  0.030  0.021  0.021
 0.554  1.540  0.353  0.103  0.030  0.023  0.023
 0.556  1.540  0.353  0.104  0.031  0.023  0.023
 0.558  1.542  0.354  0.106  0.032  0.024  0.024
 0.560  1.542  0.354  0.107  0.033  0.026  0.026
 0.562  1.542  0.354  0.108  0.033  0.026  0.026
 0.564  1.543  0.355  0.108  0.033  0.027  0.027
 0.566  1.543  0.355  0.109  0.034  0.028  0.028
 0.568  1.543  0.355  0.110  0.035  0.029  0.029
 0.570  1.543  0.357  0.111  0.035  0.030  0.030
 0.572  1.543  0.357  0.111  0.036  0.031  0.031
 0.574  1.543  0.357  0.112  0.036  0.031  0.031
 0.576  1.543  0.357  0.113  0.036  0.032  0.032
 0.578  1.542  0.357  0.113  0.037  0.034  0.034
 0.580  1.542  0.358  0.114  0.037  0.034  0.034
 0.582  1.542  0.358  0.114  0.037  0.035  0.035
 0.584  1.542  0.358  0.115  0.037  0.036  0.036
 0.586  1.540  0.358  0.115  0.037  0.037  0.037
 0.588  1.540  0.358  0.116  0.037  0.037  0.037
 0.590  1.540  0.358  0.116  0.037  0.038  0.038
 0.592  1.539  0.358  0.117  0.038  0.039  0.039
 0.594  1.539  0.358  0.117  0.038  0.039  0.039
 0.596  1.539  0.358  0.117  0.038  0.040  0.040
 0.598  1.537  0.358  0.118  0.039  0.041  0.041
 0.600  1.537  0.358  0.118  0.039  0.042  0.042
 0.602  1.537  0.358  0.118  0.039  0.042  0.042
 0.604  1.536  0.358  0.119  0.040  0.042  0.042
 0.606  1.536  0.358  0.119  0.040  0.043  0.043
 0.608  1.536  0.358  0.119  0.040  0.044  0.044
 0.610  1.535  0.358  0.119  0.040  0.045  0.045
 0.612  1.535  0.358  0.120  0.041  0.045  0.045
 0.614  1.535  0.358  0.120  0.041  0.045  0.045
 0.616  1.535  0.358  0.120  0.041  0.046  0.046
 0.618  1.533  0.358  0.120  0.041  0.047  0.047
 0.620  1.533  0.358  0.120  0.041  0.048  0.048
 0.622  1.533  0.358  0.120  0.042  0.048  0.048
 0.624  1.533  0.358  0.120  0.042  0.048  0.048
 0.626  1.533  0.358  0.121  0.042  0.049  0.049
 0.628  1.532  0.358  0.121  0.043  0.049  0.049
 0.630  1.532  0.358  0.121  0.043  0.050  0.050
 0.632  1.532  0.358  0.121  0.044  0.050  0.050
 0.634  1.532  0.357  0.121  0.044  0.050  0.050
 0.636  1.532  0.357  0.120  0.044  0.051  0.051
 0.638  1.532  0.357  0.120  0.044  0.051  0.051
 0.640  1.532  0.357  0.120  0.044  0.052  0.052
 0.642  1.532  0.357  0.120  0.045  0.052  0.052
 0.644  1.532  0.357  0.120  0.045  0.053  0.053
 0.646  1.530  0.355  0.120  0.046  0.053  0.053
 0.648  1.530  0.355  0.120  0.046  0.053  0.053
 0.650  1.530  0.355  0.120  0.047  0.053  0.053
 0.652  1.530  0.355  0.119  0.047  0.054  0.054
 0.654  1.530  0.354  0.119  0.048  0.055  0.055
 0.656  1.530  0.354  0.119  0.048  0.055  0.055
 0.658  1.530  0.354  0.119  0.048  0.056  0.056
 0.660  1.530  0.354  0.119  0.048  0.056  0.056
 0.662  1.530  0.353  0.118  0.048  0.056  0.056
 0.664  1.532  0.353  0.118  0.049  0.056  0.056
 0.666  1.532  0.353  0.118  0.049  0.057  0.057
 0.668  1.532  0.351  0.118  0.049  0.058  0.058
 0.670  1.530  0.351  0.117  0.050  0.058  0.058
 0.672  1.530  0.351  0.117  0.050  0.059  0.059
 0.674  1.530  0.350  0.117  0.050  0.059  0.059
 0.676  1.530  0.350  0.116  0.050  0.059  0.059
 0.678  1.530  0.350  0.116  0.050  0.060  0.060
 0.680  1.530  0.349  0.116  0.050  0.061  0.061
 0.682  1.530  0.349  0.115  0.050  0.061  0.061
 0.684  1.530  0.347  0.115  0.050  0.061  0.061
 0.686  1.530  0.347  0.115  0.050  0.062  0.062
 0.688  1.529  0.347  0.114  0.050  0.062  0.062
 0.690  1.529  0.346  0.114  0.050  0.063  0.063
 0.692  1.529  0.346  0.114  0.050  0.064  0.064
 0.694  1.529  0.345  0.113  0.049  0.064  0.064
 0.696  1.529  0.345  0.113  0.049  0.064  0.064
 0.698  1.529  0.343  0.112  0.049  0.065  0.065
 0.700  1.527  0.343  0.112  0.049  0.066  0.066
 0.702  1.527  0.342  0.112  0.049  0.067  0.067
 0.704  1.527  0.342  0.111  0.048  0.067  0.067
 0.706  1.527  0.341  0.111  0.048  0.067  0.067
 0.708  1.526  0.341  0.110  0.048  0.068  0.068
 0.710  1.526  0.339  0.110  0.048  0.069  0.069
 0.712  1.526  0.339  0.109  0.047  0.069  0.069
 0.714  1.525  0.338  0.109  0.047  0.069  0.069
 0.716  1.525  0.338  0.108  0.046  0.070  0.070
 0.718  1.523  0.336  0.108  0.045  0.071  0.071
 0.720  1.523  0.335  0.108  0.044  0.072  0.072
 0.722  1.523  0.335  0.107  0.044  0.072  0.072
 0.724  1.522  0.334  0.107  0.044  0.073  0.073
 0.726  1.522  0.334  0.107  0.044  0.074  0.074
 0.728  1.522  0.332  0.107  0.043  0.075  0.075
 0.730  1.520  0.332  0.107  0.043  0.075  0.075
 0.732  1.520  0.332  0.107  0.043  0.076  0.076
 0.734  1.520  0.332  0.107  0.043  0.077  0.077
 0.736  1.520  0.331  0.107  0.043  0.078  0.078
 0.738  1.520  0.331  0.108  0.043  0.078  0.078
 0.740  1.520  0.331  0.108  0.043  0.080  0.080
 0.742  1.520  0.331  0.109  0.044  0.080  0.080
 0.744  1.522  0.331  0.110  0.044  0.081  0.081
 0.746  1.523  0.331  0.110  0.044  0.082  0.082
 0.748  1.523  0.331  0.111  0.045  0.083  0.083
 0.750  1.525  0.332  0.112  0.046  0.084  0.084
 0.752  1.526  0.332  0.113  0.048  0.085  0.085
 0.754  1.529  0.332  0.114  0.048  0.086  0.086
 0.756  1.530  0.332  0.115  0.050  0.087  0.087
 0.758  1.533  0.334  0.117  0.051  0.088  0.088
 0.760  1.536  0.334  0.118  0.052  0.089  0.089
 0.762  1.539  0.335  0.119  0.054  0.091  0.091
 0.764  1.542  0.335  0.121  0.056  0.091  0.091
 0.766  1.545  0.336  0.122  0.058  0.093  0.093
 0.768  1.549  0.338  0.124  0.059  0.094  0.094
 0.770  1.553  0.338  0.126  0.062  0.095  0.095
 0.772  1.556  0.339  0.128  0.064  0.097  0.097
 0.774  1.560  0.341  0.130  0.067  0.097  0.097
 0.776  1.565  0.342  0.132  0.069  0.099  0.099
 0.778  1.569  0.343  0.134  0.072  0.100  0.100
 0.780  1.573  0.345  0.136  0.074  0.102  0.102
 0.782  1.579  0.346  0.138  0.078  0.102  0.102
 0.784  1.585  0.347  0.141  0.081  0.104  0.104
 0.786  1.589  0.350  0.143  0.084  0.105  0.105
 0.788  1.595  0.351  0.146  0.087  0.107  0.107
 0.790  1.602  0.353  0.148  0.090  0.108  0.108
 0.792  1.608  0.354  0.151  0.093  0.110  0.110
 0.794  1.615  0.357  0.153  0.097  0.112  0.112
 0.796  1.622  0.358  0.156  0.100  0.113  0.113
 0.798  1.629  0.359  0.159  0.103  0.115  0.115
 0.800  1.635  0.362  0.162  0.107  0.117  0.117
 0.802  1.642  0.364  0.164  0.111  0.119  0.119
 0.804  1.649  0.365  0.167  0.114  0.121  0.121
 0.806  1.655  0.368  0.170  0.117  0.123  0.123
 0.808  1.661  0.369  0.173  0.120  0.125  0.125
