# IsPeriodic    : True
# Period        : 0.613193 days
# Normalization : <g_mag>=0
# 
# Phase u_mag  g_mag  r_mag  i_mag  z_mag  y_mag
 0.000  0.642 -0.555 -0.533 -0.481 -0.408 -0.408
 0.002  0.643 -0.555 -0.533 -0.481 -0.408 -0.408
 0.004  0.643 -0.555 -0.532 -0.480 -0.408 -0.408
 0.006  0.643 -0.554 -0.532 -0.480 -0.407 -0.407
 0.008  0.644 -0.553 -0.531 -0.480 -0.407 -0.407
 0.010  0.645 -0.552 -0.531 -0.479 -0.406 -0.406
 0.012  0.647 -0.551 -0.530 -0.478 -0.405 -0.405
 0.014  0.648 -0.549 -0.529 -0.477 -0.404 -0.404
 0.016  0.649 -0.548 -0.529 -0.476 -0.403 -0.403
 0.018  0.651 -0.546 -0.528 -0.474 -0.403 -0.403
 0.020  0.653 -0.544 -0.527 -0.473 -0.401 -0.401
 0.022  0.655 -0.542 -0.526 -0.472 -0.400 -0.400
 0.024  0.657 -0.540 -0.524 -0.471 -0.399 -0.399
 0.026  0.658 -0.537 -0.523 -0.469 -0.397 -0.397
 0.028  0.661 -0.536 -0.522 -0.468 -0.396 -0.396
 0.030  0.663 -0.533 -0.521 -0.466 -0.395 -0.395
 0.032  0.665 -0.530 -0.520 -0.465 -0.393 -0.393
 0.034  0.668 -0.527 -0.518 -0.463 -0.392 -0.392
 0.036  0.669 -0.524 -0.516 -0.461 -0.391 -0.391
 0.038  0.672 -0.522 -0.515 -0.460 -0.389 -0.389
 0.040  0.674 -0.518 -0.513 -0.458 -0.388 -0.388
 0.042  0.677 -0.515 -0.511 -0.456 -0.386 -0.386
 0.044  0.679 -0.511 -0.510 -0.455 -0.385 -0.385
 0.046  0.683 -0.508 -0.508 -0.453 -0.384 -0.384
 0.048  0.685 -0.505 -0.505 -0.452 -0.382 -0.382
 0.050  0.688 -0.501 -0.503 -0.449 -0.381 -0.381
 0.052  0.691 -0.498 -0.501 -0.448 -0.380 -0.380
 0.054  0.694 -0.493 -0.498 -0.446 -0.379 -0.379
 0.056  0.698 -0.489 -0.496 -0.444 -0.377 -0.377
 0.058  0.701 -0.485 -0.494 -0.442 -0.376 -0.376
 0.060  0.704 -0.481 -0.491 -0.440 -0.375 -0.375
 0.062  0.708 -0.476 -0.489 -0.438 -0.374 -0.374
 0.064  0.711 -0.472 -0.486 -0.436 -0.372 -0.372
 0.066  0.715 -0.467 -0.483 -0.435 -0.371 -0.371
 0.068  0.719 -0.461 -0.480 -0.432 -0.370 -0.370
 0.070  0.723 -0.457 -0.477 -0.430 -0.368 -0.368
 0.072  0.727 -0.451 -0.475 -0.428 -0.368 -0.368
 0.074  0.730 -0.446 -0.472 -0.426 -0.366 -0.366
 0.076  0.735 -0.441 -0.469 -0.424 -0.365 -0.365
 0.078  0.739 -0.435 -0.466 -0.422 -0.364 -0.364
 0.080  0.743 -0.430 -0.463 -0.420 -0.362 -0.362
 0.082  0.747 -0.424 -0.460 -0.418 -0.361 -0.361
 0.084  0.751 -0.419 -0.456 -0.416 -0.360 -0.360
 0.086  0.755 -0.413 -0.454 -0.413 -0.359 -0.359
 0.088  0.759 -0.408 -0.451 -0.411 -0.358 -0.358
 0.090  0.763 -0.402 -0.448 -0.409 -0.357 -0.357
 0.092  0.767 -0.397 -0.445 -0.406 -0.355 -0.355
 0.094  0.771 -0.391 -0.442 -0.404 -0.354 -0.354
 0.096  0.776 -0.386 -0.439 -0.402 -0.353 -0.353
 0.098  0.780 -0.381 -0.435 -0.400 -0.352 -0.352
 0.100  0.784 -0.375 -0.433 -0.398 -0.351 -0.351
 0.102  0.787 -0.371 -0.430 -0.395 -0.350 -0.350
 0.104  0.791 -0.365 -0.427 -0.393 -0.349 -0.349
 0.106  0.796 -0.360 -0.423 -0.392 -0.347 -0.347
 0.108  0.800 -0.355 -0.421 -0.389 -0.347 -0.347
 0.110  0.804 -0.350 -0.418 -0.387 -0.345 -0.345
 0.112  0.807 -0.346 -0.415 -0.386 -0.344 -0.344
 0.114  0.812 -0.341 -0.412 -0.383 -0.343 -0.343
 0.116  0.816 -0.336 -0.409 -0.382 -0.342 -0.342
 0.118  0.820 -0.332 -0.406 -0.380 -0.341 -0.341
 0.120  0.823 -0.327 -0.403 -0.378 -0.340 -0.340
 0.122  0.827 -0.322 -0.400 -0.376 -0.339 -0.339
 0.124  0.832 -0.318 -0.397 -0.374 -0.338 -0.338
 0.126  0.836 -0.314 -0.394 -0.373 -0.337 -0.337
 0.128  0.839 -0.309 -0.391 -0.371 -0.336 -0.336
 0.130  0.843 -0.306 -0.388 -0.369 -0.334 -0.334
 0.132  0.848 -0.301 -0.385 -0.368 -0.333 -0.333
 0.134  0.851 -0.297 -0.382 -0.366 -0.333 -0.333
 0.136  0.855 -0.293 -0.379 -0.364 -0.331 -0.331
 0.138  0.859 -0.289 -0.376 -0.363 -0.330 -0.330
 0.140  0.863 -0.285 -0.373 -0.361 -0.329 -0.329
 0.142  0.867 -0.282 -0.369 -0.359 -0.328 -0.328
 0.144  0.871 -0.278 -0.367 -0.358 -0.327 -0.327
 0.146  0.875 -0.274 -0.364 -0.357 -0.326 -0.326
 0.148  0.878 -0.271 -0.361 -0.355 -0.325 -0.325
 0.150  0.883 -0.267 -0.358 -0.354 -0.324 -0.324
 0.152  0.886 -0.263 -0.355 -0.352 -0.323 -0.323
 0.154  0.890 -0.259 -0.353 -0.351 -0.322 -0.322
 0.156  0.894 -0.257 -0.350 -0.350 -0.321 -0.321
 0.158  0.898 -0.253 -0.347 -0.349 -0.320 -0.320
 0.160  0.902 -0.249 -0.344 -0.347 -0.319 -0.319
 0.162  0.905 -0.245 -0.341 -0.346 -0.318 -0.318
 0.164  0.909 -0.243 -0.339 -0.345 -0.317 -0.317
 0.166  0.913 -0.239 -0.336 -0.344 -0.316 -0.316
 0.168  0.917 -0.235 -0.334 -0.343 -0.315 -0.315
 0.170  0.920 -0.232 -0.331 -0.341 -0.314 -0.314
 0.172  0.924 -0.228 -0.328 -0.340 -0.313 -0.313
 0.174  0.928 -0.224 -0.326 -0.339 -0.312 -0.312
 0.176  0.932 -0.220 -0.323 -0.337 -0.312 -0.312
 0.178  0.935 -0.217 -0.321 -0.336 -0.310 -0.310
 0.180  0.939 -0.213 -0.318 -0.334 -0.309 -0.309
 0.182  0.943 -0.209 -0.316 -0.333 -0.309 -0.309
 0.184  0.946 -0.206 -0.313 -0.332 -0.308 -0.308
 0.186  0.950 -0.202 -0.311 -0.331 -0.307 -0.307
 0.188  0.954 -0.198 -0.309 -0.329 -0.305 -0.305
 0.190  0.957 -0.195 -0.307 -0.328 -0.305 -0.305
 0.192  0.960 -0.191 -0.304 -0.326 -0.304 -0.304
 0.194  0.965 -0.186 -0.302 -0.325 -0.303 -0.303
 0.196  0.968 -0.182 -0.300 -0.323 -0.302 -0.302
 0.198  0.971 -0.179 -0.298 -0.322 -0.301 -0.301
 0.200  0.975 -0.175 -0.296 -0.320 -0.300 -0.300
 0.202  0.979 -0.171 -0.294 -0.319 -0.299 -0.299
 0.204  0.982 -0.167 -0.292 -0.317 -0.298 -0.298
 0.206  0.986 -0.163 -0.290 -0.316 -0.297 -0.297
 0.208  0.989 -0.159 -0.288 -0.314 -0.296 -0.296
 0.210  0.992 -0.155 -0.286 -0.313 -0.295 -0.295
 0.212  0.996 -0.151 -0.284 -0.311 -0.294 -0.294
 0.214  1.000 -0.146 -0.282 -0.309 -0.293 -0.293
 0.216  1.003 -0.143 -0.280 -0.308 -0.292 -0.292
 0.218  1.006 -0.138 -0.278 -0.306 -0.291 -0.291
 0.220  1.010 -0.134 -0.276 -0.304 -0.291 -0.291
 0.222  1.013 -0.130 -0.275 -0.303 -0.290 -0.290
 0.224  1.017 -0.126 -0.273 -0.301 -0.289 -0.289
 0.226  1.020 -0.121 -0.271 -0.299 -0.288 -0.288
 0.228  1.023 -0.118 -0.269 -0.298 -0.287 -0.287
 0.230  1.027 -0.113 -0.267 -0.296 -0.286 -0.286
 0.232  1.030 -0.109 -0.265 -0.295 -0.285 -0.285
 0.234  1.033 -0.106 -0.264 -0.293 -0.284 -0.284
 0.236  1.037 -0.101 -0.262 -0.291 -0.283 -0.283
 0.238  1.039 -0.097 -0.259 -0.290 -0.282 -0.282
 0.240  1.042 -0.094 -0.257 -0.288 -0.281 -0.281
 0.242  1.046 -0.090 -0.256 -0.286 -0.281 -0.281
 0.244  1.049 -0.086 -0.254 -0.284 -0.279 -0.279
 0.246  1.052 -0.082 -0.252 -0.283 -0.278 -0.278
 0.248  1.055 -0.079 -0.250 -0.281 -0.277 -0.277
 0.250  1.058 -0.075 -0.248 -0.279 -0.277 -0.277
 0.252  1.062 -0.071 -0.246 -0.278 -0.275 -0.275
 0.254  1.064 -0.068 -0.244 -0.276 -0.274 -0.274
 0.256  1.068 -0.064 -0.242 -0.274 -0.274 -0.274
 0.258  1.071 -0.061 -0.240 -0.273 -0.272 -0.272
 0.260  1.073 -0.057 -0.238 -0.271 -0.271 -0.271
 0.262  1.077 -0.055 -0.236 -0.270 -0.270 -0.270
 0.264  1.079 -0.051 -0.234 -0.268 -0.269 -0.269
 0.266  1.083 -0.048 -0.232 -0.266 -0.268 -0.268
 0.268  1.086 -0.044 -0.230 -0.265 -0.267 -0.267
 0.270  1.088 -0.042 -0.228 -0.263 -0.266 -0.266
 0.272  1.091 -0.039 -0.226 -0.262 -0.265 -0.265
 0.274  1.094 -0.035 -0.224 -0.260 -0.264 -0.264
 0.276  1.097 -0.032 -0.222 -0.259 -0.263 -0.263
 0.278  1.100 -0.030 -0.219 -0.257 -0.261 -0.261
 0.280  1.103 -0.027 -0.217 -0.255 -0.260 -0.260
 0.282  1.105 -0.024 -0.215 -0.254 -0.259 -0.259
 0.284  1.109 -0.021 -0.213 -0.253 -0.258 -0.258
 0.286  1.111 -0.018 -0.211 -0.251 -0.257 -0.257
 0.288  1.114 -0.016 -0.209 -0.249 -0.256 -0.256
 0.290  1.117 -0.013 -0.207 -0.248 -0.254 -0.254
 0.292  1.119 -0.010 -0.205 -0.247 -0.253 -0.253
 0.294  1.122 -0.008 -0.203 -0.245 -0.252 -0.252
 0.296  1.124 -0.005 -0.201 -0.244 -0.250 -0.250
 0.298  1.128 -0.003 -0.199 -0.242 -0.249 -0.249
 0.300  1.130 -0.001 -0.197 -0.241 -0.248 -0.248
 0.302  1.133  0.002 -0.195 -0.240 -0.247 -0.247
 0.304  1.135  0.005 -0.193 -0.238 -0.246 -0.246
 0.306  1.138  0.007 -0.191 -0.237 -0.244 -0.244
 0.308  1.141  0.009 -0.189 -0.235 -0.243 -0.243
 0.310  1.144  0.012 -0.187 -0.234 -0.242 -0.242
 0.312  1.146  0.015 -0.184 -0.232 -0.240 -0.240
 0.314  1.149  0.018 -0.182 -0.231 -0.239 -0.239
 0.316  1.152  0.020 -0.180 -0.230 -0.238 -0.238
 0.318  1.155  0.023 -0.179 -0.228 -0.236 -0.236
 0.320  1.157  0.026 -0.177 -0.226 -0.235 -0.235
 0.322  1.160  0.029 -0.175 -0.225 -0.234 -0.234
 0.324  1.162  0.032 -0.173 -0.224 -0.232 -0.232
 0.326  1.165  0.034 -0.170 -0.222 -0.231 -0.231
 0.328  1.168  0.037 -0.168 -0.221 -0.230 -0.230
 0.330  1.170  0.040 -0.167 -0.219 -0.229 -0.229
 0.332  1.173  0.043 -0.165 -0.218 -0.228 -0.228
 0.334  1.175  0.045 -0.163 -0.217 -0.226 -0.226
 0.336  1.178  0.048 -0.161 -0.215 -0.225 -0.225
 0.338  1.181  0.052 -0.159 -0.214 -0.224 -0.224
 0.340  1.184  0.055 -0.157 -0.212 -0.223 -0.223
 0.342  1.186  0.058 -0.155 -0.211 -0.222 -0.222
 0.344  1.189  0.060 -0.153 -0.210 -0.221 -0.221
 0.346  1.191  0.064 -0.151 -0.208 -0.219 -0.219
 0.348  1.194  0.067 -0.149 -0.206 -0.218 -0.218
 0.350  1.197  0.070 -0.147 -0.205 -0.217 -0.217
 0.352  1.200  0.073 -0.145 -0.204 -0.216 -0.216
 0.354  1.202  0.076 -0.143 -0.202 -0.215 -0.215
 0.356  1.205  0.080 -0.141 -0.200 -0.214 -0.214
 0.358  1.207  0.083 -0.140 -0.199 -0.213 -0.213
 0.360  1.210  0.086 -0.137 -0.198 -0.211 -0.211
 0.362  1.212  0.089 -0.135 -0.196 -0.211 -0.211
 0.364  1.216  0.093 -0.134 -0.194 -0.209 -0.209
 0.366  1.218  0.096 -0.132 -0.193 -0.208 -0.208
 0.368  1.221  0.099 -0.130 -0.192 -0.208 -0.208
 0.370  1.223  0.103 -0.128 -0.190 -0.206 -0.206
 0.372  1.226  0.106 -0.126 -0.188 -0.205 -0.205
 0.374  1.228  0.109 -0.124 -0.187 -0.204 -0.204
 0.376  1.230  0.112 -0.123 -0.186 -0.203 -0.203
 0.378  1.232  0.115 -0.121 -0.184 -0.202 -0.202
 0.380  1.235  0.119 -0.119 -0.182 -0.201 -0.201
 0.382  1.237  0.121 -0.117 -0.181 -0.201 -0.201
 0.384  1.240  0.125 -0.116 -0.180 -0.199 -0.199
 0.386  1.242  0.128 -0.114 -0.178 -0.198 -0.198
 0.388  1.244  0.131 -0.112 -0.177 -0.197 -0.197
 0.390  1.247  0.134 -0.110 -0.175 -0.196 -0.196
 0.392  1.248  0.136 -0.109 -0.174 -0.195 -0.195
 0.394  1.251  0.139 -0.107 -0.172 -0.194 -0.194
 0.396  1.252  0.142 -0.105 -0.171 -0.193 -0.193
 0.398  1.255  0.145 -0.103 -0.169 -0.192 -0.192
 0.400  1.257  0.147 -0.102 -0.168 -0.191 -0.191
 0.402  1.259  0.150 -0.100 -0.167 -0.190 -0.190
 0.404  1.261  0.152 -0.098 -0.165 -0.189 -0.189
 0.406  1.263  0.155 -0.097 -0.163 -0.187 -0.187
 0.408  1.265  0.158 -0.095 -0.162 -0.186 -0.186
 0.410  1.267  0.160 -0.093 -0.161 -0.185 -0.185
 0.412  1.268  0.162 -0.092 -0.159 -0.184 -0.184
 0.414  1.271  0.165 -0.091 -0.158 -0.183 -0.183
 0.416  1.273  0.167 -0.088 -0.156 -0.182 -0.182
 0.418  1.274  0.170 -0.087 -0.155 -0.180 -0.180
 0.420  1.276  0.172 -0.086 -0.153 -0.179 -0.179
 0.422  1.278  0.173 -0.083 -0.152 -0.178 -0.178
 0.424  1.279  0.176 -0.082 -0.151 -0.176 -0.176
 0.426  1.281  0.178 -0.081 -0.149 -0.176 -0.176
 0.428  1.283  0.180 -0.079 -0.147 -0.174 -0.174
 0.430  1.284  0.182 -0.078 -0.146 -0.173 -0.173
 0.432  1.286  0.184 -0.076 -0.145 -0.172 -0.172
 0.434  1.288  0.185 -0.074 -0.144 -0.170 -0.170
 0.436  1.289  0.187 -0.073 -0.142 -0.169 -0.169
 0.438  1.291  0.189 -0.072 -0.140 -0.167 -0.167
 0.440  1.293  0.191 -0.070 -0.139 -0.166 -0.166
 0.442  1.294  0.193 -0.069 -0.138 -0.165 -0.165
 0.444  1.296  0.195 -0.067 -0.137 -0.163 -0.163
 0.446  1.298  0.197 -0.065 -0.135 -0.162 -0.162
 0.448  1.299  0.198 -0.064 -0.134 -0.161 -0.161
 0.450  1.301  0.200 -0.062 -0.132 -0.159 -0.159
 0.452  1.303  0.201 -0.061 -0.131 -0.158 -0.158
 0.454  1.304  0.203 -0.060 -0.129 -0.156 -0.156
 0.456  1.306  0.205 -0.058 -0.128 -0.155 -0.155
 0.458  1.308  0.207 -0.057 -0.127 -0.154 -0.154
 0.460  1.309  0.208 -0.055 -0.126 -0.152 -0.152
 0.462  1.311  0.210 -0.054 -0.124 -0.151 -0.151
 0.464  1.313  0.211 -0.053 -0.123 -0.150 -0.150
 0.466  1.314  0.212 -0.051 -0.122 -0.148 -0.148
 0.468  1.317  0.214 -0.049 -0.120 -0.147 -0.147
 0.470  1.319  0.216 -0.048 -0.119 -0.146 -0.146
 0.472  1.320  0.217 -0.046 -0.118 -0.145 -0.145
 0.474  1.322  0.219 -0.045 -0.117 -0.144 -0.144
 0.476  1.324  0.220 -0.044 -0.115 -0.142 -0.142
 0.478  1.325  0.222 -0.042 -0.114 -0.141 -0.141
 0.480  1.328  0.222 -0.041 -0.113 -0.140 -0.140
 0.482  1.329  0.224 -0.039 -0.112 -0.139 -0.139
 0.484  1.331  0.225 -0.038 -0.111 -0.138 -0.138
 0.486  1.333  0.227 -0.037 -0.110 -0.137 -0.137
 0.488  1.335  0.228 -0.035 -0.109 -0.136 -0.136
 0.490  1.337  0.230 -0.034 -0.108 -0.135 -0.135
 0.492  1.339  0.231 -0.032 -0.107 -0.134 -0.134
 0.494  1.341  0.232 -0.031 -0.105 -0.133 -0.133
 0.496  1.343  0.234 -0.030 -0.104 -0.132 -0.132
 0.498  1.345  0.235 -0.028 -0.103 -0.131 -0.131
 0.500  1.347  0.235 -0.027 -0.102 -0.131 -0.131
 0.502  1.349  0.236 -0.026 -0.101 -0.130 -0.130
 0.504  1.351  0.238 -0.025 -0.100 -0.129 -0.129
 0.506  1.353  0.239 -0.023 -0.099 -0.128 -0.128
 0.508  1.355  0.240 -0.022 -0.098 -0.127 -0.127
 0.510  1.357  0.241 -0.020 -0.097 -0.126 -0.126
 0.512  1.359  0.242 -0.019 -0.096 -0.126 -0.126
 0.514  1.360  0.244 -0.018 -0.095 -0.125 -0.125
 0.516  1.362  0.245 -0.017 -0.094 -0.124 -0.124
 0.518  1.364  0.246 -0.016 -0.093 -0.124 -0.124
 0.520  1.365  0.247 -0.014 -0.092 -0.123 -0.123
 0.522  1.367  0.247 -0.013 -0.091 -0.122 -0.122
 0.524  1.368  0.248 -0.012 -0.090 -0.122 -0.122
 0.526  1.370  0.249 -0.011 -0.089 -0.121 -0.121
 0.528  1.370  0.250 -0.009 -0.089 -0.120 -0.120
 0.530  1.372  0.251 -0.008 -0.087 -0.120 -0.120
 0.532  1.373  0.252 -0.007 -0.087 -0.119 -0.119
 0.534  1.375  0.252 -0.006 -0.086 -0.118 -0.118
 0.536  1.375  0.253 -0.005 -0.085 -0.118 -0.118
 0.538  1.376  0.254 -0.004 -0.084 -0.117 -0.117
 0.540  1.377  0.255 -0.003 -0.083 -0.117 -0.117
 0.542  1.378  0.256 -0.001 -0.083 -0.116 -0.116
 0.544  1.379  0.256 -0.001 -0.082 -0.115 -0.115
 0.546  1.380  0.257  0.001 -0.081 -0.115 -0.115
 0.548  1.380  0.258  0.001 -0.080 -0.114 -0.114
 0.550  1.380  0.258  0.003 -0.079 -0.114 -0.114
 0.552  1.380  0.259  0.003 -0.079 -0.113 -0.113
 0.554  1.381  0.259  0.005 -0.078 -0.112 -0.112
 0.556  1.381  0.260  0.006 -0.077 -0.111 -0.111
 0.558  1.382  0.260  0.006 -0.077 -0.111 -0.111
 0.560  1.382  0.260  0.008 -0.076 -0.110 -0.110
 0.562  1.382  0.260  0.008 -0.075 -0.110 -0.110
 0.564  1.382  0.261  0.009 -0.074 -0.109 -0.109
 0.566  1.382  0.261  0.010 -0.074 -0.108 -0.108
 0.568  1.382  0.261  0.011 -0.073 -0.107 -0.107
 0.570  1.382  0.262  0.012 -0.072 -0.107 -0.107
 0.572  1.381  0.262  0.013 -0.072 -0.106 -0.106
 0.574  1.381  0.262  0.014 -0.071 -0.106 -0.106
 0.576  1.381  0.263  0.015 -0.071 -0.105 -0.105
 0.578  1.380  0.263  0.015 -0.070 -0.104 -0.104
 0.580  1.380  0.263  0.016 -0.069 -0.103 -0.103
 0.582  1.380  0.263  0.017 -0.068 -0.103 -0.103
 0.584  1.380  0.263  0.017 -0.068 -0.102 -0.102
 0.586  1.380  0.264  0.018 -0.067 -0.102 -0.102
 0.588  1.380  0.264  0.019 -0.067 -0.101 -0.101
 0.590  1.379  0.264  0.020 -0.066 -0.100 -0.100
 0.592  1.379  0.264  0.020 -0.066 -0.100 -0.100
 0.594  1.379  0.264  0.021 -0.065 -0.099 -0.099
 0.596  1.378  0.264  0.021 -0.065 -0.098 -0.098
 0.598  1.378  0.265  0.022 -0.064 -0.098 -0.098
 0.600  1.378  0.265  0.022 -0.064 -0.097 -0.097
 0.602  1.378  0.265  0.023 -0.063 -0.096 -0.096
 0.604  1.378  0.265  0.023 -0.062 -0.096 -0.096
 0.606  1.378  0.265  0.024 -0.062 -0.095 -0.095
 0.608  1.377  0.265  0.024 -0.061 -0.094 -0.094
 0.610  1.377  0.266  0.024 -0.061 -0.093 -0.093
 0.612  1.377  0.266  0.024 -0.060 -0.093 -0.093
 0.614  1.377  0.266  0.025 -0.060 -0.092 -0.092
 0.616  1.377  0.266  0.025 -0.059 -0.091 -0.091
 0.618  1.377  0.266  0.026 -0.059 -0.090 -0.090
 0.620  1.377  0.267  0.026 -0.059 -0.089 -0.089
 0.622  1.377  0.267  0.027 -0.058 -0.089 -0.089
 0.624  1.377  0.267  0.027 -0.058 -0.088 -0.088
 0.626  1.377  0.267  0.027 -0.057 -0.087 -0.087
 0.628  1.377  0.268  0.027 -0.056 -0.086 -0.086
 0.630  1.377  0.268  0.027 -0.056 -0.085 -0.085
 0.632  1.377  0.268  0.027 -0.055 -0.084 -0.084
 0.634  1.377  0.268  0.027 -0.055 -0.083 -0.083
 0.636  1.378  0.268  0.027 -0.054 -0.082 -0.082
 0.638  1.378  0.269  0.027 -0.054 -0.081 -0.081
 0.640  1.378  0.269  0.027 -0.053 -0.080 -0.080
 0.642  1.378  0.269  0.027 -0.053 -0.079 -0.079
 0.644  1.378  0.269  0.027 -0.052 -0.079 -0.079
 0.646  1.379  0.269  0.027 -0.052 -0.078 -0.078
 0.648  1.379  0.270  0.027 -0.052 -0.076 -0.076
 0.650  1.379  0.270  0.027 -0.051 -0.075 -0.075
 0.652  1.380  0.270  0.027 -0.050 -0.075 -0.075
 0.654  1.380  0.271  0.028 -0.050 -0.073 -0.073
 0.656  1.380  0.271  0.028 -0.049 -0.072 -0.072
 0.658  1.380  0.271  0.028 -0.049 -0.072 -0.072
 0.660  1.380  0.272  0.028 -0.049 -0.070 -0.070
 0.662  1.380  0.273  0.029 -0.048 -0.069 -0.069
 0.664  1.381  0.273  0.029 -0.048 -0.068 -0.068
 0.666  1.381  0.273  0.029 -0.047 -0.067 -0.067
 0.668  1.381  0.274  0.029 -0.046 -0.066 -0.066
 0.670  1.382  0.275  0.030 -0.046 -0.065 -0.065
 0.672  1.382  0.276  0.031 -0.044 -0.064 -0.064
 0.674  1.383  0.277  0.031 -0.043 -0.062 -0.062
 0.676  1.383  0.278  0.031 -0.042 -0.061 -0.061
 0.678  1.383  0.280  0.032 -0.041 -0.060 -0.060
 0.680  1.384  0.281  0.033 -0.040 -0.058 -0.058
 0.682  1.384  0.283  0.034 -0.038 -0.057 -0.057
 0.684  1.385  0.284  0.034 -0.037 -0.055 -0.055
 0.686  1.385  0.285  0.035 -0.036 -0.054 -0.054
 0.688  1.385  0.287  0.036 -0.034 -0.052 -0.052
 0.690  1.385  0.289  0.037 -0.032 -0.051 -0.051
 0.692  1.386  0.291  0.038 -0.031 -0.049 -0.049
 0.694  1.386  0.293  0.038 -0.029 -0.047 -0.047
 0.696  1.387  0.295  0.039 -0.027 -0.046 -0.046
 0.698  1.388  0.297  0.041 -0.025 -0.044 -0.044
 0.700  1.388  0.299  0.041 -0.023 -0.042 -0.042
 0.702  1.389  0.301  0.043 -0.021 -0.040 -0.040
 0.704  1.389  0.304  0.043 -0.019 -0.039 -0.039
 0.706  1.390  0.306  0.045 -0.016 -0.037 -0.037
 0.708  1.390  0.309  0.046 -0.014 -0.035 -0.035
 0.710  1.390  0.311  0.047 -0.011 -0.033 -0.033
 0.712  1.391  0.314  0.048 -0.008 -0.031 -0.031
 0.714  1.391  0.317  0.050 -0.006 -0.029 -0.029
 0.716  1.392  0.320  0.051 -0.003 -0.026 -0.026
 0.718  1.393  0.323  0.052  0.000 -0.024 -0.024
 0.720  1.393  0.326  0.054  0.003 -0.022 -0.022
 0.722  1.394  0.330  0.055  0.006 -0.020 -0.020
 0.724  1.395  0.333  0.057  0.010 -0.017 -0.017
 0.726  1.396  0.336  0.059  0.012 -0.015 -0.015
 0.728  1.396  0.338  0.060  0.016 -0.013 -0.013
 0.730  1.397  0.342  0.062  0.019 -0.010 -0.010
 0.732  1.399  0.345  0.064  0.022 -0.008 -0.008
 0.734  1.400  0.348  0.066  0.025 -0.005 -0.005
 0.736  1.401  0.349  0.068  0.029 -0.003 -0.003
 0.738  1.402  0.352  0.070  0.032 -0.001 -0.001
 0.740  1.404  0.354  0.072  0.035  0.002  0.002
 0.742  1.406  0.357  0.074  0.038  0.004  0.004
 0.744  1.407  0.359  0.076  0.041  0.006  0.006
 0.746  1.409  0.361  0.079  0.043  0.008  0.008
 0.748  1.411  0.362  0.081  0.045  0.010  0.010
 0.750  1.412  0.364  0.083  0.048  0.012  0.012
 0.752  1.414  0.365  0.086  0.050  0.014  0.014
 0.754  1.416  0.367  0.088  0.053  0.016  0.016
 0.756  1.417  0.368  0.091  0.054  0.018  0.018
 0.758  1.419  0.369  0.094  0.056  0.019  0.019
 0.760  1.421  0.370  0.096  0.057  0.020  0.020
 0.762  1.423  0.370  0.099  0.059  0.022  0.022
 0.764  1.426  0.371  0.102  0.060  0.023  0.023
 0.766  1.428  0.372  0.105  0.061  0.024  0.024
 0.768  1.431  0.372  0.108  0.062  0.025  0.025
 0.770  1.433  0.372  0.111  0.062  0.026  0.026
 0.772  1.436  0.372  0.114  0.063  0.026  0.026
 0.774  1.439  0.372  0.118  0.063  0.027  0.027
 0.776  1.442  0.372  0.121  0.064  0.028  0.028
 0.778  1.445  0.371  0.125  0.064  0.028  0.028
 0.780  1.448  0.371  0.128  0.064  0.029  0.029
 0.782  1.452  0.370  0.132  0.064  0.029  0.029
 0.784  1.454  0.369  0.135  0.063  0.029  0.029
 0.786  1.457  0.368  0.138  0.063  0.029  0.029
 0.788  1.460  0.367  0.142  0.063  0.029  0.029
 0.790  1.463  0.365  0.144  0.062  0.029  0.029
 0.792  1.466  0.364  0.148  0.061  0.029  0.029
 0.794  1.468  0.362  0.151  0.061  0.029  0.029
 0.796  1.471  0.361  0.153  0.060  0.029  0.029
 0.798  1.472  0.359  0.156  0.058  0.029  0.029
 0.800  1.474  0.356  0.158  0.057  0.028  0.028
 0.802  1.476  0.353  0.160  0.055  0.027  0.027
 0.804  1.477  0.350  0.162  0.053  0.026  0.026
 0.806  1.478  0.347  0.163  0.051  0.026  0.026
 0.808  1.478  0.343  0.165  0.049  0.025  0.025
