# IsPeriodic    : True
# Period        : 0.476218 days
# Normalization : <g_mag>=0
# 
# Phase u_mag  g_mag  r_mag  i_mag  z_mag  y_mag
 0.000  0.609 -0.583 -0.448 -0.406 -0.345 -0.345
 0.002  0.609 -0.583 -0.448 -0.406 -0.345 -0.345
 0.004  0.609 -0.582 -0.448 -0.406 -0.344 -0.344
 0.006  0.610 -0.581 -0.447 -0.405 -0.344 -0.344
 0.008  0.611 -0.579 -0.447 -0.405 -0.343 -0.343
 0.010  0.612 -0.577 -0.447 -0.404 -0.342 -0.342
 0.012  0.614 -0.574 -0.446 -0.403 -0.341 -0.341
 0.014  0.616 -0.572 -0.445 -0.402 -0.339 -0.339
 0.016  0.618 -0.569 -0.445 -0.401 -0.337 -0.337
 0.018  0.621 -0.566 -0.443 -0.399 -0.335 -0.335
 0.020  0.624 -0.562 -0.442 -0.398 -0.333 -0.333
 0.022  0.626 -0.559 -0.442 -0.397 -0.331 -0.331
 0.024  0.629 -0.555 -0.440 -0.396 -0.329 -0.329
 0.026  0.632 -0.551 -0.439 -0.394 -0.326 -0.326
 0.028  0.635 -0.548 -0.437 -0.392 -0.324 -0.324
 0.030  0.638 -0.543 -0.436 -0.391 -0.322 -0.322
 0.032  0.641 -0.540 -0.434 -0.389 -0.320 -0.320
 0.034  0.644 -0.536 -0.432 -0.387 -0.318 -0.318
 0.036  0.648 -0.531 -0.430 -0.386 -0.315 -0.315
 0.038  0.651 -0.528 -0.428 -0.384 -0.313 -0.313
 0.040  0.654 -0.523 -0.426 -0.383 -0.311 -0.311
 0.042  0.657 -0.519 -0.424 -0.380 -0.308 -0.308
 0.044  0.661 -0.515 -0.421 -0.379 -0.306 -0.306
 0.046  0.664 -0.511 -0.419 -0.377 -0.304 -0.304
 0.048  0.668 -0.507 -0.416 -0.375 -0.302 -0.302
 0.050  0.673 -0.502 -0.413 -0.372 -0.300 -0.300
 0.052  0.677 -0.498 -0.410 -0.370 -0.297 -0.297
 0.054  0.680 -0.494 -0.407 -0.368 -0.295 -0.295
 0.056  0.685 -0.489 -0.404 -0.366 -0.293 -0.293
 0.058  0.690 -0.485 -0.401 -0.363 -0.291 -0.291
 0.060  0.693 -0.480 -0.398 -0.361 -0.289 -0.289
 0.062  0.698 -0.476 -0.394 -0.358 -0.288 -0.288
 0.064  0.703 -0.470 -0.391 -0.356 -0.286 -0.286
 0.066  0.708 -0.466 -0.388 -0.353 -0.284 -0.284
 0.068  0.713 -0.461 -0.385 -0.350 -0.282 -0.282
 0.070  0.718 -0.456 -0.381 -0.348 -0.281 -0.281
 0.072  0.723 -0.451 -0.378 -0.344 -0.279 -0.279
 0.074  0.729 -0.446 -0.375 -0.342 -0.277 -0.277
 0.076  0.733 -0.441 -0.372 -0.339 -0.275 -0.275
 0.078  0.739 -0.436 -0.369 -0.336 -0.274 -0.274
 0.080  0.745 -0.431 -0.365 -0.333 -0.272 -0.272
 0.082  0.750 -0.426 -0.363 -0.330 -0.270 -0.270
 0.084  0.755 -0.421 -0.360 -0.328 -0.268 -0.268
 0.086  0.760 -0.415 -0.357 -0.325 -0.267 -0.267
 0.088  0.766 -0.410 -0.354 -0.322 -0.265 -0.265
 0.090  0.771 -0.405 -0.352 -0.319 -0.264 -0.264
 0.092  0.776 -0.400 -0.349 -0.317 -0.262 -0.262
 0.094  0.782 -0.394 -0.346 -0.314 -0.261 -0.261
 0.096  0.786 -0.390 -0.343 -0.311 -0.259 -0.259
 0.098  0.792 -0.384 -0.341 -0.309 -0.258 -0.258
 0.100  0.797 -0.379 -0.339 -0.307 -0.256 -0.256
 0.102  0.802 -0.374 -0.336 -0.304 -0.255 -0.255
 0.104  0.807 -0.369 -0.334 -0.302 -0.253 -0.253
 0.106  0.812 -0.364 -0.331 -0.300 -0.251 -0.251
 0.108  0.816 -0.359 -0.329 -0.297 -0.250 -0.250
 0.110  0.821 -0.354 -0.327 -0.295 -0.249 -0.249
 0.112  0.825 -0.350 -0.325 -0.293 -0.247 -0.247
 0.114  0.830 -0.345 -0.323 -0.290 -0.246 -0.246
 0.116  0.835 -0.340 -0.321 -0.288 -0.244 -0.244
 0.118  0.839 -0.336 -0.319 -0.286 -0.243 -0.243
 0.120  0.843 -0.331 -0.317 -0.285 -0.241 -0.241
 0.122  0.848 -0.327 -0.315 -0.282 -0.239 -0.239
 0.124  0.852 -0.322 -0.313 -0.280 -0.238 -0.238
 0.126  0.856 -0.318 -0.311 -0.279 -0.236 -0.236
 0.128  0.860 -0.313 -0.309 -0.276 -0.235 -0.235
 0.130  0.864 -0.309 -0.307 -0.275 -0.233 -0.233
 0.132  0.868 -0.305 -0.306 -0.273 -0.232 -0.232
 0.134  0.872 -0.300 -0.304 -0.272 -0.230 -0.230
 0.136  0.876 -0.297 -0.302 -0.270 -0.228 -0.228
 0.138  0.879 -0.292 -0.301 -0.268 -0.227 -0.227
 0.140  0.883 -0.288 -0.299 -0.267 -0.225 -0.225
 0.142  0.886 -0.285 -0.297 -0.265 -0.223 -0.223
 0.144  0.890 -0.280 -0.296 -0.264 -0.222 -0.222
 0.146  0.893 -0.276 -0.294 -0.262 -0.220 -0.220
 0.148  0.897 -0.273 -0.292 -0.261 -0.219 -0.219
 0.150  0.900 -0.269 -0.290 -0.259 -0.217 -0.217
 0.152  0.904 -0.265 -0.289 -0.258 -0.216 -0.216
 0.154  0.906 -0.262 -0.287 -0.257 -0.214 -0.214
 0.156  0.910 -0.258 -0.285 -0.255 -0.212 -0.212
 0.158  0.913 -0.255 -0.283 -0.254 -0.211 -0.211
 0.160  0.917 -0.251 -0.281 -0.252 -0.209 -0.209
 0.162  0.919 -0.248 -0.279 -0.251 -0.207 -0.207
 0.164  0.922 -0.244 -0.277 -0.250 -0.206 -0.206
 0.166  0.926 -0.241 -0.276 -0.248 -0.204 -0.204
 0.168  0.929 -0.237 -0.274 -0.247 -0.202 -0.202
 0.170  0.932 -0.233 -0.272 -0.245 -0.201 -0.201
 0.172  0.935 -0.230 -0.270 -0.244 -0.199 -0.199
 0.174  0.939 -0.226 -0.268 -0.242 -0.197 -0.197
 0.176  0.942 -0.223 -0.266 -0.241 -0.196 -0.196
 0.178  0.945 -0.219 -0.264 -0.239 -0.194 -0.194
 0.180  0.948 -0.215 -0.262 -0.238 -0.193 -0.193
 0.182  0.952 -0.212 -0.260 -0.236 -0.191 -0.191
 0.184  0.956 -0.208 -0.258 -0.235 -0.189 -0.189
 0.186  0.959 -0.204 -0.256 -0.233 -0.188 -0.188
 0.188  0.962 -0.201 -0.254 -0.232 -0.186 -0.186
 0.190  0.965 -0.197 -0.252 -0.230 -0.185 -0.185
 0.192  0.969 -0.193 -0.250 -0.229 -0.183 -0.183
 0.194  0.972 -0.190 -0.248 -0.227 -0.182 -0.182
 0.196  0.975 -0.185 -0.246 -0.226 -0.181 -0.181
 0.198  0.979 -0.181 -0.243 -0.224 -0.179 -0.179
 0.200  0.982 -0.178 -0.241 -0.223 -0.178 -0.178
 0.202  0.985 -0.173 -0.239 -0.222 -0.177 -0.177
 0.204  0.989 -0.170 -0.237 -0.220 -0.175 -0.175
 0.206  0.992 -0.166 -0.235 -0.218 -0.174 -0.174
 0.208  0.996 -0.161 -0.232 -0.217 -0.172 -0.172
 0.210  0.999 -0.158 -0.231 -0.216 -0.171 -0.171
 0.212  1.002 -0.153 -0.229 -0.214 -0.170 -0.170
 0.214  1.006 -0.149 -0.226 -0.212 -0.168 -0.168
 0.216  1.010 -0.145 -0.224 -0.211 -0.167 -0.167
 0.218  1.013 -0.141 -0.222 -0.209 -0.165 -0.165
 0.220  1.016 -0.137 -0.220 -0.208 -0.164 -0.164
 0.222  1.020 -0.132 -0.218 -0.206 -0.163 -0.163
 0.224  1.024 -0.128 -0.215 -0.205 -0.162 -0.162
 0.226  1.027 -0.124 -0.213 -0.203 -0.160 -0.160
 0.228  1.030 -0.119 -0.211 -0.202 -0.159 -0.159
 0.230  1.034 -0.116 -0.209 -0.200 -0.158 -0.158
 0.232  1.038 -0.111 -0.207 -0.198 -0.157 -0.157
 0.234  1.040 -0.106 -0.205 -0.197 -0.155 -0.155
 0.236  1.044 -0.102 -0.203 -0.196 -0.154 -0.154
 0.238  1.048 -0.098 -0.201 -0.194 -0.153 -0.153
 0.240  1.051 -0.094 -0.198 -0.192 -0.152 -0.152
 0.242  1.054 -0.089 -0.196 -0.191 -0.150 -0.150
 0.244  1.057 -0.085 -0.194 -0.190 -0.149 -0.149
 0.246  1.061 -0.081 -0.192 -0.188 -0.148 -0.148
 0.248  1.064 -0.077 -0.190 -0.187 -0.147 -0.147
 0.250  1.067 -0.073 -0.188 -0.185 -0.146 -0.146
 0.252  1.070 -0.069 -0.186 -0.184 -0.145 -0.145
 0.254  1.074 -0.065 -0.184 -0.182 -0.143 -0.143
 0.256  1.077 -0.061 -0.182 -0.181 -0.142 -0.142
 0.258  1.080 -0.057 -0.180 -0.180 -0.141 -0.141
 0.260  1.083 -0.053 -0.177 -0.178 -0.140 -0.140
 0.262  1.087 -0.050 -0.175 -0.176 -0.138 -0.138
 0.264  1.090 -0.046 -0.174 -0.175 -0.137 -0.137
 0.266  1.093 -0.043 -0.171 -0.174 -0.136 -0.136
 0.268  1.096 -0.039 -0.169 -0.172 -0.134 -0.134
 0.270  1.099 -0.035 -0.167 -0.171 -0.133 -0.133
 0.272  1.102 -0.032 -0.165 -0.169 -0.132 -0.132
 0.274  1.106 -0.028 -0.163 -0.168 -0.130 -0.130
 0.276  1.108 -0.024 -0.161 -0.167 -0.129 -0.129
 0.278  1.111 -0.021 -0.159 -0.165 -0.128 -0.128
 0.280  1.114 -0.018 -0.157 -0.163 -0.126 -0.126
 0.282  1.117 -0.014 -0.155 -0.162 -0.125 -0.125
 0.284  1.120 -0.011 -0.153 -0.161 -0.123 -0.123
 0.286  1.123 -0.008 -0.150 -0.160 -0.122 -0.122
 0.288  1.126 -0.004 -0.148 -0.158 -0.121 -0.121
 0.290  1.129 -0.001 -0.146 -0.157 -0.119 -0.119
 0.292  1.132  0.001 -0.144 -0.155 -0.118 -0.118
 0.294  1.134  0.005 -0.141 -0.154 -0.116 -0.116
 0.296  1.137  0.008 -0.139 -0.153 -0.115 -0.115
 0.298  1.140  0.010 -0.137 -0.151 -0.114 -0.114
 0.300  1.143  0.014 -0.134 -0.150 -0.112 -0.112
 0.302  1.146  0.017 -0.132 -0.148 -0.111 -0.111
 0.304  1.148  0.020 -0.130 -0.147 -0.109 -0.109
 0.306  1.151  0.022 -0.127 -0.146 -0.108 -0.108
 0.308  1.154  0.025 -0.125 -0.144 -0.106 -0.106
 0.310  1.157  0.029 -0.122 -0.143 -0.105 -0.105
 0.312  1.159  0.032 -0.120 -0.141 -0.103 -0.103
 0.314  1.162  0.034 -0.118 -0.140 -0.102 -0.102
 0.316  1.165  0.037 -0.115 -0.139 -0.100 -0.100
 0.318  1.168  0.040 -0.113 -0.138 -0.099 -0.099
 0.320  1.171  0.042 -0.110 -0.136 -0.097 -0.097
 0.322  1.173  0.046 -0.108 -0.134 -0.096 -0.096
 0.324  1.175  0.049 -0.105 -0.133 -0.094 -0.094
 0.326  1.178  0.052 -0.102 -0.132 -0.093 -0.093
 0.328  1.181  0.054 -0.099 -0.131 -0.091 -0.091
 0.330  1.184  0.057 -0.097 -0.129 -0.090 -0.090
 0.332  1.186  0.061 -0.094 -0.127 -0.089 -0.089
 0.334  1.188  0.063 -0.091 -0.126 -0.087 -0.087
 0.336  1.191  0.066 -0.089 -0.125 -0.086 -0.086
 0.338  1.193  0.069 -0.086 -0.123 -0.084 -0.084
 0.340  1.196  0.072 -0.083 -0.122 -0.083 -0.083
 0.342  1.199  0.075 -0.080 -0.120 -0.081 -0.081
 0.344  1.200  0.078 -0.077 -0.119 -0.080 -0.080
 0.346  1.203  0.081 -0.075 -0.118 -0.079 -0.079
 0.348  1.206  0.085 -0.072 -0.116 -0.077 -0.077
 0.350  1.208  0.087 -0.069 -0.115 -0.076 -0.076
 0.352  1.211  0.090 -0.066 -0.113 -0.075 -0.075
 0.354  1.213  0.093 -0.063 -0.112 -0.073 -0.073
 0.356  1.215  0.096 -0.061 -0.111 -0.072 -0.072
 0.358  1.217  0.099 -0.058 -0.109 -0.070 -0.070
 0.360  1.220  0.102 -0.056 -0.107 -0.069 -0.069
 0.362  1.222  0.106 -0.053 -0.106 -0.068 -0.068
 0.364  1.225  0.108 -0.051 -0.105 -0.066 -0.066
 0.366  1.226  0.111 -0.048 -0.104 -0.065 -0.065
 0.368  1.229  0.114 -0.046 -0.102 -0.063 -0.063
 0.370  1.231  0.117 -0.043 -0.100 -0.062 -0.062
 0.372  1.234  0.120 -0.040 -0.099 -0.061 -0.061
 0.374  1.236  0.123 -0.038 -0.098 -0.059 -0.059
 0.376  1.239  0.127 -0.036 -0.096 -0.058 -0.058
 0.378  1.240  0.129 -0.033 -0.095 -0.056 -0.056
 0.380  1.243  0.132 -0.032 -0.093 -0.055 -0.055
 0.382  1.245  0.136 -0.029 -0.092 -0.054 -0.054
 0.384  1.248  0.138 -0.027 -0.091 -0.052 -0.052
 0.386  1.250  0.141 -0.025 -0.089 -0.051 -0.051
 0.388  1.253  0.144 -0.023 -0.087 -0.050 -0.050
 0.390  1.254  0.147 -0.021 -0.086 -0.048 -0.048
 0.392  1.257  0.149 -0.019 -0.085 -0.047 -0.047
 0.394  1.259  0.152 -0.017 -0.083 -0.046 -0.046
 0.396  1.262  0.155 -0.015 -0.082 -0.045 -0.045
 0.398  1.264  0.158 -0.013 -0.080 -0.043 -0.043
 0.400  1.266  0.160 -0.011 -0.079 -0.042 -0.042
 0.402  1.269  0.162 -0.009 -0.078 -0.041 -0.041
 0.404  1.271  0.165 -0.008 -0.076 -0.039 -0.039
 0.406  1.274  0.168 -0.006 -0.075 -0.038 -0.038
 0.408  1.276  0.169 -0.004 -0.073 -0.037 -0.037
 0.410  1.279  0.172 -0.002 -0.072 -0.036 -0.036
 0.412  1.281  0.175 -0.001 -0.070 -0.034 -0.034
 0.414  1.283  0.177  0.001 -0.069 -0.033 -0.033
 0.416  1.286  0.180  0.002 -0.068 -0.032 -0.032
 0.418  1.289  0.181  0.004 -0.066 -0.030 -0.030
 0.420  1.291  0.183  0.005 -0.065 -0.029 -0.029
 0.422  1.293  0.186  0.006 -0.063 -0.028 -0.028
 0.424  1.296  0.188  0.008 -0.062 -0.026 -0.026
 0.426  1.298  0.190  0.010 -0.061 -0.025 -0.025
 0.428  1.301  0.192  0.011 -0.059 -0.024 -0.024
 0.430  1.304  0.194  0.013 -0.057 -0.023 -0.023
 0.432  1.307  0.196  0.014 -0.056 -0.021 -0.021
 0.434  1.308  0.198  0.015 -0.055 -0.020 -0.020
 0.436  1.311  0.200  0.017 -0.053 -0.019 -0.019
 0.438  1.314  0.201  0.018 -0.052 -0.018 -0.018
 0.440  1.316  0.203  0.020 -0.050 -0.016 -0.016
 0.442  1.319  0.205  0.021 -0.049 -0.015 -0.015
 0.444  1.321  0.207  0.023 -0.048 -0.014 -0.014
 0.446  1.323  0.209  0.024 -0.047 -0.013 -0.013
 0.448  1.326  0.210  0.025 -0.045 -0.011 -0.011
 0.450  1.329  0.212  0.027 -0.044 -0.010 -0.010
 0.452  1.331  0.213  0.029 -0.043 -0.010 -0.010
 0.454  1.333  0.215  0.030 -0.041 -0.008 -0.008
 0.456  1.335  0.217  0.031 -0.040 -0.007 -0.007
 0.458  1.337  0.218  0.033 -0.039 -0.006 -0.006
 0.460  1.339  0.220  0.034 -0.038 -0.005 -0.005
 0.462  1.342  0.222  0.036 -0.037 -0.004 -0.004
 0.464  1.344  0.223  0.037 -0.035 -0.002 -0.002
 0.466  1.346  0.224  0.039 -0.034 -0.001 -0.001
 0.468  1.347  0.226  0.040 -0.033 -0.000 -0.000
 0.470  1.349  0.228  0.041 -0.032  0.001  0.001
 0.472  1.351  0.230  0.043 -0.031  0.002  0.002
 0.474  1.353  0.231  0.044 -0.030  0.003  0.003
 0.476  1.355  0.233  0.046 -0.029  0.004  0.004
 0.478  1.357  0.234  0.047 -0.028  0.006  0.006
 0.480  1.359  0.235  0.049 -0.027  0.007  0.007
 0.482  1.360  0.237  0.050 -0.026  0.008  0.008
 0.484  1.361  0.239  0.051 -0.025  0.009  0.009
 0.486  1.363  0.241  0.053 -0.024  0.010  0.010
 0.488  1.365  0.242  0.055 -0.023  0.011  0.011
 0.490  1.366  0.243  0.056 -0.022  0.012  0.012
 0.492  1.368  0.245  0.057 -0.022  0.013  0.013
 0.494  1.369  0.246  0.058 -0.021  0.014  0.014
 0.496  1.371  0.248  0.060 -0.020  0.015  0.015
 0.498  1.372  0.250  0.061 -0.019  0.016  0.016
 0.500  1.373  0.251  0.062 -0.019  0.017  0.017
 0.502  1.374  0.253  0.063 -0.017  0.018  0.018
 0.504  1.375  0.254  0.065 -0.017  0.019  0.019
 0.506  1.376  0.255  0.066 -0.016  0.020  0.020
 0.508  1.378  0.257  0.067 -0.015  0.021  0.021
 0.510  1.379  0.259  0.069 -0.015  0.022  0.022
 0.512  1.380  0.260  0.070 -0.014  0.023  0.023
 0.514  1.381  0.262  0.070 -0.013  0.024  0.024
 0.516  1.382  0.264  0.072 -0.013  0.024  0.024
 0.518  1.383  0.265  0.073 -0.012  0.025  0.025
 0.520  1.384  0.266  0.074 -0.011  0.026  0.026
 0.522  1.385  0.267  0.075 -0.010  0.027  0.027
 0.524  1.386  0.269  0.075 -0.010  0.028  0.028
 0.526  1.387  0.270  0.076 -0.009  0.029  0.029
 0.528  1.387  0.272  0.077 -0.008  0.030  0.030
 0.530  1.388  0.273  0.078 -0.008  0.031  0.031
 0.532  1.389  0.274  0.079 -0.007  0.032  0.032
 0.534  1.390  0.275  0.080 -0.007  0.033  0.033
 0.536  1.391  0.275  0.081 -0.006  0.034  0.034
 0.538  1.392  0.276  0.081 -0.006  0.034  0.034
 0.540  1.392  0.277  0.082 -0.005  0.035  0.035
 0.542  1.393  0.278  0.082 -0.004  0.036  0.036
 0.544  1.394  0.279  0.083 -0.003  0.037  0.037
 0.546  1.395  0.279  0.084 -0.003  0.038  0.038
 0.548  1.395  0.280  0.084 -0.002  0.039  0.039
 0.550  1.396  0.281  0.085 -0.002  0.039  0.039
 0.552  1.397  0.281  0.086 -0.001  0.040  0.040
 0.554  1.398  0.281  0.086 -0.001  0.041  0.041
 0.556  1.398  0.282  0.086 -0.000  0.042  0.042
 0.558  1.399  0.282  0.087  0.000  0.043  0.043
 0.560  1.399  0.282  0.088  0.001  0.044  0.044
 0.562  1.400  0.283  0.088  0.001  0.044  0.044
 0.564  1.400  0.283  0.088  0.002  0.045  0.045
 0.566  1.400  0.283  0.089  0.002  0.046  0.046
 0.568  1.401  0.283  0.089  0.003  0.047  0.047
 0.570  1.401  0.283  0.089  0.003  0.048  0.048
 0.572  1.402  0.282  0.090  0.004  0.048  0.048
 0.574  1.402  0.282  0.090  0.004  0.049  0.049
 0.576  1.403  0.282  0.091  0.005  0.050  0.050
 0.578  1.403  0.281  0.091  0.005  0.051  0.051
 0.580  1.403  0.281  0.091  0.006  0.051  0.051
 0.582  1.404  0.280  0.092  0.006  0.052  0.052
 0.584  1.404  0.279  0.093  0.007  0.053  0.053
 0.586  1.405  0.279  0.093  0.007  0.054  0.054
 0.588  1.405  0.278  0.094  0.007  0.054  0.054
 0.590  1.405  0.278  0.095  0.008  0.055  0.055
 0.592  1.406  0.277  0.095  0.008  0.056  0.056
 0.594  1.406  0.276  0.095  0.009  0.056  0.056
 0.596  1.407  0.276  0.096  0.009  0.057  0.057
 0.598  1.407  0.275  0.096  0.010  0.058  0.058
 0.600  1.407  0.275  0.097  0.011  0.058  0.058
 0.602  1.408  0.275  0.098  0.011  0.059  0.059
 0.604  1.408  0.275  0.098  0.011  0.059  0.059
 0.606  1.409  0.274  0.099  0.012  0.060  0.060
 0.608  1.409  0.274  0.100  0.012  0.061  0.061
 0.610  1.409  0.274  0.100  0.013  0.061  0.061
 0.612  1.410  0.274  0.101  0.013  0.062  0.062
 0.614  1.410  0.274  0.101  0.014  0.063  0.063
 0.616  1.411  0.274  0.102  0.014  0.063  0.063
 0.618  1.411  0.274  0.103  0.015  0.064  0.064
 0.620  1.412  0.274  0.103  0.015  0.065  0.065
 0.622  1.412  0.274  0.105  0.016  0.065  0.065
 0.624  1.413  0.274  0.105  0.016  0.066  0.066
 0.626  1.413  0.275  0.106  0.017  0.067  0.067
 0.628  1.413  0.275  0.107  0.018  0.067  0.067
 0.630  1.414  0.275  0.107  0.018  0.068  0.068
 0.632  1.414  0.275  0.108  0.019  0.069  0.069
 0.634  1.414  0.276  0.109  0.019  0.069  0.069
 0.636  1.414  0.277  0.110  0.020  0.070  0.070
 0.638  1.415  0.277  0.110  0.020  0.071  0.071
 0.640  1.415  0.278  0.112  0.021  0.071  0.071
 0.642  1.416  0.279  0.112  0.021  0.072  0.072
 0.644  1.416  0.280  0.114  0.022  0.072  0.072
 0.646  1.417  0.281  0.114  0.022  0.073  0.073
 0.648  1.417  0.282  0.115  0.023  0.074  0.074
 0.650  1.417  0.283  0.117  0.023  0.074  0.074
 0.652  1.418  0.284  0.117  0.024  0.075  0.075
 0.654  1.418  0.286  0.119  0.025  0.075  0.075
 0.656  1.419  0.286  0.120  0.025  0.076  0.076
 0.658  1.419  0.287  0.121  0.025  0.076  0.076
 0.660  1.420  0.289  0.122  0.026  0.077  0.077
 0.662  1.421  0.290  0.123  0.026  0.077  0.077
 0.664  1.421  0.292  0.124  0.027  0.078  0.078
 0.666  1.422  0.293  0.126  0.027  0.079  0.079
 0.668  1.422  0.295  0.127  0.027  0.079  0.079
 0.670  1.423  0.296  0.129  0.028  0.080  0.080
 0.672  1.423  0.297  0.130  0.028  0.081  0.081
 0.674  1.424  0.298  0.131  0.028  0.081  0.081
 0.676  1.425  0.299  0.133  0.028  0.082  0.082
 0.678  1.425  0.301  0.134  0.029  0.083  0.083
 0.680  1.426  0.302  0.136  0.029  0.083  0.083
 0.682  1.426  0.304  0.137  0.029  0.084  0.084
 0.684  1.427  0.305  0.139  0.029  0.085  0.085
 0.686  1.427  0.306  0.140  0.029  0.086  0.086
 0.688  1.428  0.307  0.142  0.030  0.087  0.087
 0.690  1.428  0.308  0.143  0.030  0.088  0.088
 0.692  1.429  0.309  0.145  0.030  0.089  0.089
 0.694  1.430  0.310  0.147  0.030  0.090  0.090
 0.696  1.430  0.311  0.149  0.030  0.091  0.091
 0.698  1.431  0.312  0.150  0.030  0.092  0.092
 0.700  1.432  0.314  0.152  0.030  0.093  0.093
 0.702  1.433  0.315  0.154  0.030  0.093  0.093
 0.704  1.434  0.316  0.156  0.030  0.094  0.094
 0.706  1.434  0.317  0.158  0.030  0.095  0.095
 0.708  1.435  0.318  0.160  0.030  0.097  0.097
 0.710  1.436  0.318  0.161  0.030  0.098  0.098
 0.712  1.437  0.319  0.163  0.030  0.099  0.099
 0.714  1.438  0.320  0.164  0.030  0.100  0.100
 0.716  1.438  0.321  0.166  0.030  0.102  0.102
 0.718  1.439  0.322  0.167  0.030  0.103  0.103
 0.720  1.440  0.324  0.169  0.030  0.104  0.104
 0.722  1.440  0.325  0.171  0.030  0.106  0.106
 0.724  1.441  0.325  0.172  0.030  0.107  0.107
 0.726  1.442  0.326  0.173  0.030  0.109  0.109
 0.728  1.443  0.327  0.174  0.030  0.110  0.110
 0.730  1.444  0.328  0.175  0.030  0.112  0.112
 0.732  1.446  0.328  0.176  0.030  0.113  0.113
 0.734  1.447  0.329  0.178  0.031  0.115  0.115
 0.736  1.448  0.329  0.178  0.032  0.116  0.116
 0.738  1.450  0.330  0.179  0.032  0.118  0.118
 0.740  1.451  0.330  0.180  0.033  0.119  0.119
 0.742  1.453  0.331  0.181  0.033  0.121  0.121
 0.744  1.454  0.331  0.181  0.034  0.122  0.122
 0.746  1.456  0.331  0.182  0.035  0.124  0.124
 0.748  1.458  0.331  0.183  0.036  0.125  0.125
 0.750  1.460  0.331  0.183  0.037  0.126  0.126
 0.752  1.462  0.331  0.184  0.038  0.127  0.127
 0.754  1.464  0.330  0.184  0.039  0.129  0.129
 0.756  1.466  0.330  0.184  0.040  0.130  0.130
 0.758  1.467  0.329  0.185  0.042  0.131  0.131
 0.760  1.470  0.328  0.185  0.043  0.132  0.132
 0.762  1.472  0.328  0.186  0.044  0.133  0.133
 0.764  1.475  0.328  0.186  0.046  0.134  0.134
 0.766  1.478  0.326  0.186  0.047  0.135  0.135
 0.768  1.480  0.325  0.186  0.049  0.136  0.136
 0.770  1.482  0.324  0.186  0.051  0.137  0.137
 0.772  1.485  0.322  0.186  0.053  0.138  0.138
 0.774  1.489  0.321  0.185  0.055  0.139  0.139
 0.776  1.492  0.319  0.184  0.057  0.140  0.140
 0.778  1.494  0.318  0.184  0.059  0.141  0.141
 0.780  1.498  0.316  0.183  0.061  0.141  0.141
 0.782  1.501  0.314  0.182  0.063  0.142  0.142
 0.784  1.505  0.312  0.181  0.065  0.143  0.143
 0.786  1.508  0.309  0.179  0.068  0.143  0.143
 0.788  1.511  0.307  0.177  0.070  0.144  0.144
 0.790  1.515  0.305  0.174  0.073  0.145  0.145
 0.792  1.519  0.303  0.172  0.075  0.145  0.145
 0.794  1.521  0.300  0.169  0.077  0.146  0.146
 0.796  1.525  0.297  0.165  0.080  0.146  0.146
 0.798  1.528  0.295  0.161  0.082  0.147  0.147
 0.800  1.531  0.292  0.157  0.085  0.147  0.147
 0.802  1.534  0.289  0.152  0.087  0.148  0.148
 0.804  1.535  0.286  0.148  0.089  0.148  0.148
 0.806  1.537  0.282  0.143  0.091  0.148  0.148
 0.808  1.538  0.278  0.137  0.093  0.148  0.148
