# IsPeriodic    : True
# Period        : 0.489794 days
# Normalization : <g_mag>=0
# 
# Phase u_mag  g_mag  r_mag  i_mag  z_mag  y_mag
 0.000  0.186 -0.932 -0.764 -0.640 -0.537 -0.537
 0.002  0.186 -0.932 -0.764 -0.640 -0.537 -0.537
 0.004  0.186 -0.931 -0.764 -0.639 -0.537 -0.537
 0.006  0.188 -0.929 -0.763 -0.637 -0.537 -0.537
 0.008  0.189 -0.926 -0.762 -0.636 -0.537 -0.537
 0.010  0.192 -0.922 -0.760 -0.633 -0.536 -0.536
 0.012  0.193 -0.917 -0.758 -0.630 -0.535 -0.535
 0.014  0.196 -0.911 -0.756 -0.626 -0.534 -0.534
 0.016  0.199 -0.905 -0.754 -0.623 -0.533 -0.533
 0.018  0.203 -0.900 -0.752 -0.619 -0.532 -0.532
 0.020  0.208 -0.892 -0.748 -0.614 -0.530 -0.530
 0.022  0.210 -0.886 -0.746 -0.610 -0.529 -0.529
 0.024  0.215 -0.879 -0.743 -0.606 -0.528 -0.528
 0.026  0.220 -0.870 -0.740 -0.602 -0.525 -0.525
 0.028  0.225 -0.863 -0.737 -0.598 -0.524 -0.524
 0.030  0.229 -0.855 -0.734 -0.593 -0.522 -0.522
 0.032  0.234 -0.848 -0.730 -0.590 -0.520 -0.520
 0.034  0.240 -0.841 -0.726 -0.586 -0.517 -0.517
 0.036  0.246 -0.833 -0.722 -0.583 -0.515 -0.515
 0.038  0.251 -0.826 -0.718 -0.578 -0.512 -0.512
 0.040  0.257 -0.817 -0.715 -0.575 -0.510 -0.510
 0.042  0.264 -0.810 -0.710 -0.571 -0.507 -0.507
 0.044  0.271 -0.802 -0.705 -0.567 -0.504 -0.504
 0.046  0.278 -0.795 -0.701 -0.563 -0.501 -0.501
 0.048  0.285 -0.787 -0.696 -0.559 -0.498 -0.498
 0.050  0.292 -0.779 -0.691 -0.555 -0.494 -0.494
 0.052  0.301 -0.771 -0.686 -0.551 -0.491 -0.491
 0.054  0.309 -0.764 -0.680 -0.546 -0.487 -0.487
 0.056  0.318 -0.756 -0.674 -0.542 -0.483 -0.483
 0.058  0.326 -0.748 -0.669 -0.538 -0.479 -0.479
 0.060  0.335 -0.740 -0.663 -0.534 -0.475 -0.475
 0.062  0.345 -0.733 -0.656 -0.529 -0.471 -0.471
 0.064  0.355 -0.725 -0.650 -0.524 -0.466 -0.466
 0.066  0.363 -0.717 -0.644 -0.520 -0.462 -0.462
 0.068  0.374 -0.709 -0.637 -0.516 -0.458 -0.458
 0.070  0.384 -0.702 -0.630 -0.511 -0.453 -0.453
 0.072  0.394 -0.693 -0.624 -0.507 -0.448 -0.448
 0.074  0.406 -0.686 -0.616 -0.503 -0.443 -0.443
 0.076  0.416 -0.677 -0.610 -0.498 -0.439 -0.439
 0.078  0.427 -0.669 -0.603 -0.493 -0.434 -0.434
 0.080  0.437 -0.662 -0.596 -0.489 -0.429 -0.429
 0.082  0.448 -0.653 -0.589 -0.485 -0.425 -0.425
 0.084  0.458 -0.646 -0.582 -0.480 -0.420 -0.420
 0.086  0.468 -0.637 -0.576 -0.476 -0.416 -0.416
 0.088  0.478 -0.629 -0.569 -0.471 -0.412 -0.412
 0.090  0.488 -0.621 -0.563 -0.467 -0.407 -0.407
 0.092  0.498 -0.613 -0.557 -0.462 -0.403 -0.403
 0.094  0.507 -0.606 -0.550 -0.458 -0.399 -0.399
 0.096  0.516 -0.597 -0.544 -0.454 -0.395 -0.395
 0.098  0.526 -0.590 -0.538 -0.450 -0.391 -0.391
 0.100  0.534 -0.582 -0.532 -0.445 -0.387 -0.387
 0.102  0.543 -0.573 -0.526 -0.441 -0.384 -0.384
 0.104  0.551 -0.566 -0.520 -0.437 -0.380 -0.380
 0.106  0.560 -0.559 -0.515 -0.433 -0.377 -0.377
 0.108  0.568 -0.551 -0.509 -0.429 -0.374 -0.374
 0.110  0.577 -0.544 -0.503 -0.425 -0.370 -0.370
 0.112  0.585 -0.536 -0.498 -0.421 -0.367 -0.367
 0.114  0.592 -0.529 -0.493 -0.418 -0.364 -0.364
 0.116  0.601 -0.522 -0.487 -0.413 -0.361 -0.361
 0.118  0.608 -0.514 -0.482 -0.410 -0.358 -0.358
 0.120  0.616 -0.508 -0.477 -0.406 -0.354 -0.354
 0.122  0.623 -0.501 -0.472 -0.402 -0.352 -0.352
 0.124  0.630 -0.494 -0.467 -0.399 -0.350 -0.350
 0.126  0.638 -0.488 -0.462 -0.395 -0.346 -0.346
 0.128  0.645 -0.480 -0.457 -0.392 -0.344 -0.344
 0.130  0.652 -0.473 -0.453 -0.388 -0.341 -0.341
 0.132  0.657 -0.467 -0.449 -0.385 -0.339 -0.339
 0.134  0.664 -0.460 -0.445 -0.381 -0.337 -0.337
 0.136  0.670 -0.454 -0.439 -0.378 -0.335 -0.335
 0.138  0.677 -0.446 -0.435 -0.375 -0.333 -0.333
 0.140  0.683 -0.440 -0.431 -0.371 -0.331 -0.331
 0.142  0.688 -0.435 -0.428 -0.368 -0.329 -0.329
 0.144  0.694 -0.429 -0.424 -0.365 -0.327 -0.327
 0.146  0.700 -0.421 -0.419 -0.361 -0.324 -0.324
 0.148  0.705 -0.415 -0.415 -0.359 -0.323 -0.323
 0.150  0.711 -0.409 -0.411 -0.355 -0.320 -0.320
 0.152  0.717 -0.404 -0.408 -0.352 -0.319 -0.319
 0.154  0.722 -0.398 -0.404 -0.349 -0.317 -0.317
 0.156  0.728 -0.392 -0.399 -0.346 -0.315 -0.315
 0.158  0.734 -0.386 -0.396 -0.344 -0.313 -0.313
 0.160  0.739 -0.381 -0.392 -0.340 -0.311 -0.311
 0.162  0.744 -0.376 -0.388 -0.338 -0.309 -0.309
 0.164  0.749 -0.370 -0.385 -0.335 -0.308 -0.308
 0.166  0.755 -0.364 -0.381 -0.332 -0.305 -0.305
 0.168  0.761 -0.358 -0.377 -0.329 -0.304 -0.304
 0.170  0.766 -0.352 -0.373 -0.327 -0.301 -0.301
 0.172  0.772 -0.347 -0.369 -0.323 -0.299 -0.299
 0.174  0.778 -0.342 -0.366 -0.321 -0.297 -0.297
 0.176  0.782 -0.336 -0.362 -0.318 -0.295 -0.295
 0.178  0.787 -0.330 -0.359 -0.315 -0.293 -0.293
 0.180  0.793 -0.324 -0.354 -0.312 -0.291 -0.291
 0.182  0.799 -0.318 -0.350 -0.310 -0.289 -0.289
 0.184  0.804 -0.312 -0.347 -0.307 -0.287 -0.287
 0.186  0.810 -0.308 -0.343 -0.305 -0.285 -0.285
 0.188  0.816 -0.302 -0.340 -0.301 -0.283 -0.283
 0.190  0.820 -0.296 -0.336 -0.299 -0.281 -0.281
 0.192  0.826 -0.290 -0.332 -0.296 -0.279 -0.279
 0.194  0.831 -0.284 -0.328 -0.294 -0.276 -0.276
 0.196  0.837 -0.278 -0.325 -0.291 -0.274 -0.274
 0.198  0.843 -0.272 -0.322 -0.289 -0.272 -0.272
 0.200  0.848 -0.266 -0.318 -0.286 -0.270 -0.270
 0.202  0.853 -0.260 -0.315 -0.284 -0.268 -0.268
 0.204  0.858 -0.254 -0.310 -0.281 -0.266 -0.266
 0.206  0.864 -0.249 -0.307 -0.279 -0.264 -0.264
 0.208  0.870 -0.243 -0.304 -0.276 -0.262 -0.262
 0.210  0.874 -0.237 -0.300 -0.274 -0.259 -0.259
 0.212  0.879 -0.231 -0.297 -0.272 -0.257 -0.257
 0.214  0.885 -0.225 -0.293 -0.269 -0.255 -0.255
 0.216  0.891 -0.219 -0.289 -0.267 -0.253 -0.253
 0.218  0.896 -0.213 -0.286 -0.264 -0.250 -0.250
 0.220  0.901 -0.207 -0.282 -0.262 -0.249 -0.249
 0.222  0.906 -0.201 -0.279 -0.260 -0.246 -0.246
 0.224  0.912 -0.195 -0.276 -0.258 -0.244 -0.244
 0.226  0.916 -0.189 -0.273 -0.255 -0.241 -0.241
 0.228  0.922 -0.182 -0.268 -0.254 -0.240 -0.240
 0.230  0.928 -0.176 -0.265 -0.251 -0.237 -0.237
 0.232  0.932 -0.170 -0.262 -0.248 -0.235 -0.235
 0.234  0.937 -0.164 -0.259 -0.247 -0.233 -0.233
 0.236  0.942 -0.158 -0.256 -0.244 -0.231 -0.231
 0.238  0.947 -0.153 -0.253 -0.242 -0.228 -0.228
 0.240  0.952 -0.147 -0.250 -0.240 -0.227 -0.227
 0.242  0.957 -0.141 -0.245 -0.238 -0.224 -0.224
 0.244  0.961 -0.135 -0.242 -0.235 -0.223 -0.223
 0.246  0.966 -0.129 -0.239 -0.233 -0.220 -0.220
 0.248  0.971 -0.123 -0.236 -0.231 -0.218 -0.218
 0.250  0.976 -0.119 -0.233 -0.228 -0.216 -0.216
 0.252  0.980 -0.113 -0.230 -0.227 -0.214 -0.214
 0.254  0.985 -0.107 -0.227 -0.224 -0.212 -0.212
 0.256  0.990 -0.102 -0.224 -0.222 -0.210 -0.210
 0.258  0.994 -0.096 -0.221 -0.220 -0.208 -0.208
 0.260  0.998 -0.091 -0.218 -0.217 -0.206 -0.206
 0.262  1.002 -0.086 -0.215 -0.216 -0.203 -0.203
 0.264  1.008 -0.080 -0.212 -0.213 -0.202 -0.202
 0.266  1.012 -0.076 -0.209 -0.211 -0.199 -0.199
 0.268  1.017 -0.070 -0.206 -0.209 -0.198 -0.198
 0.270  1.021 -0.065 -0.203 -0.206 -0.195 -0.195
 0.272  1.025 -0.061 -0.200 -0.205 -0.194 -0.194
 0.274  1.029 -0.055 -0.197 -0.202 -0.191 -0.191
 0.276  1.034 -0.051 -0.194 -0.201 -0.190 -0.190
 0.278  1.038 -0.046 -0.192 -0.198 -0.187 -0.187
 0.280  1.042 -0.042 -0.189 -0.195 -0.186 -0.186
 0.282  1.046 -0.037 -0.186 -0.194 -0.183 -0.183
 0.284  1.049 -0.032 -0.184 -0.191 -0.182 -0.182
 0.286  1.053 -0.027 -0.180 -0.190 -0.180 -0.180
 0.288  1.058 -0.023 -0.177 -0.187 -0.178 -0.178
 0.290  1.062 -0.018 -0.175 -0.185 -0.176 -0.176
 0.292  1.066 -0.015 -0.172 -0.183 -0.174 -0.174
 0.294  1.070 -0.011 -0.170 -0.181 -0.172 -0.172
 0.296  1.073 -0.006 -0.167 -0.179 -0.170 -0.170
 0.298  1.077 -0.002 -0.165 -0.176 -0.168 -0.168
 0.300  1.082  0.002 -0.162 -0.174 -0.166 -0.166
 0.302  1.086  0.005 -0.158 -0.172 -0.164 -0.164
 0.304  1.089  0.010 -0.156 -0.170 -0.162 -0.162
 0.306  1.093  0.014 -0.153 -0.168 -0.160 -0.160
 0.308  1.097  0.019 -0.151 -0.166 -0.158 -0.158
 0.310  1.101  0.022 -0.148 -0.163 -0.157 -0.157
 0.312  1.104  0.026 -0.146 -0.162 -0.154 -0.154
 0.314  1.109  0.030 -0.143 -0.159 -0.153 -0.153
 0.316  1.113  0.033 -0.140 -0.157 -0.151 -0.151
 0.318  1.117  0.038 -0.137 -0.155 -0.149 -0.149
 0.320  1.120  0.042 -0.134 -0.153 -0.147 -0.147
 0.322  1.124  0.047 -0.132 -0.151 -0.145 -0.145
 0.324  1.128  0.050 -0.129 -0.148 -0.143 -0.143
 0.326  1.131  0.054 -0.126 -0.146 -0.141 -0.141
 0.328  1.135  0.059 -0.124 -0.144 -0.140 -0.140
 0.330  1.140  0.063 -0.121 -0.142 -0.137 -0.137
 0.332  1.144  0.067 -0.119 -0.140 -0.136 -0.136
 0.334  1.147  0.070 -0.115 -0.137 -0.134 -0.134
 0.336  1.151  0.075 -0.113 -0.135 -0.132 -0.132
 0.338  1.155  0.079 -0.110 -0.133 -0.130 -0.130
 0.340  1.158  0.084 -0.108 -0.131 -0.128 -0.128
 0.342  1.162  0.088 -0.105 -0.129 -0.127 -0.127
 0.344  1.165  0.092 -0.102 -0.126 -0.124 -0.124
 0.346  1.169  0.097 -0.100 -0.124 -0.123 -0.123
 0.348  1.174  0.101 -0.097 -0.122 -0.121 -0.121
 0.350  1.176  0.106 -0.094 -0.120 -0.120 -0.120
 0.352  1.181  0.110 -0.091 -0.117 -0.117 -0.117
 0.354  1.185  0.115 -0.089 -0.116 -0.116 -0.116
 0.356  1.188  0.119 -0.086 -0.113 -0.114 -0.114
 0.358  1.192  0.123 -0.083 -0.110 -0.112 -0.112
 0.360  1.195  0.128 -0.081 -0.109 -0.110 -0.110
 0.362  1.199  0.132 -0.078 -0.106 -0.108 -0.108
 0.364  1.203  0.137 -0.076 -0.104 -0.107 -0.107
 0.366  1.206  0.141 -0.072 -0.101 -0.105 -0.105
 0.368  1.210  0.146 -0.070 -0.100 -0.103 -0.103
 0.370  1.213  0.150 -0.067 -0.097 -0.101 -0.101
 0.372  1.217  0.154 -0.065 -0.094 -0.099 -0.099
 0.374  1.220  0.159 -0.062 -0.093 -0.097 -0.097
 0.376  1.225  0.163 -0.060 -0.090 -0.095 -0.095
 0.378  1.227  0.168 -0.057 -0.088 -0.094 -0.094
 0.380  1.232  0.172 -0.055 -0.086 -0.092 -0.092
 0.382  1.234  0.177 -0.051 -0.084 -0.090 -0.090
 0.384  1.239  0.181 -0.049 -0.082 -0.088 -0.088
 0.386  1.241  0.185 -0.046 -0.079 -0.086 -0.086
 0.388  1.246  0.190 -0.044 -0.077 -0.084 -0.084
 0.390  1.249  0.194 -0.041 -0.075 -0.082 -0.082
 0.392  1.253  0.199 -0.039 -0.073 -0.081 -0.081
 0.394  1.256  0.203 -0.036 -0.071 -0.078 -0.078
 0.396  1.260  0.208 -0.034 -0.068 -0.077 -0.077
 0.398  1.263  0.211 -0.031 -0.066 -0.075 -0.075
 0.400  1.267  0.215 -0.028 -0.064 -0.073 -0.073
 0.402  1.270  0.219 -0.025 -0.062 -0.071 -0.071
 0.404  1.274  0.222 -0.023 -0.060 -0.069 -0.069
 0.406  1.277  0.227 -0.020 -0.057 -0.067 -0.067
 0.408  1.280  0.230 -0.018 -0.056 -0.066 -0.066
 0.410  1.284  0.234 -0.015 -0.053 -0.063 -0.063
 0.412  1.287  0.237 -0.013 -0.052 -0.061 -0.061
 0.414  1.290  0.242 -0.010 -0.049 -0.059 -0.059
 0.416  1.294  0.245 -0.007 -0.047 -0.057 -0.057
 0.418  1.297  0.249 -0.005 -0.045 -0.056 -0.056
 0.420  1.301  0.252 -0.002 -0.043 -0.053 -0.053
 0.422  1.304  0.255 -0.000 -0.041 -0.052 -0.052
 0.424  1.307  0.258  0.003 -0.039 -0.049 -0.049
 0.426  1.311  0.262  0.005 -0.037 -0.048 -0.048
 0.428  1.314  0.265  0.008 -0.035 -0.045 -0.045
 0.430  1.316  0.268  0.010 -0.033 -0.044 -0.044
 0.432  1.319  0.271  0.012 -0.031 -0.041 -0.041
 0.434  1.324  0.274  0.016 -0.029 -0.040 -0.040
 0.436  1.326  0.277  0.018 -0.027 -0.038 -0.038
 0.438  1.329  0.280  0.021 -0.025 -0.036 -0.036
 0.440  1.332  0.283  0.023 -0.023 -0.034 -0.034
 0.442  1.336  0.286  0.025 -0.021 -0.032 -0.032
 0.444  1.339  0.289  0.028 -0.019 -0.030 -0.030
 0.446  1.342  0.292  0.030 -0.017 -0.028 -0.028
 0.448  1.345  0.295  0.032 -0.015 -0.026 -0.026
 0.450  1.348  0.296  0.034 -0.013 -0.024 -0.024
 0.452  1.350  0.299  0.038 -0.011 -0.023 -0.023
 0.454  1.353  0.302  0.040 -0.009 -0.020 -0.020
 0.456  1.356  0.304  0.042 -0.007 -0.019 -0.019
 0.458  1.359  0.307  0.044 -0.005 -0.017 -0.017
 0.460  1.362  0.309  0.047 -0.004 -0.015 -0.015
 0.462  1.365  0.311  0.049 -0.001 -0.013 -0.013
 0.464  1.367  0.314  0.051  0.001 -0.011 -0.011
 0.466  1.370  0.315  0.053  0.002 -0.010 -0.010
 0.468  1.373  0.318  0.055  0.004 -0.007 -0.007
 0.470  1.376  0.320  0.058  0.006 -0.006 -0.006
 0.472  1.379  0.323  0.061  0.008 -0.004 -0.004
 0.474  1.381  0.324  0.063  0.010 -0.003 -0.003
 0.476  1.384  0.327  0.065  0.012 -0.000 -0.000
 0.478  1.386  0.329  0.067  0.014  0.001  0.001
 0.480  1.389  0.332  0.069  0.016  0.003  0.003
 0.482  1.391  0.333  0.071  0.017  0.005  0.005
 0.484  1.394  0.335  0.073  0.020  0.006  0.006
 0.486  1.396  0.336  0.075  0.022  0.008  0.008
 0.488  1.398  0.339  0.077  0.023  0.010  0.010
 0.490  1.401  0.340  0.080  0.026  0.012  0.012
 0.492  1.403  0.342  0.082  0.028  0.014  0.014
 0.494  1.406  0.343  0.084  0.029  0.015  0.015
 0.496  1.408  0.345  0.086  0.031  0.017  0.017
 0.498  1.410  0.346  0.088  0.033  0.018  0.018
 0.500  1.413  0.348  0.090  0.035  0.020  0.020
 0.502  1.414  0.351  0.092  0.037  0.022  0.022
 0.504  1.417  0.352  0.094  0.039  0.023  0.023
 0.506  1.418  0.354  0.096  0.041  0.025  0.025
 0.508  1.421  0.355  0.097  0.043  0.026  0.026
 0.510  1.423  0.355  0.099  0.044  0.028  0.028
 0.512  1.425  0.357  0.102  0.046  0.030  0.030
 0.514  1.427  0.358  0.104  0.048  0.031  0.031
 0.516  1.428  0.360  0.105  0.050  0.033  0.033
 0.518  1.430  0.361  0.107  0.052  0.035  0.035
 0.520  1.432  0.363  0.109  0.054  0.035  0.035
 0.522  1.434  0.363  0.110  0.055  0.037  0.037
 0.524  1.435  0.364  0.112  0.056  0.039  0.039
 0.526  1.437  0.366  0.113  0.058  0.040  0.040
 0.528  1.438  0.367  0.115  0.059  0.042  0.042
 0.530  1.439  0.367  0.116  0.061  0.043  0.043
 0.532  1.441  0.369  0.118  0.063  0.044  0.044
 0.534  1.442  0.370  0.119  0.064  0.046  0.046
 0.536  1.444  0.370  0.121  0.065  0.047  0.047
 0.538  1.445  0.371  0.123  0.066  0.048  0.048
 0.540  1.447  0.371  0.124  0.067  0.049  0.049
 0.542  1.448  0.373  0.126  0.069  0.051  0.051
 0.544  1.449  0.373  0.127  0.070  0.051  0.051
 0.546  1.451  0.374  0.128  0.070  0.053  0.053
 0.548  1.452  0.374  0.129  0.072  0.054  0.054
 0.550  1.452  0.376  0.130  0.073  0.055  0.055
 0.552  1.454  0.376  0.132  0.074  0.056  0.056
 0.554  1.455  0.376  0.133  0.075  0.058  0.058
 0.556  1.455  0.377  0.134  0.075  0.059  0.059
 0.558  1.456  0.377  0.135  0.076  0.060  0.060
 0.560  1.456  0.379  0.136  0.077  0.061  0.061
 0.562  1.458  0.379  0.137  0.077  0.062  0.062
 0.564  1.458  0.379  0.138  0.078  0.063  0.063
 0.566  1.459  0.379  0.139  0.079  0.064  0.064
 0.568  1.459  0.380  0.140  0.080  0.065  0.065
 0.570  1.461  0.380  0.140  0.080  0.066  0.066
 0.572  1.461  0.380  0.141  0.081  0.067  0.067
 0.574  1.461  0.380  0.142  0.081  0.068  0.068
 0.576  1.462  0.380  0.143  0.081  0.068  0.068
 0.578  1.462  0.380  0.143  0.081  0.070  0.070
 0.580  1.462  0.380  0.145  0.081  0.071  0.071
 0.582  1.462  0.380  0.146  0.081  0.072  0.072
 0.584  1.464  0.380  0.146  0.082  0.072  0.072
 0.586  1.464  0.380  0.147  0.082  0.073  0.073
 0.588  1.464  0.380  0.147  0.082  0.074  0.074
 0.590  1.464  0.380  0.148  0.082  0.075  0.075
 0.592  1.464  0.380  0.148  0.083  0.076  0.076
 0.594  1.465  0.380  0.149  0.083  0.076  0.076
 0.596  1.465  0.380  0.149  0.083  0.077  0.077
 0.598  1.465  0.380  0.150  0.084  0.078  0.078
 0.600  1.465  0.380  0.150  0.084  0.079  0.079
 0.602  1.465  0.380  0.150  0.084  0.079  0.079
 0.604  1.465  0.380  0.150  0.085  0.080  0.080
 0.606  1.465  0.380  0.151  0.085  0.081  0.081
 0.608  1.465  0.380  0.151  0.085  0.081  0.081
 0.610  1.465  0.379  0.151  0.085  0.082  0.082
 0.612  1.465  0.379  0.151  0.086  0.083  0.083
 0.614  1.465  0.379  0.151  0.086  0.083  0.083
 0.616  1.465  0.379  0.151  0.086  0.084  0.084
 0.618  1.465  0.379  0.151  0.086  0.085  0.085
 0.620  1.465  0.379  0.151  0.086  0.085  0.085
 0.622  1.465  0.379  0.151  0.087  0.085  0.085
 0.624  1.465  0.379  0.151  0.087  0.086  0.086
 0.626  1.464  0.379  0.151  0.087  0.087  0.087
 0.628  1.464  0.379  0.150  0.088  0.087  0.087
 0.630  1.464  0.377  0.150  0.088  0.088  0.088
 0.632  1.464  0.377  0.150  0.089  0.089  0.089
 0.634  1.464  0.377  0.149  0.089  0.089  0.089
 0.636  1.462  0.377  0.149  0.090  0.089  0.089
 0.638  1.462  0.377  0.149  0.090  0.089  0.089
 0.640  1.462  0.377  0.148  0.090  0.090  0.090
 0.642  1.462  0.377  0.148  0.091  0.090  0.090
 0.644  1.461  0.377  0.147  0.091  0.091  0.091
 0.646  1.461  0.376  0.147  0.091  0.091  0.091
 0.648  1.461  0.376  0.146  0.091  0.092  0.092
 0.650  1.459  0.376  0.146  0.092  0.092  0.092
 0.652  1.459  0.376  0.145  0.092  0.093  0.093
 0.654  1.459  0.376  0.145  0.093  0.093  0.093
 0.656  1.459  0.376  0.143  0.093  0.093  0.093
 0.658  1.458  0.374  0.143  0.094  0.094  0.094
 0.660  1.458  0.374  0.143  0.094  0.094  0.094
 0.662  1.458  0.374  0.142  0.094  0.095  0.095
 0.664  1.456  0.374  0.142  0.095  0.095  0.095
 0.666  1.456  0.374  0.141  0.095  0.096  0.096
 0.668  1.456  0.374  0.141  0.095  0.097  0.097
 0.670  1.455  0.374  0.140  0.096  0.097  0.097
 0.672  1.455  0.374  0.140  0.096  0.097  0.097
 0.674  1.455  0.374  0.140  0.096  0.098  0.098
 0.676  1.454  0.374  0.139  0.096  0.098  0.098
 0.678  1.454  0.374  0.139  0.096  0.099  0.099
 0.680  1.454  0.376  0.139  0.096  0.100  0.100
 0.682  1.454  0.376  0.138  0.096  0.100  0.100
 0.684  1.452  0.376  0.138  0.096  0.101  0.101
 0.686  1.452  0.377  0.138  0.096  0.101  0.101
 0.688  1.452  0.377  0.138  0.096  0.101  0.101
 0.690  1.451  0.379  0.137  0.096  0.102  0.102
 0.692  1.451  0.379  0.137  0.096  0.103  0.103
 0.694  1.451  0.380  0.137  0.095  0.104  0.104
 0.696  1.449  0.382  0.137  0.095  0.104  0.104
 0.698  1.449  0.382  0.137  0.095  0.105  0.105
 0.700  1.449  0.383  0.136  0.095  0.106  0.106
 0.702  1.448  0.385  0.136  0.095  0.106  0.106
 0.704  1.448  0.386  0.136  0.094  0.106  0.106
 0.706  1.448  0.388  0.136  0.094  0.107  0.107
 0.708  1.448  0.389  0.136  0.093  0.108  0.108
 0.710  1.447  0.391  0.136  0.093  0.109  0.109
 0.712  1.447  0.392  0.136  0.092  0.110  0.110
 0.714  1.447  0.394  0.135  0.092  0.110  0.110
 0.716  1.445  0.395  0.135  0.091  0.110  0.110
 0.718  1.445  0.397  0.135  0.091  0.111  0.111
 0.720  1.445  0.400  0.135  0.090  0.112  0.112
 0.722  1.445  0.401  0.135  0.090  0.113  0.113
 0.724  1.444  0.402  0.135  0.089  0.114  0.114
 0.726  1.444  0.405  0.135  0.089  0.114  0.114
 0.728  1.444  0.407  0.135  0.088  0.115  0.115
 0.730  1.444  0.410  0.135  0.088  0.116  0.116
 0.732  1.442  0.411  0.135  0.088  0.117  0.117
 0.734  1.442  0.414  0.135  0.088  0.118  0.118
 0.736  1.442  0.417  0.135  0.088  0.118  0.118
 0.738  1.442  0.419  0.135  0.088  0.119  0.119
 0.740  1.441  0.422  0.135  0.088  0.121  0.121
 0.742  1.441  0.425  0.134  0.089  0.122  0.122
 0.744  1.441  0.426  0.134  0.090  0.122  0.122
 0.746  1.441  0.429  0.134  0.090  0.123  0.123
 0.748  1.441  0.432  0.134  0.091  0.125  0.125
 0.750  1.441  0.435  0.134  0.091  0.126  0.126
 0.752  1.439  0.438  0.134  0.093  0.126  0.126
 0.754  1.439  0.441  0.134  0.094  0.128  0.128
 0.756  1.439  0.444  0.134  0.096  0.129  0.129
 0.758  1.439  0.447  0.134  0.097  0.131  0.131
 0.760  1.439  0.451  0.134  0.098  0.131  0.131
 0.762  1.439  0.454  0.134  0.100  0.133  0.133
 0.764  1.439  0.457  0.134  0.102  0.134  0.134
 0.766  1.439  0.460  0.134  0.104  0.135  0.135
 0.768  1.439  0.463  0.134  0.106  0.137  0.137
 0.770  1.439  0.467  0.134  0.108  0.138  0.138
 0.772  1.439  0.470  0.134  0.111  0.139  0.139
 0.774  1.439  0.473  0.134  0.113  0.140  0.140
 0.776  1.438  0.476  0.134  0.116  0.142  0.142
 0.778  1.438  0.481  0.134  0.119  0.143  0.143
 0.780  1.438  0.484  0.133  0.122  0.145  0.145
 0.782  1.438  0.487  0.133  0.125  0.146  0.146
 0.784  1.438  0.491  0.133  0.128  0.147  0.147
 0.786  1.438  0.494  0.134  0.132  0.149  0.149
 0.788  1.438  0.498  0.134  0.135  0.151  0.151
 0.790  1.439  0.503  0.134  0.139  0.152  0.152
 0.792  1.439  0.507  0.134  0.142  0.154  0.154
 0.794  1.441  0.512  0.135  0.146  0.156  0.156
 0.796  1.441  0.516  0.136  0.150  0.158  0.158
 0.798  1.442  0.521  0.136  0.153  0.160  0.160
 0.800  1.444  0.525  0.138  0.157  0.162  0.162
 0.802  1.445  0.529  0.139  0.160  0.164  0.164
 0.804  1.447  0.534  0.140  0.164  0.166  0.166
 0.806  1.448  0.537  0.142  0.167  0.168  0.168
 0.808  1.451  0.540  0.143  0.171  0.171  0.171
