# IsPeriodic    : True
# Period        : 0.557745 days
# Normalization : <g_mag>=0
# 
# Phase u_mag  g_mag  r_mag  i_mag  z_mag  y_mag
 0.000  0.613 -0.534 -0.510 -0.474 -0.430 -0.430
 0.002  0.613 -0.534 -0.510 -0.474 -0.430 -0.430
 0.004  0.613 -0.533 -0.509 -0.474 -0.430 -0.430
 0.006  0.613 -0.532 -0.509 -0.474 -0.430 -0.430
 0.008  0.614 -0.531 -0.508 -0.473 -0.429 -0.429
 0.010  0.616 -0.529 -0.508 -0.472 -0.429 -0.429
 0.012  0.618 -0.527 -0.507 -0.472 -0.428 -0.428
 0.014  0.619 -0.525 -0.506 -0.470 -0.428 -0.428
 0.016  0.621 -0.521 -0.506 -0.469 -0.427 -0.427
 0.018  0.624 -0.519 -0.505 -0.468 -0.427 -0.427
 0.020  0.626 -0.515 -0.504 -0.466 -0.426 -0.426
 0.022  0.629 -0.512 -0.503 -0.464 -0.425 -0.425
 0.024  0.631 -0.509 -0.502 -0.462 -0.425 -0.425
 0.026  0.634 -0.505 -0.501 -0.460 -0.424 -0.424
 0.028  0.637 -0.502 -0.500 -0.459 -0.423 -0.423
 0.030  0.640 -0.498 -0.499 -0.457 -0.422 -0.422
 0.032  0.643 -0.495 -0.497 -0.455 -0.421 -0.421
 0.034  0.645 -0.492 -0.495 -0.453 -0.421 -0.421
 0.036  0.649 -0.488 -0.494 -0.451 -0.420 -0.420
 0.038  0.651 -0.485 -0.492 -0.449 -0.419 -0.419
 0.040  0.655 -0.481 -0.490 -0.447 -0.418 -0.418
 0.042  0.657 -0.477 -0.488 -0.445 -0.417 -0.417
 0.044  0.660 -0.473 -0.486 -0.443 -0.416 -0.416
 0.046  0.664 -0.470 -0.484 -0.441 -0.414 -0.414
 0.048  0.667 -0.465 -0.481 -0.439 -0.414 -0.414
 0.050  0.672 -0.461 -0.479 -0.437 -0.412 -0.412
 0.052  0.675 -0.457 -0.476 -0.435 -0.411 -0.411
 0.054  0.678 -0.452 -0.474 -0.434 -0.410 -0.410
 0.056  0.683 -0.448 -0.471 -0.432 -0.409 -0.409
 0.058  0.687 -0.443 -0.469 -0.430 -0.408 -0.408
 0.060  0.690 -0.439 -0.465 -0.428 -0.406 -0.406
 0.062  0.695 -0.434 -0.463 -0.427 -0.405 -0.405
 0.064  0.699 -0.429 -0.460 -0.425 -0.403 -0.403
 0.066  0.704 -0.424 -0.457 -0.423 -0.402 -0.402
 0.068  0.708 -0.418 -0.454 -0.421 -0.401 -0.401
 0.070  0.713 -0.413 -0.451 -0.419 -0.399 -0.399
 0.072  0.718 -0.408 -0.448 -0.417 -0.398 -0.398
 0.074  0.723 -0.403 -0.445 -0.416 -0.396 -0.396
 0.076  0.727 -0.398 -0.442 -0.414 -0.394 -0.394
 0.078  0.732 -0.392 -0.439 -0.412 -0.393 -0.393
 0.080  0.738 -0.387 -0.436 -0.410 -0.391 -0.391
 0.082  0.743 -0.382 -0.433 -0.408 -0.390 -0.390
 0.084  0.747 -0.376 -0.430 -0.407 -0.388 -0.388
 0.086  0.752 -0.371 -0.428 -0.405 -0.387 -0.387
 0.088  0.757 -0.366 -0.424 -0.404 -0.385 -0.385
 0.090  0.762 -0.361 -0.422 -0.402 -0.384 -0.384
 0.092  0.767 -0.355 -0.419 -0.400 -0.382 -0.382
 0.094  0.772 -0.350 -0.416 -0.398 -0.381 -0.381
 0.096  0.776 -0.345 -0.414 -0.397 -0.380 -0.380
 0.098  0.781 -0.340 -0.412 -0.395 -0.378 -0.378
 0.100  0.786 -0.335 -0.409 -0.394 -0.377 -0.377
 0.102  0.791 -0.331 -0.406 -0.392 -0.375 -0.375
 0.104  0.795 -0.326 -0.404 -0.390 -0.374 -0.374
 0.106  0.799 -0.321 -0.401 -0.388 -0.373 -0.373
 0.108  0.804 -0.316 -0.399 -0.387 -0.371 -0.371
 0.110  0.808 -0.312 -0.396 -0.385 -0.370 -0.370
 0.112  0.812 -0.308 -0.394 -0.383 -0.369 -0.369
 0.114  0.816 -0.304 -0.392 -0.382 -0.367 -0.367
 0.116  0.821 -0.299 -0.390 -0.380 -0.366 -0.366
 0.118  0.825 -0.295 -0.387 -0.379 -0.365 -0.365
 0.120  0.828 -0.292 -0.385 -0.377 -0.364 -0.364
 0.122  0.833 -0.287 -0.383 -0.375 -0.363 -0.363
 0.124  0.836 -0.284 -0.380 -0.374 -0.361 -0.361
 0.126  0.840 -0.280 -0.379 -0.372 -0.360 -0.360
 0.128  0.844 -0.276 -0.377 -0.371 -0.359 -0.359
 0.130  0.847 -0.273 -0.374 -0.369 -0.358 -0.358
 0.132  0.852 -0.270 -0.372 -0.367 -0.357 -0.357
 0.134  0.855 -0.266 -0.371 -0.366 -0.355 -0.355
 0.136  0.858 -0.263 -0.368 -0.364 -0.354 -0.354
 0.138  0.862 -0.259 -0.366 -0.362 -0.353 -0.353
 0.140  0.865 -0.256 -0.364 -0.361 -0.352 -0.352
 0.142  0.868 -0.253 -0.363 -0.360 -0.351 -0.351
 0.144  0.871 -0.250 -0.361 -0.358 -0.350 -0.350
 0.146  0.875 -0.247 -0.359 -0.356 -0.349 -0.349
 0.148  0.878 -0.244 -0.357 -0.355 -0.348 -0.348
 0.150  0.881 -0.241 -0.355 -0.353 -0.347 -0.347
 0.152  0.884 -0.239 -0.353 -0.351 -0.346 -0.346
 0.154  0.887 -0.236 -0.351 -0.350 -0.345 -0.345
 0.156  0.890 -0.233 -0.349 -0.349 -0.344 -0.344
 0.158  0.893 -0.230 -0.347 -0.347 -0.343 -0.343
 0.160  0.896 -0.228 -0.345 -0.345 -0.342 -0.342
 0.162  0.899 -0.225 -0.343 -0.344 -0.341 -0.341
 0.164  0.901 -0.223 -0.341 -0.342 -0.340 -0.340
 0.166  0.905 -0.220 -0.339 -0.340 -0.338 -0.338
 0.168  0.907 -0.218 -0.338 -0.339 -0.337 -0.337
 0.170  0.911 -0.214 -0.336 -0.338 -0.337 -0.337
 0.172  0.913 -0.212 -0.334 -0.336 -0.335 -0.335
 0.174  0.917 -0.208 -0.331 -0.335 -0.334 -0.334
 0.176  0.919 -0.206 -0.330 -0.333 -0.333 -0.333
 0.178  0.923 -0.202 -0.328 -0.331 -0.332 -0.332
 0.180  0.925 -0.200 -0.326 -0.330 -0.331 -0.331
 0.182  0.929 -0.196 -0.324 -0.328 -0.330 -0.330
 0.184  0.932 -0.194 -0.322 -0.327 -0.329 -0.329
 0.186  0.935 -0.190 -0.320 -0.326 -0.328 -0.328
 0.188  0.938 -0.187 -0.318 -0.324 -0.327 -0.327
 0.190  0.941 -0.184 -0.316 -0.323 -0.326 -0.326
 0.192  0.944 -0.181 -0.314 -0.321 -0.325 -0.325
 0.194  0.947 -0.178 -0.312 -0.320 -0.324 -0.324
 0.196  0.950 -0.175 -0.310 -0.319 -0.323 -0.323
 0.198  0.953 -0.172 -0.308 -0.317 -0.322 -0.322
 0.200  0.956 -0.168 -0.306 -0.316 -0.321 -0.321
 0.202  0.959 -0.165 -0.304 -0.315 -0.320 -0.320
 0.204  0.963 -0.161 -0.302 -0.314 -0.319 -0.319
 0.206  0.965 -0.159 -0.300 -0.312 -0.317 -0.317
 0.208  0.969 -0.156 -0.298 -0.311 -0.317 -0.317
 0.210  0.972 -0.152 -0.297 -0.310 -0.315 -0.315
 0.212  0.975 -0.148 -0.294 -0.308 -0.314 -0.314
 0.214  0.978 -0.144 -0.292 -0.307 -0.314 -0.314
 0.216  0.982 -0.141 -0.290 -0.306 -0.312 -0.312
 0.218  0.985 -0.138 -0.289 -0.305 -0.311 -0.311
 0.220  0.988 -0.134 -0.286 -0.304 -0.310 -0.310
 0.222  0.991 -0.131 -0.284 -0.302 -0.309 -0.309
 0.224  0.995 -0.127 -0.282 -0.301 -0.308 -0.308
 0.226  0.998 -0.123 -0.281 -0.300 -0.307 -0.307
 0.228  1.001 -0.120 -0.278 -0.299 -0.306 -0.306
 0.230  1.004 -0.116 -0.276 -0.298 -0.305 -0.305
 0.232  1.007 -0.113 -0.274 -0.297 -0.304 -0.304
 0.234  1.010 -0.110 -0.273 -0.295 -0.303 -0.303
 0.236  1.013 -0.106 -0.270 -0.294 -0.302 -0.302
 0.238  1.017 -0.103 -0.268 -0.293 -0.301 -0.301
 0.240  1.019 -0.099 -0.267 -0.293 -0.300 -0.300
 0.242  1.023 -0.096 -0.265 -0.291 -0.299 -0.299
 0.244  1.025 -0.093 -0.262 -0.290 -0.297 -0.297
 0.246  1.029 -0.089 -0.260 -0.289 -0.297 -0.297
 0.248  1.031 -0.086 -0.259 -0.288 -0.295 -0.295
 0.250  1.035 -0.083 -0.257 -0.287 -0.294 -0.294
 0.252  1.037 -0.080 -0.254 -0.286 -0.293 -0.293
 0.254  1.041 -0.076 -0.252 -0.284 -0.292 -0.292
 0.256  1.043 -0.073 -0.251 -0.283 -0.291 -0.291
 0.258  1.047 -0.070 -0.249 -0.282 -0.290 -0.290
 0.260  1.049 -0.067 -0.246 -0.281 -0.289 -0.289
 0.262  1.053 -0.064 -0.244 -0.280 -0.288 -0.288
 0.264  1.055 -0.061 -0.243 -0.279 -0.287 -0.287
 0.266  1.058 -0.058 -0.241 -0.277 -0.286 -0.286
 0.268  1.061 -0.055 -0.238 -0.276 -0.285 -0.285
 0.270  1.064 -0.053 -0.237 -0.275 -0.284 -0.284
 0.272  1.067 -0.050 -0.235 -0.274 -0.283 -0.283
 0.274  1.070 -0.047 -0.232 -0.272 -0.282 -0.282
 0.276  1.073 -0.044 -0.230 -0.271 -0.280 -0.280
 0.278  1.075 -0.041 -0.229 -0.270 -0.280 -0.280
 0.280  1.078 -0.039 -0.227 -0.269 -0.278 -0.278
 0.282  1.080 -0.036 -0.224 -0.267 -0.277 -0.277
 0.284  1.084 -0.033 -0.222 -0.266 -0.276 -0.276
 0.286  1.086 -0.030 -0.221 -0.264 -0.275 -0.275
 0.288  1.089 -0.028 -0.219 -0.263 -0.274 -0.274
 0.290  1.091 -0.025 -0.216 -0.262 -0.273 -0.273
 0.292  1.094 -0.023 -0.214 -0.260 -0.272 -0.272
 0.294  1.097 -0.020 -0.213 -0.259 -0.271 -0.271
 0.296  1.099 -0.019 -0.211 -0.258 -0.270 -0.270
 0.298  1.102 -0.016 -0.208 -0.256 -0.269 -0.269
 0.300  1.104 -0.013 -0.207 -0.255 -0.268 -0.268
 0.302  1.107 -0.011 -0.205 -0.253 -0.267 -0.267
 0.304  1.109 -0.008 -0.203 -0.252 -0.266 -0.266
 0.306  1.112 -0.006 -0.201 -0.250 -0.264 -0.264
 0.308  1.115 -0.003 -0.199 -0.249 -0.263 -0.263
 0.310  1.117 -0.001 -0.197 -0.248 -0.262 -0.262
 0.312  1.120  0.001 -0.195 -0.246 -0.261 -0.261
 0.314  1.122  0.004 -0.193 -0.245 -0.260 -0.260
 0.316  1.125  0.006 -0.191 -0.243 -0.259 -0.259
 0.318  1.127  0.009 -0.189 -0.241 -0.258 -0.258
 0.320  1.130  0.011 -0.188 -0.240 -0.257 -0.257
 0.322  1.132  0.014 -0.186 -0.238 -0.256 -0.256
 0.324  1.134  0.016 -0.184 -0.237 -0.255 -0.255
 0.326  1.137  0.019 -0.182 -0.236 -0.253 -0.253
 0.328  1.139  0.021 -0.180 -0.234 -0.252 -0.252
 0.330  1.142  0.024 -0.178 -0.233 -0.251 -0.251
 0.332  1.144  0.027 -0.177 -0.232 -0.250 -0.250
 0.334  1.146  0.028 -0.175 -0.230 -0.249 -0.249
 0.336  1.149  0.031 -0.173 -0.229 -0.248 -0.248
 0.338  1.151  0.033 -0.171 -0.227 -0.247 -0.247
 0.340  1.153  0.036 -0.169 -0.226 -0.246 -0.246
 0.342  1.156  0.039 -0.167 -0.225 -0.245 -0.245
 0.344  1.157  0.041 -0.166 -0.224 -0.243 -0.243
 0.346  1.160  0.044 -0.164 -0.222 -0.242 -0.242
 0.348  1.163  0.046 -0.162 -0.221 -0.241 -0.241
 0.350  1.164  0.049 -0.160 -0.220 -0.240 -0.240
 0.352  1.167  0.051 -0.158 -0.218 -0.239 -0.239
 0.354  1.169  0.054 -0.156 -0.217 -0.238 -0.238
 0.356  1.171  0.056 -0.154 -0.216 -0.237 -0.237
 0.358  1.173  0.059 -0.153 -0.215 -0.236 -0.236
 0.360  1.175  0.061 -0.151 -0.213 -0.234 -0.234
 0.362  1.177  0.064 -0.150 -0.212 -0.233 -0.233
 0.364  1.180  0.067 -0.148 -0.211 -0.232 -0.232
 0.366  1.181  0.069 -0.146 -0.210 -0.231 -0.231
 0.368  1.184  0.071 -0.144 -0.208 -0.230 -0.230
 0.370  1.186  0.073 -0.143 -0.207 -0.229 -0.229
 0.372  1.188  0.076 -0.141 -0.206 -0.228 -0.228
 0.374  1.190  0.079 -0.139 -0.205 -0.226 -0.226
 0.376  1.192  0.081 -0.138 -0.204 -0.226 -0.226
 0.378  1.194  0.084 -0.136 -0.203 -0.224 -0.224
 0.380  1.197  0.086 -0.135 -0.202 -0.223 -0.223
 0.382  1.198  0.088 -0.133 -0.201 -0.222 -0.222
 0.384  1.201  0.090 -0.132 -0.199 -0.221 -0.221
 0.386  1.203  0.093 -0.130 -0.198 -0.220 -0.220
 0.388  1.205  0.096 -0.129 -0.197 -0.219 -0.219
 0.390  1.207  0.097 -0.127 -0.196 -0.218 -0.218
 0.392  1.210  0.100 -0.126 -0.195 -0.216 -0.216
 0.394  1.211  0.102 -0.124 -0.193 -0.215 -0.215
 0.396  1.214  0.104 -0.123 -0.193 -0.214 -0.214
 0.398  1.216  0.107 -0.121 -0.191 -0.213 -0.213
 0.400  1.218  0.108 -0.120 -0.190 -0.212 -0.212
 0.402  1.221  0.111 -0.118 -0.189 -0.211 -0.211
 0.404  1.222  0.113 -0.117 -0.188 -0.210 -0.210
 0.406  1.225  0.115 -0.116 -0.187 -0.209 -0.209
 0.408  1.227  0.117 -0.115 -0.185 -0.208 -0.208
 0.410  1.229  0.119 -0.113 -0.184 -0.206 -0.206
 0.412  1.232  0.121 -0.112 -0.183 -0.205 -0.205
 0.414  1.234  0.124 -0.110 -0.182 -0.204 -0.204
 0.416  1.236  0.125 -0.109 -0.181 -0.203 -0.203
 0.418  1.239  0.127 -0.108 -0.180 -0.202 -0.202
 0.420  1.240  0.129 -0.107 -0.178 -0.201 -0.201
 0.422  1.243  0.131 -0.106 -0.177 -0.200 -0.200
 0.424  1.246  0.133 -0.104 -0.176 -0.199 -0.199
 0.426  1.247  0.135 -0.103 -0.174 -0.198 -0.198
 0.428  1.250  0.136 -0.102 -0.173 -0.196 -0.196
 0.430  1.252  0.139 -0.101 -0.172 -0.196 -0.196
 0.432  1.255  0.141 -0.099 -0.171 -0.194 -0.194
 0.434  1.257  0.142 -0.098 -0.170 -0.193 -0.193
 0.436  1.259  0.144 -0.097 -0.168 -0.192 -0.192
 0.438  1.262  0.146 -0.096 -0.167 -0.191 -0.191
 0.440  1.264  0.147 -0.094 -0.166 -0.190 -0.190
 0.442  1.266  0.149 -0.093 -0.164 -0.189 -0.189
 0.444  1.269  0.151 -0.092 -0.163 -0.188 -0.188
 0.446  1.270  0.153 -0.091 -0.162 -0.187 -0.187
 0.448  1.273  0.154 -0.090 -0.160 -0.186 -0.186
 0.450  1.276  0.156 -0.088 -0.160 -0.185 -0.185
 0.452  1.277  0.158 -0.087 -0.158 -0.184 -0.184
 0.454  1.279  0.158 -0.086 -0.157 -0.183 -0.183
 0.456  1.282  0.160 -0.085 -0.156 -0.182 -0.182
 0.458  1.283  0.162 -0.084 -0.154 -0.181 -0.181
 0.460  1.285  0.164 -0.083 -0.153 -0.180 -0.180
 0.462  1.288  0.164 -0.082 -0.152 -0.179 -0.179
 0.464  1.289  0.166 -0.080 -0.150 -0.178 -0.178
 0.466  1.291  0.168 -0.079 -0.149 -0.177 -0.177
 0.468  1.293  0.169 -0.078 -0.148 -0.176 -0.176
 0.470  1.294  0.170 -0.077 -0.147 -0.175 -0.175
 0.472  1.296  0.171 -0.076 -0.146 -0.174 -0.174
 0.474  1.298  0.173 -0.074 -0.145 -0.173 -0.173
 0.476  1.300  0.174 -0.073 -0.144 -0.172 -0.172
 0.478  1.301  0.176 -0.072 -0.142 -0.172 -0.172
 0.480  1.303  0.176 -0.071 -0.141 -0.171 -0.171
 0.482  1.305  0.178 -0.069 -0.140 -0.170 -0.170
 0.484  1.306  0.179 -0.068 -0.139 -0.169 -0.169
 0.486  1.307  0.180 -0.067 -0.138 -0.168 -0.168
 0.488  1.309  0.181 -0.066 -0.137 -0.167 -0.167
 0.490  1.310  0.182 -0.065 -0.136 -0.166 -0.166
 0.492  1.312  0.183 -0.064 -0.135 -0.166 -0.166
 0.494  1.312  0.184 -0.063 -0.134 -0.165 -0.165
 0.496  1.314  0.185 -0.061 -0.133 -0.164 -0.164
 0.498  1.315  0.186 -0.060 -0.132 -0.163 -0.163
 0.500  1.317  0.187 -0.059 -0.131 -0.162 -0.162
 0.502  1.318  0.187 -0.058 -0.130 -0.162 -0.162
 0.504  1.318  0.188 -0.057 -0.130 -0.161 -0.161
 0.506  1.319  0.189 -0.056 -0.129 -0.160 -0.160
 0.508  1.321  0.190 -0.055 -0.128 -0.159 -0.159
 0.510  1.322  0.191 -0.053 -0.127 -0.159 -0.159
 0.512  1.323  0.192 -0.052 -0.126 -0.158 -0.158
 0.514  1.324  0.193 -0.052 -0.126 -0.157 -0.157
 0.516  1.324  0.193 -0.050 -0.125 -0.156 -0.156
 0.518  1.325  0.194 -0.049 -0.124 -0.156 -0.156
 0.520  1.326  0.194 -0.049 -0.123 -0.155 -0.155
 0.522  1.327  0.195 -0.047 -0.122 -0.154 -0.154
 0.524  1.328  0.196 -0.046 -0.122 -0.153 -0.153
 0.526  1.329  0.197 -0.046 -0.121 -0.152 -0.152
 0.528  1.330  0.198 -0.044 -0.120 -0.152 -0.152
 0.530  1.330  0.198 -0.044 -0.119 -0.151 -0.151
 0.532  1.331  0.198 -0.042 -0.119 -0.150 -0.150
 0.534  1.332  0.199 -0.042 -0.118 -0.149 -0.149
 0.536  1.333  0.200 -0.041 -0.117 -0.149 -0.149
 0.538  1.334  0.201 -0.040 -0.117 -0.148 -0.148
 0.540  1.334  0.201 -0.039 -0.116 -0.147 -0.147
 0.542  1.335  0.202 -0.038 -0.115 -0.146 -0.146
 0.544  1.336  0.203 -0.038 -0.115 -0.146 -0.146
 0.546  1.336  0.204 -0.036 -0.115 -0.145 -0.145
 0.548  1.336  0.204 -0.036 -0.114 -0.144 -0.144
 0.550  1.337  0.204 -0.035 -0.113 -0.143 -0.143
 0.552  1.338  0.205 -0.034 -0.113 -0.142 -0.142
 0.554  1.339  0.205 -0.033 -0.112 -0.141 -0.141
 0.556  1.339  0.206 -0.033 -0.112 -0.140 -0.140
 0.558  1.340  0.207 -0.032 -0.111 -0.139 -0.139
 0.560  1.340  0.207 -0.031 -0.110 -0.139 -0.139
 0.562  1.341  0.208 -0.030 -0.110 -0.138 -0.138
 0.564  1.342  0.209 -0.030 -0.109 -0.137 -0.137
 0.566  1.342  0.209 -0.029 -0.109 -0.136 -0.136
 0.568  1.342  0.210 -0.028 -0.108 -0.135 -0.135
 0.570  1.342  0.210 -0.028 -0.108 -0.135 -0.135
 0.572  1.343  0.210 -0.027 -0.107 -0.134 -0.134
 0.574  1.343  0.211 -0.027 -0.107 -0.133 -0.133
 0.576  1.344  0.212 -0.026 -0.106 -0.132 -0.132
 0.578  1.344  0.212 -0.025 -0.106 -0.131 -0.131
 0.580  1.344  0.213 -0.025 -0.105 -0.130 -0.130
 0.582  1.345  0.213 -0.024 -0.105 -0.130 -0.130
 0.584  1.345  0.214 -0.023 -0.104 -0.129 -0.129
 0.586  1.346  0.214 -0.023 -0.104 -0.128 -0.128
 0.588  1.346  0.215 -0.023 -0.104 -0.127 -0.127
 0.590  1.346  0.215 -0.022 -0.103 -0.126 -0.126
 0.592  1.347  0.216 -0.022 -0.103 -0.126 -0.126
 0.594  1.347  0.216 -0.022 -0.103 -0.125 -0.125
 0.596  1.348  0.216 -0.021 -0.102 -0.124 -0.124
 0.598  1.348  0.216 -0.020 -0.102 -0.124 -0.124
 0.600  1.348  0.216 -0.020 -0.101 -0.123 -0.123
 0.602  1.348  0.217 -0.020 -0.101 -0.122 -0.122
 0.604  1.348  0.217 -0.020 -0.100 -0.122 -0.122
 0.606  1.349  0.217 -0.019 -0.100 -0.121 -0.121
 0.608  1.349  0.217 -0.019 -0.100 -0.120 -0.120
 0.610  1.349  0.218 -0.019 -0.099 -0.120 -0.120
 0.612  1.350  0.218 -0.019 -0.099 -0.119 -0.119
 0.614  1.350  0.218 -0.019 -0.098 -0.119 -0.119
 0.616  1.351  0.218 -0.019 -0.098 -0.118 -0.118
 0.618  1.351  0.219 -0.018 -0.098 -0.117 -0.117
 0.620  1.352  0.219 -0.018 -0.097 -0.117 -0.117
 0.622  1.352  0.219 -0.018 -0.097 -0.116 -0.116
 0.624  1.353  0.219 -0.018 -0.096 -0.115 -0.115
 0.626  1.353  0.219 -0.018 -0.096 -0.115 -0.115
 0.628  1.353  0.219 -0.018 -0.095 -0.115 -0.115
 0.630  1.354  0.219 -0.018 -0.095 -0.114 -0.114
 0.632  1.354  0.219 -0.018 -0.095 -0.114 -0.114
 0.634  1.354  0.219 -0.018 -0.094 -0.113 -0.113
 0.636  1.354  0.219 -0.018 -0.094 -0.113 -0.113
 0.638  1.355  0.219 -0.018 -0.093 -0.112 -0.112
 0.640  1.355  0.219 -0.018 -0.093 -0.112 -0.112
 0.642  1.356  0.218 -0.018 -0.093 -0.112 -0.112
 0.644  1.356  0.218 -0.018 -0.092 -0.111 -0.111
 0.646  1.357  0.218 -0.017 -0.092 -0.111 -0.111
 0.648  1.357  0.218 -0.017 -0.091 -0.110 -0.110
 0.650  1.357  0.218 -0.017 -0.091 -0.110 -0.110
 0.652  1.358  0.218 -0.017 -0.090 -0.109 -0.109
 0.654  1.358  0.217 -0.017 -0.090 -0.109 -0.109
 0.656  1.359  0.217 -0.017 -0.090 -0.108 -0.108
 0.658  1.359  0.217 -0.016 -0.089 -0.108 -0.108
 0.660  1.360  0.217 -0.016 -0.089 -0.107 -0.107
 0.662  1.360  0.216 -0.016 -0.088 -0.106 -0.106
 0.664  1.360  0.216 -0.015 -0.088 -0.106 -0.106
 0.666  1.361  0.216 -0.014 -0.087 -0.105 -0.105
 0.668  1.361  0.216 -0.014 -0.087 -0.105 -0.105
 0.670  1.362  0.216 -0.013 -0.086 -0.104 -0.104
 0.672  1.362  0.216 -0.012 -0.086 -0.103 -0.103
 0.674  1.363  0.216 -0.012 -0.085 -0.102 -0.102
 0.676  1.364  0.216 -0.011 -0.084 -0.102 -0.102
 0.678  1.364  0.215 -0.010 -0.083 -0.101 -0.101
 0.680  1.365  0.215 -0.009 -0.083 -0.100 -0.100
 0.682  1.365  0.215 -0.008 -0.082 -0.100 -0.100
 0.684  1.366  0.215 -0.008 -0.082 -0.099 -0.099
 0.686  1.366  0.215 -0.006 -0.081 -0.098 -0.098
 0.688  1.367  0.214 -0.006 -0.080 -0.097 -0.097
 0.690  1.367  0.214 -0.004 -0.079 -0.096 -0.096
 0.692  1.368  0.214 -0.003 -0.078 -0.095 -0.095
 0.694  1.369  0.214 -0.003 -0.077 -0.095 -0.095
 0.696  1.369  0.214 -0.001 -0.075 -0.094 -0.094
 0.698  1.370  0.214 -0.000 -0.074 -0.092 -0.092
 0.700  1.371  0.214  0.001 -0.073 -0.092 -0.092
 0.702  1.372  0.214  0.002 -0.072 -0.091 -0.091
 0.704  1.372  0.213  0.004 -0.071 -0.090 -0.090
 0.706  1.372  0.213  0.005 -0.069 -0.088 -0.088
 0.708  1.373  0.213  0.007 -0.068 -0.088 -0.088
 0.710  1.374  0.213  0.008 -0.067 -0.086 -0.086
 0.712  1.375  0.213  0.010 -0.065 -0.085 -0.085
 0.714  1.376  0.212  0.011 -0.063 -0.084 -0.084
 0.716  1.376  0.212  0.013 -0.062 -0.083 -0.083
 0.718  1.377  0.212  0.014 -0.060 -0.082 -0.082
 0.720  1.378  0.212  0.016 -0.059 -0.081 -0.081
 0.722  1.378  0.212  0.018 -0.057 -0.079 -0.079
 0.724  1.379  0.212  0.019 -0.055 -0.078 -0.078
 0.726  1.380  0.212  0.021 -0.053 -0.077 -0.077
 0.728  1.381  0.212  0.023 -0.051 -0.075 -0.075
 0.730  1.382  0.212  0.025 -0.049 -0.074 -0.074
 0.732  1.384  0.213  0.027 -0.048 -0.073 -0.073
 0.734  1.384  0.213  0.029 -0.046 -0.072 -0.072
 0.736  1.385  0.214  0.031 -0.044 -0.070 -0.070
 0.738  1.387  0.215  0.033 -0.042 -0.068 -0.068
 0.740  1.388  0.216  0.035 -0.040 -0.067 -0.067
 0.742  1.390  0.216  0.038 -0.038 -0.065 -0.065
 0.744  1.391  0.218  0.040 -0.036 -0.063 -0.063
 0.746  1.393  0.219  0.042 -0.034 -0.062 -0.062
 0.748  1.395  0.221  0.044 -0.032 -0.060 -0.060
 0.750  1.396  0.222  0.047 -0.030 -0.058 -0.058
 0.752  1.398  0.223  0.049 -0.028 -0.057 -0.057
 0.754  1.400  0.225  0.052 -0.026 -0.055 -0.055
 0.756  1.402  0.227  0.054 -0.025 -0.053 -0.053
 0.758  1.403  0.229  0.057 -0.023 -0.051 -0.051
 0.760  1.406  0.231  0.059 -0.021 -0.049 -0.049
 0.762  1.408  0.233  0.062 -0.020 -0.048 -0.048
 0.764  1.410  0.236  0.065 -0.018 -0.045 -0.045
 0.766  1.413  0.238  0.068 -0.017 -0.043 -0.043
 0.768  1.414  0.241  0.070 -0.015 -0.041 -0.041
 0.770  1.417  0.244  0.073 -0.014 -0.039 -0.039
 0.772  1.420  0.247  0.076 -0.013 -0.037 -0.037
 0.774  1.423  0.250  0.079 -0.011 -0.035 -0.035
 0.776  1.426  0.253  0.082 -0.010 -0.032 -0.032
 0.778  1.428  0.256  0.085 -0.009 -0.030 -0.030
 0.780  1.431  0.260  0.088 -0.008 -0.028 -0.028
 0.782  1.434  0.264  0.091 -0.007 -0.025 -0.025
 0.784  1.437  0.267  0.093 -0.006 -0.023 -0.023
 0.786  1.441  0.271  0.096 -0.005 -0.021 -0.021
 0.788  1.443  0.275  0.098 -0.004 -0.018 -0.018
 0.790  1.447  0.279  0.100 -0.003 -0.016 -0.016
 0.792  1.450  0.283  0.101 -0.002 -0.014 -0.014
 0.794  1.453  0.287  0.102 -0.001 -0.012 -0.012
 0.796  1.456  0.290  0.103 -0.000 -0.010 -0.010
 0.798  1.459  0.295  0.103  0.001 -0.008 -0.008
 0.800  1.461  0.298  0.103  0.002 -0.006 -0.006
 0.802  1.464  0.301  0.102  0.002 -0.005 -0.005
 0.804  1.466  0.305  0.101  0.003 -0.003 -0.003
 0.806  1.467  0.307  0.100  0.004 -0.002 -0.002
 0.808  1.468  0.310  0.099  0.004 -0.001 -0.001
