# IsPeriodic    : True
# Period        : 0.723388 days
# Normalization : <g_mag>=0
# 
# Phase u_mag  g_mag  r_mag  i_mag  z_mag  y_mag
 0.000  0.750 -0.380 -0.436 -0.450 -0.435 -0.435
 0.002  0.750 -0.380 -0.436 -0.450 -0.435 -0.435
 0.004  0.750 -0.380 -0.436 -0.450 -0.435 -0.435
 0.006  0.751 -0.379 -0.435 -0.449 -0.435 -0.435
 0.008  0.752 -0.379 -0.435 -0.449 -0.435 -0.435
 0.010  0.753 -0.378 -0.435 -0.449 -0.434 -0.434
 0.012  0.754 -0.378 -0.434 -0.448 -0.433 -0.433
 0.014  0.755 -0.376 -0.434 -0.448 -0.433 -0.433
 0.016  0.757 -0.376 -0.434 -0.447 -0.432 -0.432
 0.018  0.759 -0.375 -0.433 -0.446 -0.431 -0.431
 0.020  0.761 -0.374 -0.432 -0.445 -0.430 -0.430
 0.022  0.763 -0.372 -0.431 -0.445 -0.429 -0.429
 0.024  0.765 -0.371 -0.430 -0.444 -0.428 -0.428
 0.026  0.767 -0.370 -0.430 -0.443 -0.427 -0.427
 0.028  0.769 -0.369 -0.428 -0.442 -0.426 -0.426
 0.030  0.771 -0.367 -0.427 -0.441 -0.425 -0.425
 0.032  0.774 -0.365 -0.426 -0.440 -0.424 -0.424
 0.034  0.775 -0.363 -0.425 -0.440 -0.423 -0.423
 0.036  0.778 -0.362 -0.423 -0.438 -0.422 -0.422
 0.038  0.780 -0.360 -0.422 -0.437 -0.421 -0.421
 0.040  0.783 -0.357 -0.421 -0.437 -0.420 -0.420
 0.042  0.785 -0.355 -0.419 -0.435 -0.419 -0.419
 0.044  0.788 -0.353 -0.417 -0.434 -0.418 -0.418
 0.046  0.790 -0.350 -0.416 -0.434 -0.417 -0.417
 0.048  0.792 -0.347 -0.414 -0.433 -0.416 -0.416
 0.050  0.795 -0.345 -0.412 -0.431 -0.415 -0.415
 0.052  0.797 -0.342 -0.410 -0.430 -0.414 -0.414
 0.054  0.800 -0.339 -0.408 -0.429 -0.413 -0.413
 0.056  0.803 -0.336 -0.405 -0.428 -0.412 -0.412
 0.058  0.806 -0.333 -0.403 -0.427 -0.411 -0.411
 0.060  0.808 -0.330 -0.401 -0.426 -0.410 -0.410
 0.062  0.811 -0.326 -0.398 -0.424 -0.409 -0.409
 0.064  0.814 -0.323 -0.396 -0.423 -0.408 -0.408
 0.066  0.817 -0.320 -0.394 -0.422 -0.407 -0.407
 0.068  0.820 -0.316 -0.392 -0.421 -0.406 -0.406
 0.070  0.823 -0.312 -0.390 -0.419 -0.405 -0.405
 0.072  0.826 -0.309 -0.387 -0.418 -0.404 -0.404
 0.074  0.830 -0.305 -0.385 -0.417 -0.403 -0.403
 0.076  0.833 -0.301 -0.383 -0.415 -0.402 -0.402
 0.078  0.836 -0.297 -0.381 -0.414 -0.401 -0.401
 0.080  0.839 -0.293 -0.379 -0.413 -0.400 -0.400
 0.082  0.843 -0.289 -0.377 -0.411 -0.400 -0.400
 0.084  0.846 -0.286 -0.375 -0.410 -0.398 -0.398
 0.086  0.850 -0.282 -0.373 -0.408 -0.397 -0.397
 0.088  0.853 -0.278 -0.371 -0.407 -0.397 -0.397
 0.090  0.856 -0.275 -0.369 -0.405 -0.396 -0.396
 0.092  0.859 -0.272 -0.367 -0.404 -0.395 -0.395
 0.094  0.863 -0.268 -0.366 -0.403 -0.394 -0.394
 0.096  0.866 -0.265 -0.363 -0.401 -0.393 -0.393
 0.098  0.870 -0.262 -0.362 -0.400 -0.392 -0.392
 0.100  0.873 -0.258 -0.360 -0.398 -0.391 -0.391
 0.102  0.876 -0.255 -0.359 -0.397 -0.390 -0.390
 0.104  0.879 -0.252 -0.357 -0.396 -0.390 -0.390
 0.106  0.883 -0.249 -0.355 -0.394 -0.389 -0.389
 0.108  0.886 -0.246 -0.354 -0.393 -0.388 -0.388
 0.110  0.889 -0.243 -0.352 -0.392 -0.387 -0.387
 0.112  0.892 -0.240 -0.351 -0.391 -0.386 -0.386
 0.114  0.895 -0.237 -0.349 -0.389 -0.385 -0.385
 0.116  0.898 -0.234 -0.348 -0.388 -0.385 -0.385
 0.118  0.901 -0.231 -0.346 -0.387 -0.384 -0.384
 0.120  0.904 -0.228 -0.345 -0.385 -0.383 -0.383
 0.122  0.907 -0.226 -0.344 -0.384 -0.382 -0.382
 0.124  0.910 -0.223 -0.342 -0.383 -0.381 -0.381
 0.126  0.913 -0.220 -0.341 -0.382 -0.380 -0.380
 0.128  0.916 -0.218 -0.340 -0.381 -0.380 -0.380
 0.130  0.918 -0.215 -0.338 -0.380 -0.379 -0.379
 0.132  0.921 -0.213 -0.337 -0.379 -0.378 -0.378
 0.134  0.924 -0.210 -0.336 -0.378 -0.377 -0.377
 0.136  0.927 -0.208 -0.335 -0.376 -0.376 -0.376
 0.138  0.930 -0.206 -0.334 -0.375 -0.376 -0.376
 0.140  0.932 -0.203 -0.333 -0.374 -0.374 -0.374
 0.142  0.935 -0.201 -0.331 -0.373 -0.374 -0.374
 0.144  0.938 -0.199 -0.330 -0.372 -0.373 -0.373
 0.146  0.940 -0.196 -0.329 -0.371 -0.372 -0.372
 0.148  0.943 -0.193 -0.328 -0.370 -0.371 -0.371
 0.150  0.945 -0.192 -0.327 -0.369 -0.371 -0.371
 0.152  0.948 -0.189 -0.326 -0.368 -0.370 -0.370
 0.154  0.950 -0.186 -0.324 -0.367 -0.369 -0.369
 0.156  0.952 -0.184 -0.323 -0.366 -0.368 -0.368
 0.158  0.955 -0.182 -0.322 -0.365 -0.368 -0.368
 0.160  0.957 -0.179 -0.320 -0.364 -0.367 -0.367
 0.162  0.960 -0.177 -0.319 -0.364 -0.366 -0.366
 0.164  0.962 -0.175 -0.318 -0.362 -0.365 -0.365
 0.166  0.965 -0.172 -0.316 -0.362 -0.365 -0.365
 0.168  0.967 -0.170 -0.315 -0.361 -0.364 -0.364
 0.170  0.969 -0.167 -0.314 -0.360 -0.363 -0.363
 0.172  0.972 -0.164 -0.312 -0.359 -0.362 -0.362
 0.174  0.974 -0.162 -0.311 -0.358 -0.362 -0.362
 0.176  0.977 -0.159 -0.310 -0.357 -0.361 -0.361
 0.178  0.979 -0.157 -0.309 -0.356 -0.360 -0.360
 0.180  0.982 -0.154 -0.307 -0.355 -0.359 -0.359
 0.182  0.985 -0.152 -0.305 -0.354 -0.359 -0.359
 0.184  0.987 -0.149 -0.304 -0.353 -0.358 -0.358
 0.186  0.990 -0.146 -0.303 -0.352 -0.357 -0.357
 0.188  0.992 -0.144 -0.302 -0.351 -0.356 -0.356
 0.190  0.994 -0.141 -0.300 -0.350 -0.356 -0.356
 0.192  0.997 -0.138 -0.298 -0.349 -0.355 -0.355
 0.194  1.000 -0.135 -0.297 -0.348 -0.354 -0.354
 0.196  1.002 -0.133 -0.296 -0.347 -0.354 -0.354
 0.198  1.005 -0.130 -0.294 -0.347 -0.353 -0.353
 0.200  1.008 -0.127 -0.293 -0.346 -0.352 -0.352
 0.202  1.011 -0.125 -0.291 -0.344 -0.351 -0.351
 0.204  1.013 -0.121 -0.290 -0.344 -0.350 -0.350
 0.206  1.016 -0.119 -0.288 -0.343 -0.350 -0.350
 0.208  1.019 -0.116 -0.287 -0.341 -0.349 -0.349
 0.210  1.021 -0.113 -0.285 -0.341 -0.348 -0.348
 0.212  1.024 -0.110 -0.284 -0.340 -0.347 -0.347
 0.214  1.027 -0.107 -0.282 -0.339 -0.347 -0.347
 0.216  1.030 -0.104 -0.281 -0.338 -0.346 -0.346
 0.218  1.033 -0.101 -0.279 -0.337 -0.345 -0.345
 0.220  1.035 -0.098 -0.278 -0.336 -0.345 -0.345
 0.222  1.038 -0.096 -0.277 -0.335 -0.344 -0.344
 0.224  1.041 -0.093 -0.275 -0.334 -0.343 -0.343
 0.226  1.044 -0.090 -0.273 -0.333 -0.343 -0.343
 0.228  1.047 -0.087 -0.272 -0.332 -0.342 -0.342
 0.230  1.050 -0.085 -0.270 -0.331 -0.341 -0.341
 0.232  1.053 -0.082 -0.269 -0.330 -0.340 -0.340
 0.234  1.055 -0.079 -0.267 -0.329 -0.340 -0.340
 0.236  1.058 -0.076 -0.266 -0.328 -0.339 -0.339
 0.238  1.061 -0.074 -0.265 -0.327 -0.338 -0.338
 0.240  1.064 -0.071 -0.263 -0.326 -0.338 -0.338
 0.242  1.067 -0.069 -0.262 -0.325 -0.337 -0.337
 0.244  1.069 -0.067 -0.260 -0.324 -0.336 -0.336
 0.246  1.072 -0.064 -0.259 -0.323 -0.335 -0.335
 0.248  1.075 -0.061 -0.257 -0.322 -0.335 -0.335
 0.250  1.078 -0.059 -0.256 -0.321 -0.334 -0.334
 0.252  1.080 -0.056 -0.255 -0.320 -0.333 -0.333
 0.254  1.083 -0.054 -0.253 -0.319 -0.332 -0.332
 0.256  1.085 -0.052 -0.252 -0.318 -0.332 -0.332
 0.258  1.088 -0.049 -0.250 -0.317 -0.331 -0.331
 0.260  1.090 -0.047 -0.248 -0.316 -0.330 -0.330
 0.262  1.092 -0.045 -0.247 -0.315 -0.329 -0.329
 0.264  1.095 -0.043 -0.246 -0.313 -0.328 -0.328
 0.266  1.097 -0.041 -0.244 -0.312 -0.327 -0.327
 0.268  1.100 -0.038 -0.243 -0.311 -0.326 -0.326
 0.270  1.102 -0.036 -0.241 -0.310 -0.326 -0.326
 0.272  1.105 -0.034 -0.240 -0.309 -0.325 -0.325
 0.274  1.107 -0.032 -0.238 -0.308 -0.324 -0.324
 0.276  1.109 -0.030 -0.237 -0.307 -0.323 -0.323
 0.278  1.111 -0.028 -0.236 -0.306 -0.322 -0.322
 0.280  1.114 -0.026 -0.234 -0.305 -0.321 -0.321
 0.282  1.116 -0.024 -0.233 -0.304 -0.320 -0.320
 0.284  1.118 -0.022 -0.231 -0.302 -0.319 -0.319
 0.286  1.120 -0.020 -0.230 -0.301 -0.319 -0.319
 0.288  1.122 -0.018 -0.228 -0.300 -0.318 -0.318
 0.290  1.125 -0.016 -0.227 -0.299 -0.317 -0.317
 0.292  1.126 -0.014 -0.225 -0.298 -0.316 -0.316
 0.294  1.128 -0.012 -0.223 -0.297 -0.315 -0.315
 0.296  1.130 -0.011 -0.222 -0.296 -0.314 -0.314
 0.298  1.133 -0.009 -0.220 -0.295 -0.313 -0.313
 0.300  1.134 -0.007 -0.219 -0.294 -0.312 -0.312
 0.302  1.136 -0.005 -0.217 -0.292 -0.311 -0.311
 0.304  1.138 -0.003 -0.216 -0.291 -0.310 -0.310
 0.306  1.140 -0.001 -0.214 -0.290 -0.309 -0.309
 0.308  1.142  0.001 -0.212 -0.289 -0.308 -0.308
 0.310  1.143  0.003 -0.210 -0.288 -0.307 -0.307
 0.312  1.146  0.005 -0.209 -0.287 -0.306 -0.306
 0.314  1.148  0.007 -0.207 -0.285 -0.305 -0.305
 0.316  1.150  0.009 -0.205 -0.284 -0.304 -0.304
 0.318  1.151  0.011 -0.204 -0.283 -0.303 -0.303
 0.320  1.153  0.013 -0.202 -0.282 -0.302 -0.302
 0.322  1.155  0.015 -0.200 -0.281 -0.301 -0.301
 0.324  1.157  0.017 -0.198 -0.280 -0.300 -0.300
 0.326  1.159  0.019 -0.196 -0.279 -0.299 -0.299
 0.328  1.161  0.021 -0.194 -0.278 -0.298 -0.298
 0.330  1.163  0.023 -0.193 -0.277 -0.297 -0.297
 0.332  1.165  0.025 -0.191 -0.275 -0.296 -0.296
 0.334  1.167  0.027 -0.189 -0.274 -0.295 -0.295
 0.336  1.168  0.029 -0.187 -0.273 -0.294 -0.294
 0.338  1.170  0.031 -0.185 -0.272 -0.293 -0.293
 0.340  1.172  0.033 -0.183 -0.271 -0.292 -0.292
 0.342  1.174  0.036 -0.181 -0.270 -0.291 -0.291
 0.344  1.176  0.038 -0.179 -0.269 -0.291 -0.291
 0.346  1.178  0.040 -0.177 -0.268 -0.290 -0.290
 0.348  1.180  0.042 -0.175 -0.267 -0.289 -0.289
 0.350  1.182  0.044 -0.173 -0.266 -0.288 -0.288
 0.352  1.184  0.046 -0.172 -0.264 -0.287 -0.287
 0.354  1.185  0.049 -0.169 -0.264 -0.286 -0.286
 0.356  1.187  0.051 -0.168 -0.263 -0.285 -0.285
 0.358  1.189  0.053 -0.166 -0.261 -0.285 -0.285
 0.360  1.191  0.055 -0.164 -0.260 -0.284 -0.284
 0.362  1.193  0.057 -0.162 -0.259 -0.283 -0.283
 0.364  1.195  0.059 -0.161 -0.258 -0.282 -0.282
 0.366  1.197  0.062 -0.159 -0.257 -0.281 -0.281
 0.368  1.199  0.064 -0.157 -0.256 -0.280 -0.280
 0.370  1.201  0.065 -0.155 -0.255 -0.279 -0.279
 0.372  1.203  0.067 -0.154 -0.254 -0.279 -0.279
 0.374  1.204  0.069 -0.152 -0.253 -0.278 -0.278
 0.376  1.206  0.071 -0.151 -0.252 -0.277 -0.277
 0.378  1.208  0.073 -0.149 -0.251 -0.276 -0.276
 0.380  1.210  0.075 -0.148 -0.250 -0.276 -0.276
 0.382  1.212  0.077 -0.146 -0.249 -0.275 -0.275
 0.384  1.214  0.079 -0.144 -0.248 -0.274 -0.274
 0.386  1.216  0.081 -0.143 -0.247 -0.273 -0.273
 0.388  1.218  0.083 -0.141 -0.246 -0.273 -0.273
 0.390  1.220  0.085 -0.140 -0.245 -0.272 -0.272
 0.392  1.221  0.086 -0.139 -0.244 -0.271 -0.271
 0.394  1.223  0.088 -0.137 -0.243 -0.270 -0.270
 0.396  1.224  0.090 -0.136 -0.242 -0.269 -0.269
 0.398  1.226  0.092 -0.135 -0.241 -0.268 -0.268
 0.400  1.228  0.093 -0.134 -0.240 -0.268 -0.268
 0.402  1.230  0.095 -0.132 -0.239 -0.267 -0.267
 0.404  1.232  0.097 -0.131 -0.238 -0.266 -0.266
 0.406  1.234  0.098 -0.130 -0.237 -0.265 -0.265
 0.408  1.235  0.100 -0.129 -0.236 -0.264 -0.264
 0.410  1.237  0.101 -0.127 -0.235 -0.263 -0.263
 0.412  1.238  0.103 -0.127 -0.234 -0.262 -0.262
 0.414  1.240  0.105 -0.125 -0.233 -0.261 -0.261
 0.416  1.242  0.106 -0.124 -0.232 -0.261 -0.261
 0.418  1.244  0.108 -0.123 -0.232 -0.260 -0.260
 0.420  1.245  0.109 -0.122 -0.231 -0.259 -0.259
 0.422  1.247  0.111 -0.121 -0.230 -0.257 -0.257
 0.424  1.249  0.112 -0.120 -0.229 -0.256 -0.256
 0.426  1.251  0.114 -0.119 -0.228 -0.256 -0.256
 0.428  1.252  0.115 -0.118 -0.227 -0.255 -0.255
 0.430  1.254  0.116 -0.117 -0.226 -0.254 -0.254
 0.432  1.255  0.118 -0.116 -0.225 -0.253 -0.253
 0.434  1.257  0.119 -0.115 -0.225 -0.252 -0.252
 0.436  1.258  0.120 -0.114 -0.224 -0.251 -0.251
 0.438  1.260  0.121 -0.113 -0.223 -0.249 -0.249
 0.440  1.262  0.123 -0.112 -0.222 -0.248 -0.248
 0.442  1.263  0.124 -0.111 -0.221 -0.247 -0.247
 0.444  1.265  0.125 -0.110 -0.221 -0.246 -0.246
 0.446  1.266  0.127 -0.109 -0.219 -0.245 -0.245
 0.448  1.268  0.128 -0.108 -0.219 -0.244 -0.244
 0.450  1.269  0.129 -0.107 -0.218 -0.243 -0.243
 0.452  1.271  0.130 -0.106 -0.217 -0.242 -0.242
 0.454  1.272  0.132 -0.105 -0.217 -0.241 -0.241
 0.456  1.273  0.133 -0.104 -0.215 -0.240 -0.240
 0.458  1.275  0.134 -0.103 -0.215 -0.239 -0.239
 0.460  1.276  0.136 -0.102 -0.214 -0.238 -0.238
 0.462  1.277  0.137 -0.101 -0.213 -0.237 -0.237
 0.464  1.279  0.138 -0.100 -0.212 -0.236 -0.236
 0.466  1.280  0.139 -0.099 -0.211 -0.235 -0.235
 0.468  1.281  0.140 -0.098 -0.211 -0.234 -0.234
 0.470  1.282  0.141 -0.097 -0.210 -0.233 -0.233
 0.472  1.283  0.143 -0.096 -0.209 -0.232 -0.232
 0.474  1.285  0.144 -0.095 -0.208 -0.231 -0.231
 0.476  1.286  0.145 -0.094 -0.207 -0.230 -0.230
 0.478  1.287  0.146 -0.093 -0.207 -0.229 -0.229
 0.480  1.288  0.147 -0.092 -0.206 -0.228 -0.228
 0.482  1.289  0.149 -0.091 -0.205 -0.228 -0.228
 0.484  1.290  0.150 -0.090 -0.204 -0.227 -0.227
 0.486  1.291  0.150 -0.089 -0.203 -0.226 -0.226
 0.488  1.292  0.152 -0.088 -0.202 -0.225 -0.225
 0.490  1.293  0.153 -0.087 -0.202 -0.225 -0.225
 0.492  1.294  0.154 -0.086 -0.201 -0.224 -0.224
 0.494  1.294  0.155 -0.085 -0.200 -0.223 -0.223
 0.496  1.296  0.156 -0.084 -0.199 -0.222 -0.222
 0.498  1.296  0.157 -0.084 -0.198 -0.222 -0.222
 0.500  1.297  0.158 -0.083 -0.198 -0.221 -0.221
 0.502  1.298  0.159 -0.082 -0.197 -0.220 -0.220
 0.504  1.299  0.160 -0.081 -0.196 -0.220 -0.220
 0.506  1.299  0.161 -0.080 -0.195 -0.219 -0.219
 0.508  1.300  0.162 -0.079 -0.194 -0.218 -0.218
 0.510  1.300  0.163 -0.078 -0.194 -0.218 -0.218
 0.512  1.301  0.163 -0.077 -0.193 -0.217 -0.217
 0.514  1.302  0.165 -0.077 -0.192 -0.217 -0.217
 0.516  1.302  0.165 -0.076 -0.191 -0.216 -0.216
 0.518  1.303  0.166 -0.075 -0.190 -0.216 -0.216
 0.520  1.304  0.167 -0.075 -0.190 -0.215 -0.215
 0.522  1.304  0.167 -0.074 -0.189 -0.215 -0.215
 0.524  1.305  0.168 -0.073 -0.188 -0.214 -0.214
 0.526  1.305  0.168 -0.073 -0.187 -0.214 -0.214
 0.528  1.305  0.169 -0.072 -0.187 -0.213 -0.213
 0.530  1.306  0.170 -0.072 -0.186 -0.213 -0.213
 0.532  1.307  0.170 -0.071 -0.185 -0.212 -0.212
 0.534  1.307  0.171 -0.070 -0.185 -0.211 -0.211
 0.536  1.308  0.172 -0.070 -0.184 -0.211 -0.211
 0.538  1.308  0.172 -0.069 -0.183 -0.210 -0.210
 0.540  1.309  0.172 -0.069 -0.183 -0.210 -0.210
 0.542  1.309  0.173 -0.069 -0.182 -0.210 -0.210
 0.544  1.310  0.174 -0.068 -0.181 -0.209 -0.209
 0.546  1.310  0.174 -0.068 -0.181 -0.209 -0.209
 0.548  1.311  0.174 -0.067 -0.180 -0.208 -0.208
 0.550  1.311  0.174 -0.067 -0.180 -0.208 -0.208
 0.552  1.311  0.175 -0.066 -0.179 -0.207 -0.207
 0.554  1.312  0.175 -0.066 -0.179 -0.207 -0.207
 0.556  1.313  0.175 -0.066 -0.178 -0.206 -0.206
 0.558  1.313  0.176 -0.066 -0.178 -0.206 -0.206
 0.560  1.313  0.176 -0.065 -0.177 -0.205 -0.205
 0.562  1.314  0.176 -0.065 -0.177 -0.205 -0.205
 0.564  1.314  0.176 -0.065 -0.176 -0.204 -0.204
 0.566  1.315  0.176 -0.064 -0.176 -0.204 -0.204
 0.568  1.315  0.176 -0.064 -0.175 -0.203 -0.203
 0.570  1.316  0.176 -0.064 -0.175 -0.203 -0.203
 0.572  1.316  0.176 -0.063 -0.174 -0.202 -0.202
 0.574  1.317  0.176 -0.063 -0.174 -0.202 -0.202
 0.576  1.317  0.176 -0.063 -0.174 -0.201 -0.201
 0.578  1.318  0.176 -0.062 -0.173 -0.201 -0.201
 0.580  1.318  0.176 -0.062 -0.173 -0.200 -0.200
 0.582  1.318  0.176 -0.062 -0.173 -0.200 -0.200
 0.584  1.319  0.176 -0.062 -0.172 -0.199 -0.199
 0.586  1.319  0.176 -0.061 -0.172 -0.199 -0.199
 0.588  1.319  0.176 -0.061 -0.172 -0.198 -0.198
 0.590  1.320  0.176 -0.060 -0.171 -0.198 -0.198
 0.592  1.321  0.176 -0.060 -0.171 -0.197 -0.197
 0.594  1.321  0.176 -0.060 -0.170 -0.197 -0.197
 0.596  1.321  0.176 -0.059 -0.170 -0.196 -0.196
 0.598  1.322  0.177 -0.059 -0.170 -0.196 -0.196
 0.600  1.322  0.177 -0.059 -0.169 -0.195 -0.195
 0.602  1.322  0.177 -0.058 -0.169 -0.194 -0.194
 0.604  1.322  0.177 -0.058 -0.169 -0.194 -0.194
 0.606  1.323  0.177 -0.057 -0.168 -0.193 -0.193
 0.608  1.323  0.177 -0.057 -0.168 -0.193 -0.193
 0.610  1.324  0.177 -0.056 -0.167 -0.192 -0.192
 0.612  1.324  0.177 -0.056 -0.167 -0.192 -0.192
 0.614  1.324  0.178 -0.055 -0.166 -0.191 -0.191
 0.616  1.324  0.178 -0.055 -0.166 -0.190 -0.190
 0.618  1.325  0.178 -0.055 -0.165 -0.190 -0.190
 0.620  1.325  0.179 -0.054 -0.165 -0.189 -0.189
 0.622  1.325  0.179 -0.053 -0.164 -0.189 -0.189
 0.624  1.325  0.179 -0.053 -0.164 -0.188 -0.188
 0.626  1.325  0.179 -0.052 -0.163 -0.187 -0.187
 0.628  1.325  0.179 -0.052 -0.163 -0.186 -0.186
 0.630  1.326  0.179 -0.052 -0.162 -0.186 -0.186
 0.632  1.326  0.180 -0.051 -0.162 -0.185 -0.185
 0.634  1.326  0.180 -0.050 -0.161 -0.184 -0.184
 0.636  1.326  0.181 -0.050 -0.160 -0.184 -0.184
 0.638  1.327  0.181 -0.049 -0.160 -0.183 -0.183
 0.640  1.327  0.181 -0.048 -0.159 -0.182 -0.182
 0.642  1.327  0.181 -0.048 -0.158 -0.181 -0.181
 0.644  1.327  0.181 -0.047 -0.158 -0.181 -0.181
 0.646  1.327  0.182 -0.047 -0.157 -0.180 -0.180
 0.648  1.327  0.183 -0.046 -0.156 -0.179 -0.179
 0.650  1.327  0.183 -0.045 -0.156 -0.178 -0.178
 0.652  1.327  0.183 -0.044 -0.155 -0.178 -0.178
 0.654  1.327  0.184 -0.044 -0.155 -0.177 -0.177
 0.656  1.327  0.185 -0.043 -0.154 -0.176 -0.176
 0.658  1.327  0.185 -0.042 -0.153 -0.175 -0.175
 0.660  1.327  0.185 -0.041 -0.152 -0.174 -0.174
 0.662  1.327  0.186 -0.041 -0.151 -0.174 -0.174
 0.664  1.328  0.187 -0.040 -0.151 -0.173 -0.173
 0.666  1.328  0.188 -0.039 -0.150 -0.172 -0.172
 0.668  1.328  0.188 -0.037 -0.149 -0.171 -0.171
 0.670  1.328  0.189 -0.037 -0.148 -0.170 -0.170
 0.672  1.328  0.190 -0.036 -0.147 -0.169 -0.169
 0.674  1.328  0.190 -0.035 -0.146 -0.168 -0.168
 0.676  1.328  0.192 -0.034 -0.145 -0.167 -0.167
 0.678  1.329  0.192 -0.033 -0.144 -0.166 -0.166
 0.680  1.329  0.194 -0.032 -0.142 -0.165 -0.165
 0.682  1.330  0.194 -0.031 -0.141 -0.164 -0.164
 0.684  1.330  0.196 -0.030 -0.140 -0.163 -0.163
 0.686  1.330  0.196 -0.029 -0.139 -0.161 -0.161
 0.688  1.330  0.197 -0.027 -0.137 -0.160 -0.160
 0.690  1.331  0.199 -0.027 -0.136 -0.159 -0.159
 0.692  1.332  0.200 -0.025 -0.135 -0.158 -0.158
 0.694  1.332  0.201 -0.024 -0.133 -0.157 -0.157
 0.696  1.332  0.202 -0.023 -0.132 -0.155 -0.155
 0.698  1.333  0.203 -0.022 -0.130 -0.154 -0.154
 0.700  1.333  0.205 -0.020 -0.129 -0.153 -0.153
 0.702  1.333  0.206 -0.019 -0.127 -0.151 -0.151
 0.704  1.334  0.208 -0.018 -0.126 -0.150 -0.150
 0.706  1.335  0.209 -0.016 -0.124 -0.148 -0.148
 0.708  1.335  0.210 -0.015 -0.122 -0.147 -0.147
 0.710  1.336  0.212 -0.014 -0.121 -0.145 -0.145
 0.712  1.336  0.214 -0.013 -0.119 -0.144 -0.144
 0.714  1.338  0.215 -0.012 -0.117 -0.142 -0.142
 0.716  1.338  0.216 -0.011 -0.115 -0.140 -0.140
 0.718  1.339  0.218 -0.010 -0.113 -0.139 -0.139
 0.720  1.339  0.219 -0.009 -0.111 -0.137 -0.137
 0.722  1.341  0.221 -0.008 -0.109 -0.135 -0.135
 0.724  1.341  0.223 -0.007 -0.107 -0.133 -0.133
 0.726  1.342  0.224 -0.006 -0.105 -0.132 -0.132
 0.728  1.343  0.225 -0.005 -0.103 -0.130 -0.130
 0.730  1.344  0.227 -0.005 -0.101 -0.128 -0.128
 0.732  1.344  0.228 -0.004 -0.099 -0.126 -0.126
 0.734  1.345  0.230 -0.003 -0.097 -0.124 -0.124
 0.736  1.346  0.232 -0.002 -0.096 -0.123 -0.123
 0.738  1.347  0.233 -0.002 -0.094 -0.121 -0.121
 0.740  1.347  0.234 -0.001 -0.092 -0.119 -0.119
 0.742  1.349  0.235 -0.001 -0.091 -0.117 -0.117
 0.744  1.349  0.237 -0.000 -0.090 -0.115 -0.115
 0.746  1.350  0.239  0.000 -0.088 -0.114 -0.114
 0.748  1.350  0.240  0.001 -0.087 -0.112 -0.112
 0.750  1.351  0.241  0.001 -0.086 -0.110 -0.110
 0.752  1.352  0.243  0.002 -0.085 -0.109 -0.109
 0.754  1.352  0.244  0.002 -0.084 -0.108 -0.108
 0.756  1.353  0.245  0.002 -0.083 -0.106 -0.106
 0.758  1.353  0.246  0.002 -0.083 -0.105 -0.105
 0.760  1.354  0.247  0.002 -0.082 -0.104 -0.104
 0.762  1.355  0.248  0.003 -0.082 -0.103 -0.103
 0.764  1.355  0.250  0.003 -0.082 -0.102 -0.102
 0.766  1.355  0.251  0.003 -0.081 -0.102 -0.102
 0.768  1.356  0.252  0.003 -0.081 -0.101 -0.101
 0.770  1.356  0.253  0.003 -0.081 -0.100 -0.100
 0.772  1.356  0.255  0.003 -0.081 -0.100 -0.100
 0.774  1.356  0.256  0.002 -0.082 -0.099 -0.099
 0.776  1.356  0.257  0.002 -0.082 -0.099 -0.099
 0.778  1.357  0.259  0.002 -0.082 -0.098 -0.098
 0.780  1.357  0.260  0.001 -0.083 -0.098 -0.098
 0.782  1.357  0.261  0.000 -0.083 -0.098 -0.098
 0.784  1.358  0.262 -0.001 -0.084 -0.097 -0.097
 0.786  1.358  0.263 -0.002 -0.085 -0.097 -0.097
 0.788  1.358  0.264 -0.003 -0.086 -0.097 -0.097
 0.790  1.358  0.264 -0.005 -0.086 -0.097 -0.097
 0.792  1.358  0.264 -0.007 -0.087 -0.097 -0.097
 0.794  1.358  0.264 -0.009 -0.089 -0.098 -0.098
 0.796  1.358  0.264 -0.011 -0.090 -0.098 -0.098
 0.798  1.358  0.263 -0.014 -0.092 -0.098 -0.098
 0.800  1.358  0.262 -0.017 -0.093 -0.099 -0.099
 0.802  1.358  0.261 -0.020 -0.094 -0.099 -0.099
 0.804  1.358  0.259 -0.023 -0.096 -0.100 -0.100
 0.806  1.357  0.257 -0.027 -0.098 -0.100 -0.100
 0.808  1.356  0.255 -0.031 -0.100 -0.101 -0.101
