# IsPeriodic    : True
# Period        : 0.621828 days
# Normalization : <g_mag>=0
# 
# Phase u_mag  g_mag  r_mag  i_mag  z_mag  y_mag
 0.000  0.767 -0.365 -0.420 -0.419 -0.406 -0.406
 0.002  0.767 -0.365 -0.420 -0.419 -0.406 -0.406
 0.004  0.768 -0.365 -0.419 -0.419 -0.406 -0.406
 0.006  0.768 -0.364 -0.419 -0.419 -0.405 -0.405
 0.008  0.769 -0.364 -0.419 -0.418 -0.405 -0.405
 0.010  0.770 -0.364 -0.419 -0.418 -0.404 -0.404
 0.012  0.772 -0.363 -0.418 -0.418 -0.404 -0.404
 0.014  0.773 -0.362 -0.418 -0.418 -0.403 -0.403
 0.016  0.775 -0.361 -0.417 -0.418 -0.402 -0.402
 0.018  0.777 -0.361 -0.416 -0.417 -0.402 -0.402
 0.020  0.779 -0.360 -0.416 -0.417 -0.401 -0.401
 0.022  0.781 -0.358 -0.415 -0.416 -0.400 -0.400
 0.024  0.783 -0.357 -0.414 -0.416 -0.399 -0.399
 0.026  0.785 -0.356 -0.413 -0.415 -0.398 -0.398
 0.028  0.787 -0.355 -0.412 -0.415 -0.397 -0.397
 0.030  0.789 -0.353 -0.411 -0.414 -0.396 -0.396
 0.032  0.791 -0.351 -0.410 -0.414 -0.395 -0.395
 0.034  0.793 -0.350 -0.409 -0.413 -0.394 -0.394
 0.036  0.795 -0.348 -0.408 -0.412 -0.393 -0.393
 0.038  0.798 -0.346 -0.407 -0.411 -0.392 -0.392
 0.040  0.800 -0.343 -0.405 -0.410 -0.391 -0.391
 0.042  0.802 -0.342 -0.404 -0.410 -0.390 -0.390
 0.044  0.804 -0.339 -0.403 -0.409 -0.389 -0.389
 0.046  0.807 -0.337 -0.402 -0.408 -0.388 -0.388
 0.048  0.809 -0.334 -0.400 -0.407 -0.387 -0.387
 0.050  0.812 -0.332 -0.398 -0.406 -0.386 -0.386
 0.052  0.814 -0.329 -0.397 -0.405 -0.385 -0.385
 0.054  0.818 -0.326 -0.395 -0.404 -0.384 -0.384
 0.056  0.820 -0.323 -0.394 -0.402 -0.383 -0.383
 0.058  0.823 -0.320 -0.392 -0.401 -0.383 -0.383
 0.060  0.826 -0.317 -0.390 -0.400 -0.382 -0.382
 0.062  0.829 -0.314 -0.388 -0.399 -0.381 -0.381
 0.064  0.832 -0.311 -0.386 -0.398 -0.380 -0.380
 0.066  0.835 -0.307 -0.385 -0.396 -0.379 -0.379
 0.068  0.838 -0.304 -0.382 -0.395 -0.378 -0.378
 0.070  0.841 -0.300 -0.380 -0.393 -0.377 -0.377
 0.072  0.845 -0.297 -0.378 -0.392 -0.377 -0.377
 0.074  0.848 -0.293 -0.376 -0.391 -0.376 -0.376
 0.076  0.851 -0.290 -0.374 -0.389 -0.375 -0.375
 0.078  0.855 -0.286 -0.372 -0.387 -0.374 -0.374
 0.080  0.858 -0.282 -0.370 -0.386 -0.373 -0.373
 0.082  0.861 -0.278 -0.367 -0.385 -0.372 -0.372
 0.084  0.865 -0.275 -0.365 -0.383 -0.371 -0.371
 0.086  0.868 -0.272 -0.363 -0.382 -0.370 -0.370
 0.088  0.871 -0.268 -0.361 -0.381 -0.370 -0.370
 0.090  0.875 -0.265 -0.359 -0.379 -0.369 -0.369
 0.092  0.878 -0.262 -0.357 -0.378 -0.368 -0.368
 0.094  0.881 -0.258 -0.355 -0.377 -0.367 -0.367
 0.096  0.885 -0.255 -0.353 -0.376 -0.366 -0.366
 0.098  0.888 -0.252 -0.351 -0.374 -0.365 -0.365
 0.100  0.891 -0.249 -0.349 -0.373 -0.365 -0.365
 0.102  0.894 -0.246 -0.347 -0.372 -0.364 -0.364
 0.104  0.897 -0.242 -0.346 -0.371 -0.363 -0.363
 0.106  0.901 -0.240 -0.344 -0.370 -0.362 -0.362
 0.108  0.904 -0.237 -0.342 -0.369 -0.361 -0.361
 0.110  0.907 -0.234 -0.341 -0.368 -0.360 -0.360
 0.112  0.911 -0.231 -0.339 -0.367 -0.360 -0.360
 0.114  0.914 -0.228 -0.338 -0.366 -0.359 -0.359
 0.116  0.917 -0.225 -0.336 -0.365 -0.358 -0.358
 0.118  0.920 -0.223 -0.335 -0.364 -0.357 -0.357
 0.120  0.923 -0.220 -0.333 -0.363 -0.357 -0.357
 0.122  0.926 -0.217 -0.332 -0.362 -0.356 -0.356
 0.124  0.929 -0.215 -0.330 -0.361 -0.355 -0.355
 0.126  0.932 -0.212 -0.329 -0.360 -0.354 -0.354
 0.128  0.935 -0.210 -0.328 -0.359 -0.353 -0.353
 0.130  0.938 -0.207 -0.327 -0.358 -0.353 -0.353
 0.132  0.941 -0.205 -0.325 -0.358 -0.352 -0.352
 0.134  0.944 -0.202 -0.325 -0.357 -0.351 -0.351
 0.136  0.947 -0.200 -0.323 -0.356 -0.350 -0.350
 0.138  0.950 -0.198 -0.322 -0.355 -0.350 -0.350
 0.140  0.952 -0.195 -0.321 -0.355 -0.349 -0.349
 0.142  0.956 -0.193 -0.320 -0.354 -0.348 -0.348
 0.144  0.959 -0.191 -0.319 -0.353 -0.347 -0.347
 0.146  0.961 -0.189 -0.318 -0.353 -0.347 -0.347
 0.148  0.964 -0.186 -0.318 -0.352 -0.346 -0.346
 0.150  0.967 -0.184 -0.317 -0.352 -0.345 -0.345
 0.152  0.970 -0.182 -0.315 -0.351 -0.344 -0.344
 0.154  0.972 -0.179 -0.315 -0.350 -0.344 -0.344
 0.156  0.976 -0.177 -0.314 -0.349 -0.343 -0.343
 0.158  0.978 -0.175 -0.313 -0.349 -0.342 -0.342
 0.160  0.981 -0.172 -0.312 -0.348 -0.341 -0.341
 0.162  0.984 -0.170 -0.311 -0.347 -0.341 -0.341
 0.164  0.986 -0.168 -0.310 -0.347 -0.340 -0.340
 0.166  0.989 -0.166 -0.309 -0.346 -0.340 -0.340
 0.168  0.992 -0.163 -0.308 -0.345 -0.339 -0.339
 0.170  0.994 -0.161 -0.307 -0.345 -0.338 -0.338
 0.172  0.997 -0.158 -0.306 -0.344 -0.337 -0.337
 0.174  0.999 -0.156 -0.305 -0.343 -0.337 -0.337
 0.176  1.002 -0.153 -0.304 -0.342 -0.336 -0.336
 0.178  1.005 -0.151 -0.303 -0.342 -0.335 -0.335
 0.180  1.007 -0.148 -0.301 -0.341 -0.335 -0.335
 0.182  1.010 -0.146 -0.300 -0.340 -0.334 -0.334
 0.184  1.012 -0.143 -0.299 -0.339 -0.333 -0.333
 0.186  1.015 -0.141 -0.298 -0.338 -0.333 -0.333
 0.188  1.017 -0.138 -0.296 -0.337 -0.332 -0.332
 0.190  1.020 -0.135 -0.295 -0.336 -0.331 -0.331
 0.192  1.022 -0.133 -0.293 -0.336 -0.330 -0.330
 0.194  1.024 -0.130 -0.292 -0.335 -0.330 -0.330
 0.196  1.027 -0.128 -0.291 -0.334 -0.329 -0.329
 0.198  1.029 -0.125 -0.290 -0.333 -0.328 -0.328
 0.200  1.032 -0.122 -0.288 -0.332 -0.328 -0.328
 0.202  1.034 -0.120 -0.287 -0.331 -0.327 -0.327
 0.204  1.036 -0.117 -0.285 -0.330 -0.326 -0.326
 0.206  1.039 -0.114 -0.284 -0.330 -0.326 -0.326
 0.208  1.041 -0.111 -0.282 -0.329 -0.325 -0.325
 0.210  1.043 -0.109 -0.280 -0.328 -0.324 -0.324
 0.212  1.046 -0.106 -0.279 -0.327 -0.323 -0.323
 0.214  1.048 -0.103 -0.277 -0.326 -0.323 -0.323
 0.216  1.050 -0.100 -0.276 -0.325 -0.322 -0.322
 0.218  1.052 -0.097 -0.274 -0.324 -0.322 -0.322
 0.220  1.054 -0.094 -0.272 -0.323 -0.321 -0.321
 0.222  1.057 -0.092 -0.271 -0.322 -0.320 -0.320
 0.224  1.059 -0.089 -0.269 -0.321 -0.320 -0.320
 0.226  1.061 -0.086 -0.267 -0.320 -0.319 -0.319
 0.228  1.063 -0.084 -0.266 -0.320 -0.318 -0.318
 0.230  1.066 -0.081 -0.264 -0.319 -0.317 -0.317
 0.232  1.067 -0.079 -0.263 -0.318 -0.317 -0.317
 0.234  1.069 -0.076 -0.261 -0.317 -0.316 -0.316
 0.236  1.072 -0.073 -0.259 -0.316 -0.316 -0.316
 0.238  1.074 -0.071 -0.258 -0.315 -0.315 -0.315
 0.240  1.076 -0.068 -0.256 -0.314 -0.314 -0.314
 0.242  1.078 -0.066 -0.255 -0.313 -0.314 -0.314
 0.244  1.080 -0.064 -0.253 -0.312 -0.313 -0.313
 0.246  1.082 -0.062 -0.252 -0.311 -0.312 -0.312
 0.248  1.084 -0.059 -0.250 -0.310 -0.311 -0.311
 0.250  1.086 -0.057 -0.249 -0.309 -0.311 -0.311
 0.252  1.088 -0.054 -0.247 -0.308 -0.310 -0.310
 0.254  1.091 -0.052 -0.246 -0.307 -0.309 -0.309
 0.256  1.092 -0.050 -0.245 -0.306 -0.309 -0.309
 0.258  1.094 -0.047 -0.243 -0.306 -0.308 -0.308
 0.260  1.096 -0.045 -0.242 -0.305 -0.307 -0.307
 0.262  1.099 -0.043 -0.241 -0.304 -0.306 -0.306
 0.264  1.101 -0.041 -0.239 -0.303 -0.305 -0.305
 0.266  1.102 -0.039 -0.238 -0.302 -0.305 -0.305
 0.268  1.104 -0.037 -0.236 -0.301 -0.304 -0.304
 0.270  1.106 -0.035 -0.235 -0.300 -0.303 -0.303
 0.272  1.109 -0.033 -0.234 -0.299 -0.302 -0.302
 0.274  1.111 -0.031 -0.233 -0.298 -0.302 -0.302
 0.276  1.112 -0.029 -0.231 -0.297 -0.301 -0.301
 0.278  1.114 -0.027 -0.230 -0.297 -0.300 -0.300
 0.280  1.116 -0.025 -0.229 -0.296 -0.299 -0.299
 0.282  1.118 -0.023 -0.228 -0.295 -0.298 -0.298
 0.284  1.120 -0.021 -0.227 -0.294 -0.297 -0.297
 0.286  1.122 -0.019 -0.226 -0.293 -0.297 -0.297
 0.288  1.124 -0.018 -0.224 -0.292 -0.296 -0.296
 0.290  1.126 -0.016 -0.223 -0.291 -0.295 -0.295
 0.292  1.127 -0.014 -0.222 -0.290 -0.294 -0.294
 0.294  1.130 -0.012 -0.221 -0.289 -0.293 -0.293
 0.296  1.132 -0.010 -0.220 -0.288 -0.292 -0.292
 0.298  1.134 -0.008 -0.219 -0.287 -0.291 -0.291
 0.300  1.136 -0.006 -0.218 -0.286 -0.290 -0.290
 0.302  1.137 -0.005 -0.217 -0.285 -0.289 -0.289
 0.304  1.139 -0.003 -0.216 -0.284 -0.288 -0.288
 0.306  1.141 -0.001 -0.214 -0.283 -0.287 -0.287
 0.308  1.142  0.001 -0.214 -0.282 -0.287 -0.287
 0.310  1.144  0.003 -0.212 -0.281 -0.286 -0.286
 0.312  1.146  0.005 -0.211 -0.280 -0.285 -0.285
 0.314  1.148  0.007 -0.210 -0.279 -0.284 -0.284
 0.316  1.150  0.008 -0.209 -0.278 -0.283 -0.283
 0.318  1.152  0.010 -0.207 -0.277 -0.282 -0.282
 0.320  1.154  0.012 -0.206 -0.276 -0.281 -0.281
 0.322  1.156  0.015 -0.205 -0.275 -0.280 -0.280
 0.324  1.157  0.016 -0.204 -0.274 -0.279 -0.279
 0.326  1.159  0.018 -0.202 -0.273 -0.278 -0.278
 0.328  1.161  0.020 -0.201 -0.272 -0.277 -0.277
 0.330  1.163  0.022 -0.200 -0.271 -0.276 -0.276
 0.332  1.165  0.024 -0.199 -0.270 -0.275 -0.275
 0.334  1.166  0.026 -0.197 -0.269 -0.275 -0.275
 0.336  1.168  0.028 -0.196 -0.268 -0.274 -0.274
 0.338  1.170  0.030 -0.195 -0.267 -0.273 -0.273
 0.340  1.172  0.032 -0.194 -0.266 -0.272 -0.272
 0.342  1.174  0.034 -0.192 -0.264 -0.271 -0.271
 0.344  1.176  0.036 -0.191 -0.263 -0.270 -0.270
 0.346  1.177  0.038 -0.190 -0.262 -0.269 -0.269
 0.348  1.179  0.041 -0.188 -0.261 -0.269 -0.269
 0.350  1.181  0.042 -0.187 -0.260 -0.268 -0.268
 0.352  1.182  0.044 -0.186 -0.259 -0.267 -0.267
 0.354  1.184  0.047 -0.184 -0.258 -0.266 -0.266
 0.356  1.186  0.049 -0.183 -0.257 -0.265 -0.265
 0.358  1.187  0.051 -0.181 -0.255 -0.265 -0.265
 0.360  1.189  0.053 -0.180 -0.254 -0.264 -0.264
 0.362  1.191  0.055 -0.179 -0.253 -0.263 -0.263
 0.364  1.193  0.057 -0.177 -0.252 -0.262 -0.262
 0.366  1.195  0.059 -0.176 -0.251 -0.262 -0.262
 0.368  1.196  0.061 -0.174 -0.250 -0.261 -0.261
 0.370  1.198  0.063 -0.173 -0.249 -0.260 -0.260
 0.372  1.200  0.065 -0.172 -0.247 -0.259 -0.259
 0.374  1.201  0.067 -0.170 -0.246 -0.259 -0.259
 0.376  1.203  0.069 -0.169 -0.245 -0.258 -0.258
 0.378  1.205  0.070 -0.168 -0.244 -0.257 -0.257
 0.380  1.206  0.072 -0.166 -0.243 -0.257 -0.257
 0.382  1.208  0.074 -0.165 -0.242 -0.256 -0.256
 0.384  1.210  0.076 -0.164 -0.241 -0.255 -0.255
 0.386  1.211  0.078 -0.162 -0.240 -0.254 -0.254
 0.388  1.213  0.080 -0.161 -0.239 -0.254 -0.254
 0.390  1.215  0.082 -0.160 -0.238 -0.253 -0.253
 0.392  1.216  0.083 -0.159 -0.237 -0.252 -0.252
 0.394  1.218  0.085 -0.157 -0.236 -0.251 -0.251
 0.396  1.219  0.086 -0.156 -0.235 -0.251 -0.251
 0.398  1.221  0.088 -0.155 -0.234 -0.250 -0.250
 0.400  1.222  0.090 -0.154 -0.233 -0.249 -0.249
 0.402  1.224  0.091 -0.152 -0.232 -0.248 -0.248
 0.404  1.226  0.093 -0.151 -0.231 -0.247 -0.247
 0.406  1.227  0.095 -0.150 -0.230 -0.246 -0.246
 0.408  1.229  0.096 -0.149 -0.229 -0.246 -0.246
 0.410  1.231  0.098 -0.148 -0.228 -0.245 -0.245
 0.412  1.232  0.099 -0.147 -0.227 -0.244 -0.244
 0.414  1.234  0.101 -0.145 -0.226 -0.243 -0.243
 0.416  1.235  0.102 -0.144 -0.226 -0.242 -0.242
 0.418  1.236  0.104 -0.143 -0.225 -0.241 -0.241
 0.420  1.238  0.105 -0.142 -0.224 -0.240 -0.240
 0.422  1.239  0.106 -0.141 -0.223 -0.240 -0.240
 0.424  1.241  0.108 -0.139 -0.222 -0.239 -0.239
 0.426  1.242  0.109 -0.139 -0.221 -0.238 -0.238
 0.428  1.244  0.111 -0.137 -0.220 -0.237 -0.237
 0.430  1.245  0.112 -0.137 -0.219 -0.236 -0.236
 0.432  1.247  0.113 -0.135 -0.218 -0.235 -0.235
 0.434  1.248  0.114 -0.134 -0.218 -0.234 -0.234
 0.436  1.249  0.116 -0.133 -0.217 -0.233 -0.233
 0.438  1.251  0.117 -0.132 -0.216 -0.232 -0.232
 0.440  1.252  0.118 -0.131 -0.215 -0.231 -0.231
 0.442  1.254  0.119 -0.130 -0.215 -0.230 -0.230
 0.444  1.255  0.121 -0.129 -0.214 -0.229 -0.229
 0.446  1.256  0.122 -0.128 -0.213 -0.228 -0.228
 0.448  1.257  0.123 -0.127 -0.212 -0.227 -0.227
 0.450  1.259  0.124 -0.126 -0.211 -0.226 -0.226
 0.452  1.260  0.126 -0.125 -0.211 -0.225 -0.225
 0.454  1.262  0.127 -0.124 -0.210 -0.224 -0.224
 0.456  1.263  0.128 -0.124 -0.209 -0.223 -0.223
 0.458  1.264  0.129 -0.123 -0.209 -0.222 -0.222
 0.460  1.265  0.130 -0.122 -0.208 -0.221 -0.221
 0.462  1.267  0.132 -0.121 -0.207 -0.220 -0.220
 0.464  1.268  0.133 -0.120 -0.206 -0.219 -0.219
 0.466  1.269  0.134 -0.119 -0.206 -0.218 -0.218
 0.468  1.270  0.135 -0.119 -0.205 -0.217 -0.217
 0.470  1.271  0.136 -0.118 -0.204 -0.216 -0.216
 0.472  1.272  0.137 -0.117 -0.204 -0.216 -0.216
 0.474  1.274  0.139 -0.116 -0.203 -0.215 -0.215
 0.476  1.275  0.140 -0.115 -0.202 -0.214 -0.214
 0.478  1.275  0.140 -0.115 -0.202 -0.213 -0.213
 0.480  1.277  0.142 -0.114 -0.201 -0.212 -0.212
 0.482  1.278  0.143 -0.113 -0.200 -0.212 -0.212
 0.484  1.279  0.144 -0.112 -0.200 -0.211 -0.211
 0.486  1.280  0.145 -0.112 -0.199 -0.210 -0.210
 0.488  1.281  0.146 -0.111 -0.198 -0.210 -0.210
 0.490  1.282  0.147 -0.111 -0.198 -0.209 -0.209
 0.492  1.283  0.148 -0.110 -0.197 -0.208 -0.208
 0.494  1.284  0.149 -0.109 -0.197 -0.207 -0.207
 0.496  1.285  0.150 -0.109 -0.196 -0.207 -0.207
 0.498  1.285  0.151 -0.108 -0.195 -0.206 -0.206
 0.500  1.287  0.152 -0.108 -0.194 -0.205 -0.205
 0.502  1.287  0.153 -0.107 -0.194 -0.205 -0.205
 0.504  1.289  0.154 -0.107 -0.193 -0.204 -0.204
 0.506  1.289  0.155 -0.106 -0.193 -0.204 -0.204
 0.508  1.290  0.156 -0.105 -0.192 -0.203 -0.203
 0.510  1.291  0.156 -0.105 -0.192 -0.202 -0.202
 0.512  1.292  0.157 -0.104 -0.191 -0.202 -0.202
 0.514  1.292  0.158 -0.104 -0.190 -0.201 -0.201
 0.516  1.294  0.159 -0.103 -0.190 -0.201 -0.201
 0.518  1.294  0.160 -0.103 -0.189 -0.200 -0.200
 0.520  1.295  0.160 -0.102 -0.189 -0.200 -0.200
 0.522  1.295  0.161 -0.102 -0.188 -0.199 -0.199
 0.524  1.296  0.161 -0.102 -0.188 -0.199 -0.199
 0.526  1.297  0.162 -0.101 -0.187 -0.198 -0.198
 0.528  1.298  0.163 -0.100 -0.186 -0.198 -0.198
 0.530  1.299  0.163 -0.100 -0.186 -0.198 -0.198
 0.532  1.299  0.164 -0.099 -0.185 -0.197 -0.197
 0.534  1.300  0.165 -0.099 -0.185 -0.197 -0.197
 0.536  1.300  0.165 -0.099 -0.184 -0.196 -0.196
 0.538  1.301  0.166 -0.098 -0.184 -0.196 -0.196
 0.540  1.302  0.166 -0.097 -0.183 -0.195 -0.195
 0.542  1.302  0.166 -0.097 -0.183 -0.195 -0.195
 0.544  1.302  0.167 -0.097 -0.182 -0.194 -0.194
 0.546  1.303  0.167 -0.096 -0.181 -0.194 -0.194
 0.548  1.304  0.168 -0.096 -0.181 -0.193 -0.193
 0.550  1.304  0.168 -0.095 -0.180 -0.193 -0.193
 0.552  1.305  0.168 -0.095 -0.180 -0.192 -0.192
 0.554  1.305  0.168 -0.094 -0.179 -0.192 -0.192
 0.556  1.305  0.168 -0.094 -0.179 -0.192 -0.192
 0.558  1.306  0.169 -0.094 -0.178 -0.191 -0.191
 0.560  1.306  0.169 -0.093 -0.178 -0.191 -0.191
 0.562  1.307  0.169 -0.093 -0.177 -0.190 -0.190
 0.564  1.307  0.169 -0.092 -0.177 -0.190 -0.190
 0.566  1.307  0.169 -0.092 -0.176 -0.189 -0.189
 0.568  1.308  0.169 -0.092 -0.176 -0.189 -0.189
 0.570  1.308  0.169 -0.091 -0.175 -0.188 -0.188
 0.572  1.309  0.169 -0.091 -0.175 -0.188 -0.188
 0.574  1.309  0.169 -0.090 -0.174 -0.187 -0.187
 0.576  1.309  0.169 -0.090 -0.173 -0.187 -0.187
 0.578  1.309  0.169 -0.090 -0.173 -0.186 -0.186
 0.580  1.310  0.169 -0.089 -0.172 -0.186 -0.186
 0.582  1.310  0.169 -0.089 -0.171 -0.186 -0.186
 0.584  1.310  0.169 -0.088 -0.171 -0.185 -0.185
 0.586  1.310  0.169 -0.088 -0.170 -0.185 -0.185
 0.588  1.310  0.169 -0.087 -0.170 -0.184 -0.184
 0.590  1.310  0.169 -0.087 -0.169 -0.184 -0.184
 0.592  1.311  0.169 -0.087 -0.168 -0.183 -0.183
 0.594  1.311  0.169 -0.086 -0.168 -0.183 -0.183
 0.596  1.311  0.169 -0.085 -0.167 -0.182 -0.182
 0.598  1.311  0.170 -0.085 -0.167 -0.182 -0.182
 0.600  1.311  0.170 -0.085 -0.166 -0.181 -0.181
 0.602  1.311  0.170 -0.084 -0.165 -0.180 -0.180
 0.604  1.312  0.170 -0.084 -0.165 -0.180 -0.180
 0.606  1.312  0.171 -0.083 -0.164 -0.180 -0.180
 0.608  1.312  0.171 -0.083 -0.163 -0.179 -0.179
 0.610  1.312  0.171 -0.082 -0.162 -0.179 -0.179
 0.612  1.312  0.171 -0.082 -0.162 -0.178 -0.178
 0.614  1.312  0.171 -0.081 -0.161 -0.177 -0.177
 0.616  1.312  0.171 -0.081 -0.160 -0.177 -0.177
 0.618  1.312  0.171 -0.080 -0.159 -0.176 -0.176
 0.620  1.312  0.172 -0.080 -0.159 -0.176 -0.176
 0.622  1.312  0.172 -0.079 -0.158 -0.175 -0.175
 0.624  1.312  0.172 -0.079 -0.157 -0.174 -0.174
 0.626  1.312  0.173 -0.078 -0.156 -0.174 -0.174
 0.628  1.311  0.173 -0.077 -0.156 -0.173 -0.173
 0.630  1.311  0.173 -0.077 -0.155 -0.173 -0.173
 0.632  1.311  0.173 -0.077 -0.154 -0.172 -0.172
 0.634  1.311  0.173 -0.076 -0.153 -0.171 -0.171
 0.636  1.311  0.174 -0.075 -0.152 -0.171 -0.171
 0.638  1.310  0.174 -0.075 -0.151 -0.170 -0.170
 0.640  1.310  0.174 -0.075 -0.151 -0.169 -0.169
 0.642  1.310  0.174 -0.074 -0.150 -0.168 -0.168
 0.644  1.310  0.174 -0.073 -0.149 -0.168 -0.168
 0.646  1.310  0.175 -0.073 -0.148 -0.167 -0.167
 0.648  1.310  0.176 -0.072 -0.147 -0.166 -0.166
 0.650  1.309  0.176 -0.072 -0.146 -0.166 -0.166
 0.652  1.309  0.176 -0.071 -0.145 -0.165 -0.165
 0.654  1.309  0.177 -0.070 -0.144 -0.164 -0.164
 0.656  1.309  0.178 -0.070 -0.143 -0.163 -0.163
 0.658  1.309  0.178 -0.069 -0.142 -0.163 -0.163
 0.660  1.309  0.178 -0.068 -0.141 -0.162 -0.162
 0.662  1.309  0.179 -0.067 -0.140 -0.161 -0.161
 0.664  1.308  0.179 -0.066 -0.139 -0.160 -0.160
 0.666  1.308  0.181 -0.065 -0.138 -0.160 -0.160
 0.668  1.308  0.181 -0.065 -0.137 -0.159 -0.159
 0.670  1.308  0.182 -0.064 -0.136 -0.158 -0.158
 0.672  1.308  0.182 -0.063 -0.135 -0.157 -0.157
 0.674  1.307  0.183 -0.062 -0.134 -0.156 -0.156
 0.676  1.307  0.184 -0.061 -0.132 -0.155 -0.155
 0.678  1.307  0.185 -0.060 -0.131 -0.154 -0.154
 0.680  1.307  0.186 -0.058 -0.130 -0.153 -0.153
 0.682  1.307  0.187 -0.057 -0.129 -0.152 -0.152
 0.684  1.307  0.188 -0.056 -0.128 -0.151 -0.151
 0.686  1.307  0.189 -0.055 -0.127 -0.150 -0.150
 0.688  1.307  0.190 -0.054 -0.126 -0.149 -0.149
 0.690  1.307  0.191 -0.052 -0.124 -0.148 -0.148
 0.692  1.307  0.192 -0.051 -0.123 -0.147 -0.147
 0.694  1.307  0.193 -0.050 -0.122 -0.145 -0.145
 0.696  1.308  0.194 -0.048 -0.120 -0.144 -0.144
 0.698  1.308  0.196 -0.047 -0.119 -0.143 -0.143
 0.700  1.308  0.197 -0.045 -0.118 -0.142 -0.142
 0.702  1.308  0.199 -0.044 -0.116 -0.140 -0.140
 0.704  1.308  0.200 -0.042 -0.115 -0.139 -0.139
 0.706  1.309  0.201 -0.041 -0.114 -0.138 -0.138
 0.708  1.309  0.202 -0.039 -0.113 -0.136 -0.136
 0.710  1.309  0.204 -0.037 -0.111 -0.135 -0.135
 0.712  1.309  0.205 -0.036 -0.110 -0.133 -0.133
 0.714  1.309  0.207 -0.034 -0.109 -0.132 -0.132
 0.716  1.309  0.208 -0.032 -0.107 -0.130 -0.130
 0.718  1.309  0.210 -0.030 -0.106 -0.129 -0.129
 0.720  1.309  0.211 -0.029 -0.105 -0.127 -0.127
 0.722  1.310  0.212 -0.027 -0.103 -0.126 -0.126
 0.724  1.310  0.214 -0.025 -0.102 -0.124 -0.124
 0.726  1.310  0.215 -0.023 -0.101 -0.122 -0.122
 0.728  1.311  0.217 -0.022 -0.099 -0.121 -0.121
 0.730  1.312  0.218 -0.020 -0.098 -0.119 -0.119
 0.732  1.312  0.220 -0.019 -0.097 -0.117 -0.117
 0.734  1.313  0.221 -0.018 -0.096 -0.115 -0.115
 0.736  1.314  0.223 -0.016 -0.095 -0.114 -0.114
 0.738  1.315  0.224 -0.015 -0.094 -0.112 -0.112
 0.740  1.316  0.225 -0.013 -0.093 -0.110 -0.110
 0.742  1.317  0.226 -0.013 -0.092 -0.109 -0.109
 0.744  1.318  0.228 -0.011 -0.091 -0.107 -0.107
 0.746  1.319  0.230 -0.010 -0.090 -0.105 -0.105
 0.748  1.321  0.231 -0.009 -0.090 -0.104 -0.104
 0.750  1.322  0.232 -0.008 -0.089 -0.102 -0.102
 0.752  1.324  0.233 -0.008 -0.088 -0.101 -0.101
 0.754  1.325  0.235 -0.007 -0.087 -0.100 -0.100
 0.756  1.327  0.236 -0.007 -0.087 -0.098 -0.098
 0.758  1.328  0.237 -0.006 -0.086 -0.097 -0.097
 0.760  1.330  0.238 -0.005 -0.086 -0.097 -0.097
 0.762  1.332  0.239 -0.005 -0.085 -0.096 -0.096
 0.764  1.334  0.240 -0.005 -0.085 -0.095 -0.095
 0.766  1.335  0.241 -0.004 -0.084 -0.094 -0.094
 0.768  1.338  0.243 -0.004 -0.084 -0.093 -0.093
 0.770  1.340  0.244 -0.004 -0.083 -0.092 -0.092
 0.772  1.342  0.245 -0.004 -0.083 -0.092 -0.092
 0.774  1.345  0.246 -0.004 -0.082 -0.091 -0.091
 0.776  1.347  0.248 -0.004 -0.082 -0.091 -0.091
 0.778  1.350  0.249 -0.004 -0.081 -0.091 -0.091
 0.780  1.353  0.250 -0.004 -0.081 -0.091 -0.091
 0.782  1.355  0.251 -0.004 -0.081 -0.090 -0.090
 0.784  1.359  0.252 -0.005 -0.081 -0.090 -0.090
 0.786  1.361  0.253 -0.005 -0.081 -0.090 -0.090
 0.788  1.364  0.254 -0.005 -0.081 -0.090 -0.090
 0.790  1.367  0.254 -0.006 -0.081 -0.090 -0.090
 0.792  1.369  0.254 -0.007 -0.081 -0.090 -0.090
 0.794  1.372  0.254 -0.008 -0.082 -0.090 -0.090
 0.796  1.375  0.254 -0.009 -0.082 -0.090 -0.090
 0.798  1.377  0.253 -0.010 -0.083 -0.091 -0.091
 0.800  1.379  0.252 -0.011 -0.084 -0.091 -0.091
 0.802  1.382  0.251 -0.013 -0.085 -0.091 -0.091
 0.804  1.384  0.249 -0.014 -0.087 -0.092 -0.092
 0.806  1.385  0.248 -0.016 -0.088 -0.093 -0.093
 0.808  1.387  0.245 -0.018 -0.090 -0.093 -0.093
