# IsPeriodic    : True
# Period        : 0.627801 days
# Normalization : <g_mag>=0
# 
# Phase u_mag  g_mag  r_mag  i_mag  z_mag  y_mag
 0.000  0.769 -0.361 -0.425 -0.441 -0.466 -0.466
 0.002  0.769 -0.361 -0.425 -0.441 -0.466 -0.466
 0.004  0.769 -0.361 -0.425 -0.441 -0.466 -0.466
 0.006  0.770 -0.360 -0.425 -0.441 -0.465 -0.465
 0.008  0.770 -0.360 -0.425 -0.440 -0.465 -0.465
 0.010  0.771 -0.359 -0.424 -0.440 -0.464 -0.464
 0.012  0.772 -0.359 -0.424 -0.439 -0.463 -0.463
 0.014  0.774 -0.358 -0.424 -0.439 -0.462 -0.462
 0.016  0.775 -0.357 -0.423 -0.438 -0.460 -0.460
 0.018  0.776 -0.356 -0.422 -0.437 -0.459 -0.459
 0.020  0.778 -0.355 -0.422 -0.437 -0.458 -0.458
 0.022  0.780 -0.354 -0.421 -0.436 -0.456 -0.456
 0.024  0.781 -0.353 -0.420 -0.435 -0.454 -0.454
 0.026  0.783 -0.351 -0.420 -0.434 -0.453 -0.453
 0.028  0.785 -0.350 -0.418 -0.433 -0.451 -0.451
 0.030  0.787 -0.348 -0.418 -0.433 -0.450 -0.450
 0.032  0.788 -0.347 -0.416 -0.432 -0.449 -0.449
 0.034  0.790 -0.345 -0.415 -0.431 -0.447 -0.447
 0.036  0.792 -0.343 -0.414 -0.430 -0.445 -0.445
 0.038  0.794 -0.342 -0.413 -0.430 -0.444 -0.444
 0.040  0.796 -0.339 -0.412 -0.429 -0.443 -0.443
 0.042  0.798 -0.337 -0.410 -0.428 -0.441 -0.441
 0.044  0.800 -0.335 -0.408 -0.427 -0.440 -0.440
 0.046  0.802 -0.332 -0.407 -0.426 -0.439 -0.439
 0.048  0.804 -0.330 -0.405 -0.425 -0.438 -0.438
 0.050  0.807 -0.328 -0.403 -0.424 -0.436 -0.436
 0.052  0.809 -0.325 -0.401 -0.423 -0.435 -0.435
 0.054  0.812 -0.322 -0.399 -0.423 -0.433 -0.433
 0.056  0.814 -0.319 -0.397 -0.422 -0.432 -0.432
 0.058  0.817 -0.317 -0.395 -0.421 -0.431 -0.431
 0.060  0.819 -0.313 -0.393 -0.420 -0.429 -0.429
 0.062  0.822 -0.310 -0.391 -0.419 -0.428 -0.428
 0.064  0.825 -0.307 -0.389 -0.418 -0.427 -0.427
 0.066  0.828 -0.304 -0.387 -0.417 -0.425 -0.425
 0.068  0.831 -0.300 -0.385 -0.416 -0.424 -0.424
 0.070  0.834 -0.296 -0.383 -0.415 -0.423 -0.423
 0.072  0.837 -0.293 -0.381 -0.414 -0.421 -0.421
 0.074  0.840 -0.290 -0.379 -0.413 -0.420 -0.420
 0.076  0.843 -0.286 -0.377 -0.412 -0.419 -0.419
 0.078  0.846 -0.282 -0.375 -0.411 -0.418 -0.418
 0.080  0.849 -0.279 -0.373 -0.410 -0.416 -0.416
 0.082  0.853 -0.275 -0.371 -0.409 -0.415 -0.415
 0.084  0.856 -0.272 -0.369 -0.408 -0.414 -0.414
 0.086  0.859 -0.268 -0.367 -0.406 -0.413 -0.413
 0.088  0.862 -0.265 -0.365 -0.405 -0.411 -0.411
 0.090  0.865 -0.261 -0.364 -0.404 -0.410 -0.410
 0.092  0.868 -0.258 -0.362 -0.403 -0.409 -0.409
 0.094  0.871 -0.255 -0.361 -0.402 -0.408 -0.408
 0.096  0.874 -0.252 -0.359 -0.401 -0.407 -0.407
 0.098  0.878 -0.249 -0.357 -0.400 -0.405 -0.405
 0.100  0.880 -0.246 -0.356 -0.399 -0.404 -0.404
 0.102  0.884 -0.243 -0.354 -0.398 -0.403 -0.403
 0.104  0.886 -0.239 -0.353 -0.397 -0.402 -0.402
 0.106  0.889 -0.237 -0.351 -0.396 -0.400 -0.400
 0.108  0.892 -0.234 -0.350 -0.394 -0.399 -0.399
 0.110  0.895 -0.231 -0.348 -0.393 -0.398 -0.398
 0.112  0.897 -0.228 -0.347 -0.393 -0.397 -0.397
 0.114  0.900 -0.225 -0.346 -0.392 -0.396 -0.396
 0.116  0.903 -0.222 -0.344 -0.390 -0.395 -0.395
 0.118  0.906 -0.220 -0.343 -0.389 -0.394 -0.394
 0.120  0.908 -0.217 -0.342 -0.388 -0.393 -0.393
 0.122  0.911 -0.214 -0.340 -0.387 -0.392 -0.392
 0.124  0.913 -0.212 -0.339 -0.386 -0.391 -0.391
 0.126  0.915 -0.209 -0.338 -0.385 -0.390 -0.390
 0.128  0.918 -0.207 -0.337 -0.384 -0.388 -0.388
 0.130  0.920 -0.205 -0.336 -0.383 -0.387 -0.387
 0.132  0.923 -0.202 -0.335 -0.382 -0.386 -0.386
 0.134  0.925 -0.200 -0.334 -0.381 -0.385 -0.385
 0.136  0.927 -0.197 -0.332 -0.380 -0.384 -0.384
 0.138  0.929 -0.195 -0.332 -0.379 -0.383 -0.383
 0.140  0.931 -0.193 -0.330 -0.378 -0.382 -0.382
 0.142  0.933 -0.191 -0.329 -0.377 -0.381 -0.381
 0.144  0.935 -0.189 -0.328 -0.376 -0.380 -0.380
 0.146  0.937 -0.186 -0.327 -0.375 -0.379 -0.379
 0.148  0.940 -0.184 -0.326 -0.374 -0.378 -0.378
 0.150  0.941 -0.182 -0.325 -0.373 -0.377 -0.377
 0.152  0.944 -0.180 -0.324 -0.372 -0.376 -0.376
 0.154  0.945 -0.177 -0.323 -0.371 -0.375 -0.375
 0.156  0.947 -0.175 -0.321 -0.370 -0.374 -0.374
 0.158  0.949 -0.173 -0.320 -0.369 -0.373 -0.373
 0.160  0.951 -0.170 -0.319 -0.368 -0.372 -0.372
 0.162  0.953 -0.168 -0.318 -0.367 -0.371 -0.371
 0.164  0.955 -0.166 -0.317 -0.366 -0.370 -0.370
 0.166  0.957 -0.164 -0.315 -0.365 -0.370 -0.370
 0.168  0.958 -0.161 -0.314 -0.364 -0.369 -0.369
 0.170  0.961 -0.159 -0.313 -0.363 -0.368 -0.368
 0.172  0.962 -0.156 -0.312 -0.362 -0.366 -0.366
 0.174  0.964 -0.154 -0.310 -0.361 -0.366 -0.366
 0.176  0.966 -0.151 -0.309 -0.360 -0.365 -0.365
 0.178  0.968 -0.149 -0.308 -0.359 -0.364 -0.364
 0.180  0.970 -0.146 -0.307 -0.358 -0.363 -0.363
 0.182  0.972 -0.144 -0.305 -0.357 -0.362 -0.362
 0.184  0.974 -0.142 -0.304 -0.356 -0.361 -0.361
 0.186  0.976 -0.139 -0.303 -0.355 -0.360 -0.360
 0.188  0.978 -0.137 -0.302 -0.354 -0.359 -0.359
 0.190  0.980 -0.134 -0.300 -0.353 -0.358 -0.358
 0.192  0.982 -0.131 -0.299 -0.352 -0.357 -0.357
 0.194  0.984 -0.129 -0.298 -0.351 -0.356 -0.356
 0.196  0.986 -0.126 -0.296 -0.350 -0.355 -0.355
 0.198  0.988 -0.123 -0.295 -0.349 -0.354 -0.354
 0.200  0.990 -0.121 -0.294 -0.348 -0.353 -0.353
 0.202  0.992 -0.118 -0.292 -0.347 -0.352 -0.352
 0.204  0.994 -0.115 -0.291 -0.346 -0.351 -0.351
 0.206  0.996 -0.113 -0.289 -0.345 -0.351 -0.351
 0.208  0.998 -0.110 -0.288 -0.344 -0.350 -0.350
 0.210  1.000 -0.107 -0.287 -0.343 -0.349 -0.349
 0.212  1.002 -0.104 -0.285 -0.343 -0.348 -0.348
 0.214  1.004 -0.102 -0.284 -0.342 -0.347 -0.347
 0.216  1.006 -0.099 -0.283 -0.341 -0.346 -0.346
 0.218  1.008 -0.096 -0.281 -0.340 -0.345 -0.345
 0.220  1.010 -0.093 -0.280 -0.339 -0.344 -0.344
 0.222  1.012 -0.091 -0.279 -0.338 -0.343 -0.343
 0.224  1.014 -0.088 -0.277 -0.337 -0.342 -0.342
 0.226  1.017 -0.085 -0.276 -0.336 -0.341 -0.341
 0.228  1.018 -0.083 -0.274 -0.335 -0.340 -0.340
 0.230  1.021 -0.080 -0.273 -0.334 -0.339 -0.339
 0.232  1.023 -0.078 -0.272 -0.334 -0.338 -0.338
 0.234  1.024 -0.075 -0.270 -0.333 -0.337 -0.337
 0.236  1.027 -0.072 -0.269 -0.332 -0.337 -0.337
 0.238  1.029 -0.070 -0.268 -0.331 -0.336 -0.336
 0.240  1.030 -0.068 -0.266 -0.330 -0.335 -0.335
 0.242  1.033 -0.065 -0.265 -0.329 -0.334 -0.334
 0.244  1.034 -0.063 -0.264 -0.328 -0.333 -0.333
 0.246  1.036 -0.061 -0.262 -0.327 -0.332 -0.332
 0.248  1.038 -0.058 -0.261 -0.327 -0.331 -0.331
 0.250  1.040 -0.056 -0.260 -0.326 -0.330 -0.330
 0.252  1.042 -0.053 -0.258 -0.325 -0.329 -0.329
 0.254  1.044 -0.052 -0.257 -0.324 -0.328 -0.328
 0.256  1.046 -0.049 -0.256 -0.323 -0.328 -0.328
 0.258  1.048 -0.047 -0.254 -0.322 -0.327 -0.327
 0.260  1.050 -0.045 -0.253 -0.321 -0.326 -0.326
 0.262  1.052 -0.042 -0.251 -0.321 -0.325 -0.325
 0.264  1.054 -0.041 -0.250 -0.320 -0.324 -0.324
 0.266  1.055 -0.039 -0.249 -0.319 -0.323 -0.323
 0.268  1.057 -0.036 -0.247 -0.318 -0.323 -0.323
 0.270  1.059 -0.035 -0.246 -0.317 -0.322 -0.322
 0.272  1.061 -0.033 -0.245 -0.316 -0.321 -0.321
 0.274  1.063 -0.031 -0.243 -0.315 -0.320 -0.320
 0.276  1.064 -0.028 -0.242 -0.314 -0.319 -0.319
 0.278  1.066 -0.027 -0.241 -0.313 -0.318 -0.318
 0.280  1.068 -0.025 -0.240 -0.313 -0.318 -0.318
 0.282  1.069 -0.023 -0.238 -0.312 -0.317 -0.317
 0.284  1.072 -0.021 -0.237 -0.311 -0.316 -0.316
 0.286  1.073 -0.019 -0.235 -0.310 -0.315 -0.315
 0.288  1.075 -0.017 -0.234 -0.309 -0.315 -0.315
 0.290  1.077 -0.016 -0.232 -0.308 -0.314 -0.314
 0.292  1.078 -0.014 -0.231 -0.308 -0.313 -0.313
 0.294  1.080 -0.012 -0.230 -0.307 -0.312 -0.312
 0.296  1.082 -0.010 -0.228 -0.306 -0.312 -0.312
 0.298  1.083 -0.008 -0.227 -0.305 -0.311 -0.311
 0.300  1.085 -0.006 -0.225 -0.304 -0.310 -0.310
 0.302  1.086 -0.005 -0.224 -0.303 -0.309 -0.309
 0.304  1.088 -0.003 -0.222 -0.302 -0.308 -0.308
 0.306  1.090 -0.001 -0.221 -0.302 -0.308 -0.308
 0.308  1.091  0.001 -0.219 -0.301 -0.307 -0.307
 0.310  1.093  0.003 -0.218 -0.300 -0.306 -0.306
 0.312  1.095  0.005 -0.216 -0.299 -0.306 -0.306
 0.314  1.096  0.006 -0.215 -0.298 -0.305 -0.305
 0.316  1.098  0.008 -0.213 -0.297 -0.304 -0.304
 0.318  1.100  0.010 -0.211 -0.296 -0.303 -0.303
 0.320  1.101  0.012 -0.210 -0.295 -0.303 -0.303
 0.322  1.102  0.014 -0.208 -0.294 -0.302 -0.302
 0.324  1.104  0.016 -0.207 -0.294 -0.301 -0.301
 0.326  1.106  0.018 -0.205 -0.293 -0.300 -0.300
 0.328  1.107  0.020 -0.203 -0.292 -0.299 -0.299
 0.330  1.109  0.022 -0.201 -0.291 -0.298 -0.298
 0.332  1.110  0.024 -0.200 -0.290 -0.298 -0.298
 0.334  1.112  0.026 -0.198 -0.289 -0.297 -0.297
 0.336  1.113  0.028 -0.196 -0.288 -0.296 -0.296
 0.338  1.115  0.030 -0.194 -0.287 -0.295 -0.295
 0.340  1.116  0.032 -0.192 -0.286 -0.294 -0.294
 0.342  1.118  0.034 -0.191 -0.285 -0.293 -0.293
 0.344  1.119  0.036 -0.189 -0.284 -0.293 -0.293
 0.346  1.121  0.038 -0.187 -0.283 -0.292 -0.292
 0.348  1.122  0.040 -0.185 -0.282 -0.291 -0.291
 0.350  1.123  0.042 -0.184 -0.281 -0.290 -0.290
 0.352  1.125  0.044 -0.182 -0.280 -0.289 -0.289
 0.354  1.126  0.046 -0.180 -0.279 -0.288 -0.288
 0.356  1.128  0.048 -0.178 -0.278 -0.287 -0.287
 0.358  1.129  0.050 -0.177 -0.277 -0.286 -0.286
 0.360  1.130  0.052 -0.175 -0.276 -0.285 -0.285
 0.362  1.132  0.054 -0.173 -0.275 -0.284 -0.284
 0.364  1.133  0.056 -0.172 -0.274 -0.284 -0.284
 0.366  1.134  0.058 -0.170 -0.273 -0.283 -0.283
 0.368  1.136  0.060 -0.169 -0.272 -0.282 -0.282
 0.370  1.137  0.062 -0.167 -0.271 -0.281 -0.281
 0.372  1.139  0.064 -0.165 -0.270 -0.280 -0.280
 0.374  1.140  0.066 -0.164 -0.269 -0.279 -0.279
 0.376  1.141  0.068 -0.163 -0.268 -0.278 -0.278
 0.378  1.143  0.070 -0.161 -0.267 -0.277 -0.277
 0.380  1.144  0.071 -0.160 -0.266 -0.276 -0.276
 0.382  1.145  0.073 -0.158 -0.265 -0.275 -0.275
 0.384  1.147  0.075 -0.157 -0.264 -0.274 -0.274
 0.386  1.148  0.077 -0.155 -0.263 -0.273 -0.273
 0.388  1.150  0.079 -0.154 -0.262 -0.272 -0.272
 0.390  1.151  0.081 -0.153 -0.261 -0.271 -0.271
 0.392  1.152  0.082 -0.152 -0.260 -0.270 -0.270
 0.394  1.154  0.084 -0.150 -0.259 -0.269 -0.269
 0.396  1.155  0.085 -0.149 -0.258 -0.269 -0.269
 0.398  1.156  0.087 -0.148 -0.257 -0.268 -0.268
 0.400  1.158  0.088 -0.147 -0.256 -0.267 -0.267
 0.402  1.160  0.090 -0.146 -0.255 -0.266 -0.266
 0.404  1.161  0.092 -0.144 -0.254 -0.265 -0.265
 0.406  1.162  0.093 -0.143 -0.253 -0.264 -0.264
 0.408  1.163  0.095 -0.142 -0.252 -0.263 -0.263
 0.410  1.165  0.096 -0.141 -0.251 -0.262 -0.262
 0.412  1.167  0.098 -0.140 -0.251 -0.261 -0.261
 0.414  1.168  0.099 -0.139 -0.250 -0.260 -0.260
 0.416  1.170  0.101 -0.138 -0.249 -0.260 -0.260
 0.418  1.171  0.103 -0.137 -0.248 -0.259 -0.259
 0.420  1.172  0.104 -0.136 -0.247 -0.258 -0.258
 0.422  1.174  0.105 -0.135 -0.246 -0.257 -0.257
 0.424  1.176  0.106 -0.134 -0.245 -0.256 -0.256
 0.426  1.177  0.108 -0.133 -0.245 -0.255 -0.255
 0.428  1.178  0.109 -0.133 -0.244 -0.255 -0.255
 0.430  1.180  0.110 -0.131 -0.243 -0.254 -0.254
 0.432  1.182  0.112 -0.131 -0.242 -0.253 -0.253
 0.434  1.183  0.113 -0.130 -0.241 -0.252 -0.252
 0.436  1.184  0.114 -0.129 -0.241 -0.251 -0.251
 0.438  1.186  0.115 -0.128 -0.240 -0.250 -0.250
 0.440  1.187  0.117 -0.127 -0.239 -0.249 -0.249
 0.442  1.189  0.118 -0.126 -0.239 -0.249 -0.249
 0.444  1.190  0.119 -0.125 -0.238 -0.248 -0.248
 0.446  1.192  0.120 -0.124 -0.237 -0.247 -0.247
 0.448  1.193  0.122 -0.123 -0.236 -0.246 -0.246
 0.450  1.195  0.123 -0.122 -0.235 -0.245 -0.245
 0.452  1.196  0.124 -0.121 -0.235 -0.245 -0.245
 0.454  1.197  0.125 -0.121 -0.234 -0.244 -0.244
 0.456  1.199  0.126 -0.120 -0.233 -0.243 -0.243
 0.458  1.200  0.128 -0.119 -0.232 -0.242 -0.242
 0.460  1.201  0.129 -0.118 -0.232 -0.241 -0.241
 0.462  1.203  0.130 -0.117 -0.231 -0.241 -0.241
 0.464  1.204  0.131 -0.116 -0.230 -0.240 -0.240
 0.466  1.205  0.133 -0.115 -0.230 -0.239 -0.239
 0.468  1.206  0.133 -0.114 -0.229 -0.239 -0.239
 0.470  1.207  0.134 -0.113 -0.228 -0.238 -0.238
 0.472  1.208  0.136 -0.112 -0.227 -0.237 -0.237
 0.474  1.209  0.137 -0.111 -0.227 -0.236 -0.236
 0.476  1.210  0.138 -0.110 -0.226 -0.236 -0.236
 0.478  1.211  0.139 -0.110 -0.225 -0.235 -0.235
 0.480  1.212  0.140 -0.108 -0.225 -0.235 -0.235
 0.482  1.214  0.141 -0.108 -0.224 -0.234 -0.234
 0.484  1.214  0.142 -0.107 -0.223 -0.233 -0.233
 0.486  1.215  0.143 -0.106 -0.222 -0.233 -0.233
 0.488  1.216  0.144 -0.105 -0.222 -0.232 -0.232
 0.490  1.217  0.145 -0.104 -0.221 -0.231 -0.231
 0.492  1.218  0.146 -0.103 -0.220 -0.230 -0.230
 0.494  1.218  0.147 -0.102 -0.220 -0.230 -0.230
 0.496  1.220  0.148 -0.102 -0.219 -0.229 -0.229
 0.498  1.220  0.149 -0.101 -0.218 -0.229 -0.229
 0.500  1.221  0.150 -0.100 -0.218 -0.228 -0.228
 0.502  1.222  0.151 -0.099 -0.217 -0.228 -0.228
 0.504  1.222  0.152 -0.098 -0.216 -0.227 -0.227
 0.506  1.223  0.153 -0.097 -0.215 -0.227 -0.227
 0.508  1.224  0.154 -0.097 -0.215 -0.226 -0.226
 0.510  1.225  0.155 -0.096 -0.214 -0.226 -0.226
 0.512  1.225  0.155 -0.095 -0.213 -0.225 -0.225
 0.514  1.226  0.156 -0.095 -0.213 -0.225 -0.225
 0.516  1.226  0.157 -0.094 -0.212 -0.224 -0.224
 0.518  1.227  0.158 -0.093 -0.211 -0.224 -0.224
 0.520  1.227  0.158 -0.093 -0.211 -0.223 -0.223
 0.522  1.228  0.159 -0.092 -0.210 -0.223 -0.223
 0.524  1.228  0.159 -0.091 -0.210 -0.222 -0.222
 0.526  1.229  0.160 -0.091 -0.209 -0.222 -0.222
 0.528  1.229  0.161 -0.090 -0.208 -0.221 -0.221
 0.530  1.230  0.161 -0.090 -0.208 -0.221 -0.221
 0.532  1.231  0.162 -0.089 -0.207 -0.220 -0.220
 0.534  1.231  0.163 -0.089 -0.207 -0.220 -0.220
 0.536  1.232  0.163 -0.088 -0.206 -0.219 -0.219
 0.538  1.232  0.164 -0.088 -0.205 -0.218 -0.218
 0.540  1.232  0.164 -0.087 -0.205 -0.218 -0.218
 0.542  1.233  0.164 -0.087 -0.204 -0.217 -0.217
 0.544  1.233  0.165 -0.087 -0.204 -0.217 -0.217
 0.546  1.234  0.165 -0.086 -0.203 -0.216 -0.216
 0.548  1.234  0.166 -0.086 -0.203 -0.216 -0.216
 0.550  1.234  0.166 -0.085 -0.202 -0.215 -0.215
 0.552  1.235  0.166 -0.085 -0.202 -0.215 -0.215
 0.554  1.236  0.166 -0.085 -0.201 -0.214 -0.214
 0.556  1.236  0.166 -0.085 -0.201 -0.214 -0.214
 0.558  1.236  0.167 -0.084 -0.201 -0.213 -0.213
 0.560  1.236  0.167 -0.084 -0.200 -0.213 -0.213
 0.562  1.237  0.167 -0.084 -0.200 -0.212 -0.212
 0.564  1.237  0.167 -0.083 -0.200 -0.212 -0.212
 0.566  1.237  0.167 -0.083 -0.199 -0.211 -0.211
 0.568  1.238  0.167 -0.083 -0.199 -0.211 -0.211
 0.570  1.238  0.167 -0.083 -0.198 -0.210 -0.210
 0.572  1.238  0.167 -0.082 -0.198 -0.210 -0.210
 0.574  1.238  0.167 -0.082 -0.198 -0.209 -0.209
 0.576  1.239  0.167 -0.082 -0.197 -0.209 -0.209
 0.578  1.239  0.167 -0.081 -0.197 -0.208 -0.208
 0.580  1.239  0.167 -0.081 -0.197 -0.208 -0.208
 0.582  1.239  0.167 -0.081 -0.197 -0.207 -0.207
 0.584  1.239  0.167 -0.081 -0.196 -0.207 -0.207
 0.586  1.240  0.167 -0.080 -0.196 -0.206 -0.206
 0.588  1.240  0.167 -0.080 -0.196 -0.206 -0.206
 0.590  1.240  0.167 -0.079 -0.195 -0.205 -0.205
 0.592  1.240  0.167 -0.079 -0.195 -0.205 -0.205
 0.594  1.240  0.167 -0.079 -0.195 -0.204 -0.204
 0.596  1.241  0.167 -0.078 -0.195 -0.204 -0.204
 0.598  1.241  0.168 -0.078 -0.194 -0.203 -0.203
 0.600  1.241  0.168 -0.078 -0.194 -0.203 -0.203
 0.602  1.242  0.168 -0.077 -0.194 -0.202 -0.202
 0.604  1.242  0.168 -0.077 -0.194 -0.202 -0.202
 0.606  1.242  0.169 -0.076 -0.193 -0.202 -0.202
 0.608  1.242  0.169 -0.076 -0.193 -0.201 -0.201
 0.610  1.242  0.169 -0.076 -0.193 -0.201 -0.201
 0.612  1.243  0.169 -0.075 -0.193 -0.200 -0.200
 0.614  1.243  0.169 -0.075 -0.192 -0.200 -0.200
 0.616  1.243  0.169 -0.074 -0.192 -0.200 -0.200
 0.618  1.243  0.169 -0.074 -0.192 -0.199 -0.199
 0.620  1.244  0.170 -0.074 -0.192 -0.199 -0.199
 0.622  1.244  0.170 -0.073 -0.191 -0.198 -0.198
 0.624  1.244  0.170 -0.072 -0.191 -0.198 -0.198
 0.626  1.244  0.170 -0.072 -0.191 -0.198 -0.198
 0.628  1.244  0.170 -0.072 -0.191 -0.197 -0.197
 0.630  1.245  0.170 -0.071 -0.191 -0.197 -0.197
 0.632  1.245  0.171 -0.070 -0.190 -0.196 -0.196
 0.634  1.245  0.171 -0.070 -0.190 -0.196 -0.196
 0.636  1.245  0.172 -0.070 -0.190 -0.196 -0.196
 0.638  1.246  0.172 -0.069 -0.190 -0.196 -0.196
 0.640  1.246  0.172 -0.068 -0.189 -0.195 -0.195
 0.642  1.247  0.172 -0.068 -0.189 -0.195 -0.195
 0.644  1.247  0.172 -0.067 -0.189 -0.195 -0.195
 0.646  1.247  0.173 -0.067 -0.189 -0.194 -0.194
 0.648  1.247  0.174 -0.066 -0.188 -0.194 -0.194
 0.650  1.247  0.174 -0.065 -0.188 -0.194 -0.194
 0.652  1.248  0.174 -0.065 -0.188 -0.194 -0.194
 0.654  1.248  0.175 -0.064 -0.188 -0.193 -0.193
 0.656  1.248  0.175 -0.063 -0.187 -0.193 -0.193
 0.658  1.248  0.175 -0.062 -0.187 -0.193 -0.193
 0.660  1.249  0.176 -0.062 -0.187 -0.193 -0.193
 0.662  1.249  0.177 -0.061 -0.186 -0.193 -0.193
 0.664  1.249  0.177 -0.060 -0.186 -0.192 -0.192
 0.666  1.250  0.178 -0.059 -0.186 -0.192 -0.192
 0.668  1.250  0.179 -0.058 -0.185 -0.192 -0.192
 0.670  1.250  0.180 -0.057 -0.185 -0.191 -0.191
 0.672  1.250  0.180 -0.057 -0.184 -0.191 -0.191
 0.674  1.251  0.181 -0.056 -0.184 -0.191 -0.191
 0.676  1.251  0.182 -0.055 -0.183 -0.190 -0.190
 0.678  1.251  0.183 -0.054 -0.182 -0.190 -0.190
 0.680  1.252  0.184 -0.053 -0.182 -0.190 -0.190
 0.682  1.252  0.185 -0.052 -0.181 -0.189 -0.189
 0.684  1.253  0.186 -0.051 -0.180 -0.189 -0.189
 0.686  1.253  0.186 -0.050 -0.179 -0.188 -0.188
 0.688  1.254  0.188 -0.049 -0.178 -0.188 -0.188
 0.690  1.254  0.189 -0.048 -0.178 -0.188 -0.188
 0.692  1.254  0.190 -0.047 -0.177 -0.187 -0.187
 0.694  1.255  0.191 -0.046 -0.176 -0.187 -0.187
 0.696  1.255  0.192 -0.045 -0.175 -0.186 -0.186
 0.698  1.255  0.193 -0.044 -0.173 -0.186 -0.186
 0.700  1.256  0.194 -0.043 -0.172 -0.185 -0.185
 0.702  1.256  0.196 -0.041 -0.171 -0.184 -0.184
 0.704  1.257  0.197 -0.040 -0.170 -0.183 -0.183
 0.706  1.257  0.199 -0.039 -0.169 -0.183 -0.183
 0.708  1.258  0.200 -0.038 -0.168 -0.182 -0.182
 0.710  1.258  0.201 -0.037 -0.166 -0.182 -0.182
 0.712  1.259  0.203 -0.036 -0.165 -0.181 -0.181
 0.714  1.259  0.204 -0.035 -0.163 -0.180 -0.180
 0.716  1.259  0.205 -0.034 -0.162 -0.180 -0.180
 0.718  1.260  0.207 -0.033 -0.160 -0.179 -0.179
 0.720  1.260  0.208 -0.032 -0.159 -0.178 -0.178
 0.722  1.261  0.210 -0.031 -0.157 -0.177 -0.177
 0.724  1.261  0.211 -0.030 -0.155 -0.177 -0.177
 0.726  1.262  0.213 -0.029 -0.154 -0.176 -0.176
 0.728  1.262  0.214 -0.028 -0.152 -0.175 -0.175
 0.730  1.263  0.216 -0.028 -0.150 -0.174 -0.174
 0.732  1.264  0.217 -0.027 -0.149 -0.173 -0.173
 0.734  1.265  0.218 -0.026 -0.147 -0.172 -0.172
 0.736  1.265  0.220 -0.026 -0.146 -0.171 -0.171
 0.738  1.266  0.221 -0.026 -0.144 -0.171 -0.171
 0.740  1.267  0.222 -0.025 -0.143 -0.170 -0.170
 0.742  1.268  0.224 -0.024 -0.141 -0.169 -0.169
 0.744  1.269  0.226 -0.024 -0.140 -0.168 -0.168
 0.746  1.270  0.227 -0.024 -0.138 -0.167 -0.167
 0.748  1.271  0.228 -0.023 -0.137 -0.166 -0.166
 0.750  1.272  0.229 -0.023 -0.136 -0.165 -0.165
 0.752  1.273  0.230 -0.022 -0.134 -0.164 -0.164
 0.754  1.275  0.232 -0.022 -0.133 -0.162 -0.162
 0.756  1.276  0.233 -0.022 -0.132 -0.161 -0.161
 0.758  1.277  0.234 -0.021 -0.131 -0.160 -0.160
 0.760  1.278  0.235 -0.021 -0.130 -0.159 -0.159
 0.762  1.280  0.236 -0.021 -0.129 -0.158 -0.158
 0.764  1.281  0.237 -0.021 -0.128 -0.156 -0.156
 0.766  1.283  0.238 -0.021 -0.127 -0.155 -0.155
 0.768  1.284  0.240 -0.021 -0.126 -0.154 -0.154
 0.770  1.286  0.241 -0.021 -0.125 -0.153 -0.153
 0.772  1.287  0.242 -0.021 -0.125 -0.152 -0.152
 0.774  1.289  0.243 -0.021 -0.124 -0.150 -0.150
 0.776  1.291  0.244 -0.022 -0.123 -0.149 -0.149
 0.778  1.293  0.246 -0.022 -0.123 -0.147 -0.147
 0.780  1.295  0.247 -0.023 -0.122 -0.146 -0.146
 0.782  1.297  0.248 -0.024 -0.121 -0.145 -0.145
 0.784  1.299  0.249 -0.024 -0.121 -0.143 -0.143
 0.786  1.301  0.250 -0.026 -0.120 -0.142 -0.142
 0.788  1.303  0.251 -0.027 -0.120 -0.140 -0.140
 0.790  1.305  0.251 -0.028 -0.120 -0.139 -0.139
 0.792  1.307  0.251 -0.030 -0.119 -0.137 -0.137
 0.794  1.309  0.251 -0.032 -0.119 -0.135 -0.135
 0.796  1.311  0.251 -0.034 -0.119 -0.134 -0.134
 0.798  1.313  0.250 -0.037 -0.119 -0.132 -0.132
 0.800  1.314  0.249 -0.039 -0.119 -0.131 -0.131
 0.802  1.316  0.248 -0.043 -0.119 -0.129 -0.129
 0.804  1.317  0.246 -0.045 -0.119 -0.127 -0.127
 0.806  1.318  0.244 -0.049 -0.119 -0.126 -0.126
 0.808  1.319  0.242 -0.052 -0.120 -0.125 -0.125
