# IsPeriodic    : True
# Period        : 0.564472 days
# Normalization : <g_mag>=0
# 
# Phase u_mag  g_mag  r_mag  i_mag  z_mag  y_mag
 0.000  0.493 -0.658 -0.619 -0.551 -0.503 -0.503
 0.002  0.493 -0.658 -0.619 -0.551 -0.503 -0.503
 0.004  0.493 -0.658 -0.619 -0.550 -0.503 -0.503
 0.006  0.494 -0.657 -0.619 -0.550 -0.503 -0.503
 0.008  0.495 -0.656 -0.618 -0.549 -0.502 -0.502
 0.010  0.497 -0.654 -0.618 -0.549 -0.501 -0.501
 0.012  0.498 -0.653 -0.617 -0.549 -0.501 -0.501
 0.014  0.500 -0.651 -0.616 -0.547 -0.499 -0.499
 0.016  0.502 -0.649 -0.615 -0.547 -0.498 -0.498
 0.018  0.505 -0.647 -0.614 -0.546 -0.496 -0.496
 0.020  0.508 -0.644 -0.613 -0.545 -0.495 -0.495
 0.022  0.510 -0.641 -0.612 -0.544 -0.492 -0.492
 0.024  0.513 -0.638 -0.610 -0.542 -0.491 -0.491
 0.026  0.517 -0.635 -0.608 -0.541 -0.488 -0.488
 0.028  0.520 -0.632 -0.606 -0.540 -0.486 -0.486
 0.030  0.523 -0.629 -0.604 -0.538 -0.483 -0.483
 0.032  0.527 -0.626 -0.603 -0.536 -0.480 -0.480
 0.034  0.531 -0.623 -0.600 -0.535 -0.477 -0.477
 0.036  0.535 -0.619 -0.598 -0.533 -0.474 -0.474
 0.038  0.539 -0.615 -0.595 -0.531 -0.471 -0.471
 0.040  0.543 -0.612 -0.593 -0.529 -0.468 -0.468
 0.042  0.548 -0.608 -0.590 -0.526 -0.465 -0.465
 0.044  0.553 -0.604 -0.587 -0.524 -0.462 -0.462
 0.046  0.558 -0.600 -0.584 -0.521 -0.459 -0.459
 0.048  0.563 -0.595 -0.581 -0.519 -0.456 -0.456
 0.050  0.568 -0.590 -0.578 -0.516 -0.453 -0.453
 0.052  0.574 -0.586 -0.575 -0.513 -0.450 -0.450
 0.054  0.580 -0.581 -0.571 -0.510 -0.448 -0.448
 0.056  0.586 -0.575 -0.567 -0.507 -0.445 -0.445
 0.058  0.592 -0.570 -0.563 -0.504 -0.443 -0.443
 0.060  0.598 -0.564 -0.559 -0.501 -0.440 -0.440
 0.062  0.605 -0.559 -0.555 -0.498 -0.438 -0.438
 0.064  0.612 -0.554 -0.550 -0.495 -0.436 -0.436
 0.066  0.618 -0.547 -0.546 -0.492 -0.434 -0.434
 0.068  0.626 -0.541 -0.541 -0.489 -0.432 -0.432
 0.070  0.633 -0.535 -0.537 -0.486 -0.429 -0.429
 0.072  0.640 -0.528 -0.532 -0.483 -0.427 -0.427
 0.074  0.648 -0.522 -0.528 -0.480 -0.425 -0.425
 0.076  0.654 -0.516 -0.523 -0.477 -0.423 -0.423
 0.078  0.662 -0.510 -0.518 -0.474 -0.422 -0.422
 0.080  0.669 -0.503 -0.514 -0.472 -0.420 -0.420
 0.082  0.677 -0.497 -0.509 -0.469 -0.418 -0.418
 0.084  0.684 -0.491 -0.504 -0.467 -0.417 -0.417
 0.086  0.691 -0.484 -0.500 -0.464 -0.415 -0.415
 0.088  0.698 -0.478 -0.495 -0.461 -0.414 -0.414
 0.090  0.705 -0.472 -0.492 -0.459 -0.412 -0.412
 0.092  0.712 -0.466 -0.487 -0.456 -0.411 -0.411
 0.094  0.719 -0.459 -0.483 -0.454 -0.410 -0.410
 0.096  0.725 -0.454 -0.479 -0.451 -0.409 -0.409
 0.098  0.732 -0.448 -0.475 -0.449 -0.407 -0.407
 0.100  0.738 -0.443 -0.472 -0.447 -0.407 -0.407
 0.102  0.744 -0.436 -0.468 -0.445 -0.406 -0.406
 0.104  0.750 -0.431 -0.464 -0.442 -0.404 -0.404
 0.106  0.756 -0.425 -0.461 -0.440 -0.404 -0.404
 0.108  0.762 -0.420 -0.457 -0.438 -0.403 -0.403
 0.110  0.768 -0.414 -0.454 -0.436 -0.402 -0.402
 0.112  0.774 -0.408 -0.451 -0.434 -0.401 -0.401
 0.114  0.779 -0.403 -0.447 -0.432 -0.400 -0.400
 0.116  0.785 -0.398 -0.444 -0.429 -0.399 -0.399
 0.118  0.790 -0.392 -0.441 -0.428 -0.399 -0.399
 0.120  0.796 -0.387 -0.438 -0.426 -0.398 -0.398
 0.122  0.801 -0.382 -0.435 -0.424 -0.396 -0.396
 0.124  0.806 -0.377 -0.432 -0.422 -0.396 -0.396
 0.126  0.811 -0.371 -0.429 -0.420 -0.395 -0.395
 0.128  0.816 -0.367 -0.426 -0.419 -0.394 -0.394
 0.130  0.821 -0.362 -0.424 -0.417 -0.392 -0.392
 0.132  0.825 -0.357 -0.421 -0.415 -0.391 -0.391
 0.134  0.830 -0.353 -0.419 -0.413 -0.390 -0.390
 0.136  0.834 -0.347 -0.417 -0.411 -0.389 -0.389
 0.138  0.839 -0.343 -0.415 -0.410 -0.388 -0.388
 0.140  0.843 -0.338 -0.412 -0.408 -0.386 -0.386
 0.142  0.847 -0.334 -0.410 -0.406 -0.385 -0.385
 0.144  0.851 -0.330 -0.408 -0.405 -0.384 -0.384
 0.146  0.855 -0.324 -0.406 -0.403 -0.382 -0.382
 0.148  0.859 -0.320 -0.403 -0.402 -0.381 -0.381
 0.150  0.863 -0.316 -0.401 -0.400 -0.379 -0.379
 0.152  0.867 -0.312 -0.399 -0.398 -0.378 -0.378
 0.154  0.871 -0.308 -0.397 -0.396 -0.376 -0.376
 0.156  0.875 -0.302 -0.395 -0.394 -0.375 -0.375
 0.158  0.879 -0.298 -0.392 -0.393 -0.373 -0.373
 0.160  0.883 -0.294 -0.390 -0.391 -0.372 -0.372
 0.162  0.886 -0.290 -0.388 -0.389 -0.370 -0.370
 0.164  0.890 -0.286 -0.386 -0.388 -0.368 -0.368
 0.166  0.894 -0.281 -0.383 -0.386 -0.367 -0.367
 0.168  0.898 -0.277 -0.381 -0.385 -0.365 -0.365
 0.170  0.902 -0.273 -0.378 -0.383 -0.363 -0.363
 0.172  0.906 -0.269 -0.376 -0.381 -0.361 -0.361
 0.174  0.910 -0.264 -0.374 -0.379 -0.359 -0.359
 0.176  0.913 -0.259 -0.372 -0.377 -0.357 -0.357
 0.178  0.917 -0.255 -0.369 -0.376 -0.356 -0.356
 0.180  0.921 -0.251 -0.366 -0.374 -0.353 -0.353
 0.182  0.925 -0.247 -0.364 -0.372 -0.352 -0.352
 0.184  0.929 -0.243 -0.361 -0.371 -0.350 -0.350
 0.186  0.933 -0.238 -0.359 -0.369 -0.348 -0.348
 0.188  0.937 -0.234 -0.356 -0.368 -0.346 -0.346
 0.190  0.940 -0.231 -0.354 -0.366 -0.344 -0.344
 0.192  0.944 -0.227 -0.351 -0.364 -0.342 -0.342
 0.194  0.948 -0.223 -0.349 -0.362 -0.341 -0.341
 0.196  0.952 -0.219 -0.346 -0.361 -0.339 -0.339
 0.198  0.956 -0.214 -0.343 -0.359 -0.337 -0.337
 0.200  0.960 -0.210 -0.340 -0.357 -0.335 -0.335
 0.202  0.963 -0.206 -0.337 -0.355 -0.334 -0.334
 0.204  0.967 -0.202 -0.334 -0.354 -0.332 -0.332
 0.206  0.971 -0.199 -0.332 -0.352 -0.330 -0.330
 0.208  0.975 -0.195 -0.329 -0.351 -0.329 -0.329
 0.210  0.978 -0.190 -0.326 -0.349 -0.327 -0.327
 0.212  0.982 -0.186 -0.323 -0.347 -0.325 -0.325
 0.214  0.986 -0.182 -0.320 -0.346 -0.323 -0.323
 0.216  0.990 -0.179 -0.318 -0.344 -0.322 -0.322
 0.218  0.994 -0.175 -0.315 -0.343 -0.321 -0.321
 0.220  0.997 -0.170 -0.312 -0.341 -0.319 -0.319
 0.222  1.001 -0.166 -0.309 -0.339 -0.318 -0.318
 0.224  1.005 -0.163 -0.306 -0.338 -0.316 -0.316
 0.226  1.008 -0.159 -0.304 -0.336 -0.315 -0.315
 0.228  1.012 -0.155 -0.301 -0.334 -0.313 -0.313
 0.230  1.016 -0.152 -0.299 -0.333 -0.312 -0.312
 0.232  1.019 -0.147 -0.296 -0.331 -0.310 -0.310
 0.234  1.023 -0.144 -0.294 -0.329 -0.309 -0.309
 0.236  1.026 -0.140 -0.291 -0.328 -0.308 -0.308
 0.238  1.030 -0.137 -0.289 -0.326 -0.306 -0.306
 0.240  1.033 -0.133 -0.286 -0.324 -0.305 -0.305
 0.242  1.037 -0.130 -0.283 -0.323 -0.304 -0.304
 0.244  1.040 -0.125 -0.281 -0.321 -0.303 -0.303
 0.246  1.043 -0.122 -0.279 -0.320 -0.302 -0.302
 0.248  1.047 -0.118 -0.277 -0.318 -0.300 -0.300
 0.250  1.050 -0.115 -0.274 -0.317 -0.299 -0.299
 0.252  1.053 -0.111 -0.272 -0.315 -0.298 -0.298
 0.254  1.057 -0.108 -0.269 -0.313 -0.296 -0.296
 0.256  1.060 -0.105 -0.267 -0.312 -0.295 -0.295
 0.258  1.063 -0.100 -0.265 -0.310 -0.294 -0.294
 0.260  1.066 -0.097 -0.263 -0.309 -0.293 -0.293
 0.262  1.069 -0.094 -0.260 -0.307 -0.292 -0.292
 0.264  1.073 -0.091 -0.259 -0.306 -0.291 -0.291
 0.266  1.076 -0.087 -0.257 -0.304 -0.289 -0.289
 0.268  1.079 -0.084 -0.254 -0.303 -0.288 -0.288
 0.270  1.082 -0.080 -0.252 -0.301 -0.287 -0.287
 0.272  1.085 -0.077 -0.251 -0.300 -0.285 -0.285
 0.274  1.088 -0.074 -0.249 -0.298 -0.284 -0.284
 0.276  1.091 -0.070 -0.247 -0.296 -0.283 -0.283
 0.278  1.094 -0.067 -0.245 -0.295 -0.281 -0.281
 0.280  1.097 -0.064 -0.243 -0.293 -0.280 -0.280
 0.282  1.100 -0.061 -0.241 -0.292 -0.279 -0.279
 0.284  1.102 -0.057 -0.240 -0.290 -0.277 -0.277
 0.286  1.105 -0.054 -0.237 -0.289 -0.276 -0.276
 0.288  1.108 -0.051 -0.236 -0.287 -0.275 -0.275
 0.290  1.111 -0.048 -0.234 -0.286 -0.273 -0.273
 0.292  1.114 -0.045 -0.232 -0.284 -0.272 -0.272
 0.294  1.117 -0.042 -0.231 -0.282 -0.271 -0.271
 0.296  1.119 -0.039 -0.229 -0.281 -0.269 -0.269
 0.298  1.122 -0.035 -0.227 -0.279 -0.268 -0.268
 0.300  1.125 -0.032 -0.226 -0.278 -0.266 -0.266
 0.302  1.128 -0.029 -0.223 -0.276 -0.265 -0.265
 0.304  1.130 -0.026 -0.222 -0.275 -0.264 -0.264
 0.306  1.133 -0.023 -0.220 -0.273 -0.262 -0.262
 0.308  1.136 -0.020 -0.218 -0.272 -0.261 -0.261
 0.310  1.139 -0.017 -0.216 -0.270 -0.260 -0.260
 0.312  1.141 -0.013 -0.214 -0.269 -0.258 -0.258
 0.314  1.144 -0.010 -0.212 -0.267 -0.257 -0.257
 0.316  1.147 -0.007 -0.210 -0.265 -0.255 -0.255
 0.318  1.150 -0.004 -0.209 -0.264 -0.254 -0.254
 0.320  1.152  0.000 -0.206 -0.262 -0.252 -0.252
 0.322  1.155  0.003 -0.204 -0.261 -0.251 -0.251
 0.324  1.158  0.006 -0.203 -0.259 -0.249 -0.249
 0.326  1.160  0.010 -0.200 -0.257 -0.248 -0.248
 0.328  1.163  0.013 -0.198 -0.256 -0.246 -0.246
 0.330  1.166  0.016 -0.197 -0.254 -0.245 -0.245
 0.332  1.169  0.019 -0.194 -0.252 -0.244 -0.244
 0.334  1.171  0.022 -0.192 -0.251 -0.242 -0.242
 0.336  1.174  0.026 -0.190 -0.249 -0.241 -0.241
 0.338  1.177  0.029 -0.189 -0.248 -0.239 -0.239
 0.340  1.179  0.033 -0.186 -0.246 -0.238 -0.238
 0.342  1.182  0.036 -0.184 -0.244 -0.236 -0.236
 0.344  1.184  0.039 -0.182 -0.243 -0.235 -0.235
 0.346  1.187  0.042 -0.180 -0.241 -0.233 -0.233
 0.348  1.190  0.046 -0.177 -0.239 -0.232 -0.232
 0.350  1.192  0.049 -0.175 -0.238 -0.230 -0.230
 0.352  1.195  0.052 -0.174 -0.236 -0.229 -0.229
 0.354  1.198  0.056 -0.171 -0.235 -0.227 -0.227
 0.356  1.200  0.059 -0.169 -0.233 -0.226 -0.226
 0.358  1.203  0.063 -0.167 -0.231 -0.225 -0.225
 0.360  1.205  0.066 -0.165 -0.230 -0.223 -0.223
 0.362  1.208  0.069 -0.163 -0.228 -0.222 -0.222
 0.364  1.211  0.072 -0.160 -0.227 -0.221 -0.221
 0.366  1.213  0.076 -0.158 -0.225 -0.219 -0.219
 0.368  1.216  0.079 -0.156 -0.223 -0.218 -0.218
 0.370  1.218  0.082 -0.154 -0.222 -0.216 -0.216
 0.372  1.221  0.085 -0.151 -0.220 -0.215 -0.215
 0.374  1.223  0.088 -0.149 -0.218 -0.214 -0.214
 0.376  1.226  0.091 -0.147 -0.216 -0.212 -0.212
 0.378  1.228  0.094 -0.146 -0.215 -0.211 -0.211
 0.380  1.231  0.097 -0.143 -0.213 -0.210 -0.210
 0.382  1.233  0.101 -0.141 -0.211 -0.208 -0.208
 0.384  1.236  0.104 -0.139 -0.210 -0.207 -0.207
 0.386  1.238  0.106 -0.137 -0.208 -0.205 -0.205
 0.388  1.241  0.109 -0.135 -0.207 -0.204 -0.204
 0.390  1.243  0.112 -0.133 -0.205 -0.203 -0.203
 0.392  1.246  0.114 -0.131 -0.204 -0.201 -0.201
 0.394  1.248  0.117 -0.129 -0.202 -0.200 -0.200
 0.396  1.251  0.121 -0.127 -0.200 -0.199 -0.199
 0.398  1.253  0.123 -0.125 -0.198 -0.197 -0.197
 0.400  1.256  0.126 -0.123 -0.196 -0.196 -0.196
 0.402  1.258  0.128 -0.121 -0.195 -0.195 -0.195
 0.404  1.261  0.131 -0.119 -0.193 -0.193 -0.193
 0.406  1.263  0.133 -0.117 -0.191 -0.192 -0.192
 0.408  1.265  0.135 -0.115 -0.190 -0.191 -0.191
 0.410  1.268  0.138 -0.113 -0.188 -0.189 -0.189
 0.412  1.270  0.140 -0.111 -0.187 -0.188 -0.188
 0.414  1.272  0.142 -0.109 -0.185 -0.187 -0.187
 0.416  1.275  0.145 -0.108 -0.183 -0.185 -0.185
 0.418  1.277  0.147 -0.106 -0.182 -0.184 -0.184
 0.420  1.280  0.149 -0.104 -0.180 -0.183 -0.183
 0.422  1.282  0.152 -0.102 -0.178 -0.181 -0.181
 0.424  1.284  0.154 -0.100 -0.176 -0.180 -0.180
 0.426  1.287  0.156 -0.098 -0.175 -0.179 -0.179
 0.428  1.289  0.158 -0.097 -0.173 -0.177 -0.177
 0.430  1.291  0.159 -0.094 -0.172 -0.176 -0.176
 0.432  1.292  0.161 -0.093 -0.170 -0.175 -0.175
 0.434  1.295  0.163 -0.091 -0.169 -0.174 -0.174
 0.436  1.297  0.166 -0.089 -0.167 -0.172 -0.172
 0.438  1.299  0.168 -0.088 -0.166 -0.171 -0.171
 0.440  1.301  0.170 -0.086 -0.164 -0.170 -0.170
 0.442  1.304  0.171 -0.085 -0.163 -0.169 -0.169
 0.444  1.306  0.173 -0.083 -0.162 -0.168 -0.168
 0.446  1.308  0.175 -0.081 -0.160 -0.166 -0.166
 0.448  1.310  0.177 -0.080 -0.159 -0.165 -0.165
 0.450  1.312  0.178 -0.078 -0.157 -0.164 -0.164
 0.452  1.314  0.180 -0.077 -0.156 -0.162 -0.162
 0.454  1.316  0.182 -0.075 -0.155 -0.161 -0.161
 0.456  1.318  0.183 -0.074 -0.153 -0.160 -0.160
 0.458  1.320  0.185 -0.072 -0.152 -0.159 -0.159
 0.460  1.322  0.186 -0.071 -0.151 -0.158 -0.158
 0.462  1.324  0.189 -0.069 -0.149 -0.157 -0.157
 0.464  1.326  0.191 -0.068 -0.148 -0.156 -0.156
 0.466  1.328  0.192 -0.066 -0.147 -0.154 -0.154
 0.468  1.330  0.194 -0.065 -0.146 -0.153 -0.153
 0.470  1.332  0.195 -0.064 -0.145 -0.152 -0.152
 0.472  1.334  0.196 -0.063 -0.143 -0.151 -0.151
 0.474  1.336  0.198 -0.061 -0.143 -0.150 -0.150
 0.476  1.338  0.199 -0.060 -0.142 -0.149 -0.149
 0.478  1.339  0.201 -0.059 -0.140 -0.147 -0.147
 0.480  1.341  0.202 -0.057 -0.139 -0.146 -0.146
 0.482  1.343  0.203 -0.056 -0.139 -0.145 -0.145
 0.484  1.345  0.205 -0.055 -0.137 -0.144 -0.144
 0.486  1.346  0.206 -0.054 -0.136 -0.143 -0.143
 0.488  1.348  0.207 -0.053 -0.135 -0.142 -0.142
 0.490  1.350  0.209 -0.051 -0.134 -0.141 -0.141
 0.492  1.351  0.211 -0.051 -0.133 -0.140 -0.140
 0.494  1.353  0.212 -0.050 -0.132 -0.139 -0.139
 0.496  1.355  0.213 -0.048 -0.131 -0.138 -0.138
 0.498  1.356  0.214 -0.048 -0.130 -0.137 -0.137
 0.500  1.358  0.215 -0.047 -0.129 -0.136 -0.136
 0.502  1.359  0.217 -0.046 -0.128 -0.135 -0.135
 0.504  1.361  0.218 -0.045 -0.128 -0.134 -0.134
 0.506  1.362  0.219 -0.044 -0.126 -0.133 -0.133
 0.508  1.364  0.220 -0.043 -0.126 -0.132 -0.132
 0.510  1.365  0.221 -0.042 -0.125 -0.131 -0.131
 0.512  1.367  0.222 -0.041 -0.124 -0.130 -0.130
 0.514  1.368  0.223 -0.040 -0.123 -0.129 -0.129
 0.516  1.369  0.224 -0.039 -0.122 -0.128 -0.128
 0.518  1.370  0.225 -0.038 -0.121 -0.127 -0.127
 0.520  1.372  0.226 -0.037 -0.120 -0.126 -0.126
 0.522  1.373  0.227 -0.037 -0.119 -0.125 -0.125
 0.524  1.374  0.228 -0.036 -0.118 -0.124 -0.124
 0.526  1.375  0.229 -0.034 -0.117 -0.123 -0.123
 0.528  1.376  0.230 -0.034 -0.117 -0.123 -0.123
 0.530  1.377  0.231 -0.033 -0.115 -0.122 -0.122
 0.532  1.378  0.233 -0.032 -0.115 -0.121 -0.121
 0.534  1.379  0.234 -0.031 -0.114 -0.120 -0.120
 0.536  1.380  0.235 -0.031 -0.113 -0.119 -0.119
 0.538  1.381  0.236 -0.029 -0.112 -0.118 -0.118
 0.540  1.382  0.237 -0.028 -0.111 -0.118 -0.118
 0.542  1.383  0.238 -0.028 -0.111 -0.116 -0.116
 0.544  1.384  0.239 -0.027 -0.109 -0.116 -0.116
 0.546  1.385  0.240 -0.026 -0.109 -0.115 -0.115
 0.548  1.386  0.241 -0.026 -0.108 -0.114 -0.114
 0.550  1.386  0.242 -0.025 -0.107 -0.113 -0.113
 0.552  1.387  0.243 -0.023 -0.106 -0.112 -0.112
 0.554  1.388  0.244 -0.023 -0.105 -0.112 -0.112
 0.556  1.388  0.245 -0.022 -0.105 -0.111 -0.111
 0.558  1.389  0.246 -0.021 -0.104 -0.110 -0.110
 0.560  1.389  0.247 -0.020 -0.103 -0.110 -0.110
 0.562  1.390  0.248 -0.020 -0.102 -0.108 -0.108
 0.564  1.390  0.248 -0.019 -0.101 -0.108 -0.108
 0.566  1.391  0.249 -0.018 -0.101 -0.107 -0.107
 0.568  1.391  0.250 -0.017 -0.100 -0.106 -0.106
 0.570  1.392  0.251 -0.017 -0.099 -0.106 -0.106
 0.572  1.392  0.252 -0.016 -0.098 -0.105 -0.105
 0.574  1.392  0.253 -0.015 -0.098 -0.104 -0.104
 0.576  1.393  0.253 -0.014 -0.097 -0.103 -0.103
 0.578  1.393  0.254 -0.014 -0.097 -0.103 -0.103
 0.580  1.393  0.256 -0.013 -0.095 -0.101 -0.101
 0.582  1.393  0.257 -0.012 -0.095 -0.101 -0.101
 0.584  1.394  0.257 -0.011 -0.094 -0.100 -0.100
 0.586  1.394  0.258 -0.011 -0.094 -0.100 -0.100
 0.588  1.394  0.259 -0.010 -0.093 -0.099 -0.099
 0.590  1.394  0.259 -0.009 -0.092 -0.098 -0.098
 0.592  1.394  0.260 -0.009 -0.092 -0.097 -0.097
 0.594  1.395  0.261 -0.008 -0.091 -0.097 -0.097
 0.596  1.395  0.261 -0.008 -0.091 -0.096 -0.096
 0.598  1.395  0.262 -0.007 -0.090 -0.096 -0.096
 0.600  1.395  0.262 -0.007 -0.089 -0.095 -0.095
 0.602  1.395  0.263 -0.006 -0.089 -0.094 -0.094
 0.604  1.395  0.263 -0.005 -0.088 -0.093 -0.093
 0.606  1.395  0.263 -0.005 -0.088 -0.093 -0.093
 0.608  1.395  0.264 -0.005 -0.087 -0.092 -0.092
 0.610  1.395  0.264 -0.004 -0.086 -0.092 -0.092
 0.612  1.395  0.264 -0.004 -0.086 -0.091 -0.091
 0.614  1.395  0.265 -0.003 -0.086 -0.091 -0.091
 0.616  1.395  0.265 -0.003 -0.085 -0.089 -0.089
 0.618  1.395  0.265 -0.003 -0.084 -0.089 -0.089
 0.620  1.395  0.265 -0.003 -0.084 -0.088 -0.088
 0.622  1.395  0.266 -0.002 -0.084 -0.088 -0.088
 0.624  1.395  0.266 -0.002 -0.083 -0.087 -0.087
 0.626  1.394  0.266 -0.001 -0.083 -0.087 -0.087
 0.628  1.394  0.266 -0.001 -0.082 -0.086 -0.086
 0.630  1.394  0.266 -0.001 -0.082 -0.085 -0.085
 0.632  1.394  0.266 -0.000 -0.081 -0.084 -0.084
 0.634  1.394  0.266 -0.000 -0.081 -0.084 -0.084
 0.636  1.393  0.266 -0.000 -0.081 -0.083 -0.083
 0.638  1.393  0.266  0.000 -0.080 -0.083 -0.083
 0.640  1.393  0.266  0.000 -0.080 -0.082 -0.082
 0.642  1.393  0.266  0.000 -0.080 -0.081 -0.081
 0.644  1.392  0.266  0.001 -0.079 -0.080 -0.080
 0.646  1.392  0.266  0.001 -0.079 -0.080 -0.080
 0.648  1.392  0.266  0.001 -0.078 -0.079 -0.079
 0.650  1.391  0.265  0.001 -0.078 -0.078 -0.078
 0.652  1.391  0.265  0.001 -0.078 -0.077 -0.077
 0.654  1.391  0.265  0.001 -0.078 -0.077 -0.077
 0.656  1.391  0.265  0.001 -0.077 -0.076 -0.076
 0.658  1.390  0.265  0.001 -0.077 -0.076 -0.076
 0.660  1.390  0.264  0.001 -0.077 -0.075 -0.075
 0.662  1.390  0.264  0.001 -0.077 -0.074 -0.074
 0.664  1.389  0.264  0.001 -0.077 -0.073 -0.073
 0.666  1.389  0.264  0.001 -0.077 -0.073 -0.073
 0.668  1.389  0.264  0.001 -0.076 -0.072 -0.072
 0.670  1.388  0.263  0.001 -0.076 -0.071 -0.071
 0.672  1.388  0.263  0.001 -0.076 -0.070 -0.070
 0.674  1.388  0.263  0.001 -0.075 -0.070 -0.070
 0.676  1.387  0.263  0.001 -0.075 -0.069 -0.069
 0.678  1.387  0.262  0.000 -0.075 -0.068 -0.068
 0.680  1.387  0.262  0.000 -0.075 -0.068 -0.068
 0.682  1.387  0.262  0.000 -0.075 -0.067 -0.067
 0.684  1.386  0.262  0.000 -0.075 -0.066 -0.066
 0.686  1.386  0.261 -0.000 -0.075 -0.065 -0.065
 0.688  1.386  0.261 -0.000 -0.075 -0.065 -0.065
 0.690  1.385  0.261 -0.000 -0.075 -0.064 -0.064
 0.692  1.385  0.260 -0.001 -0.075 -0.063 -0.063
 0.694  1.385  0.260 -0.001 -0.075 -0.062 -0.062
 0.696  1.384  0.260 -0.002 -0.075 -0.062 -0.062
 0.698  1.384  0.259 -0.002 -0.075 -0.061 -0.061
 0.700  1.384  0.259 -0.003 -0.075 -0.060 -0.060
 0.702  1.383  0.259 -0.003 -0.075 -0.059 -0.059
 0.704  1.383  0.258 -0.003 -0.075 -0.058 -0.058
 0.706  1.383  0.258 -0.003 -0.075 -0.058 -0.058
 0.708  1.383  0.258 -0.004 -0.074 -0.057 -0.057
 0.710  1.382  0.257 -0.005 -0.074 -0.056 -0.056
 0.712  1.382  0.257 -0.005 -0.074 -0.055 -0.055
 0.714  1.382  0.257 -0.005 -0.073 -0.054 -0.054
 0.716  1.381  0.256 -0.005 -0.072 -0.053 -0.053
 0.718  1.381  0.256 -0.006 -0.072 -0.052 -0.052
 0.720  1.381  0.256 -0.006 -0.071 -0.051 -0.051
 0.722  1.381  0.256 -0.006 -0.070 -0.050 -0.050
 0.724  1.380  0.256 -0.007 -0.069 -0.050 -0.050
 0.726  1.380  0.256 -0.007 -0.069 -0.049 -0.049
 0.728  1.380  0.256 -0.006 -0.067 -0.048 -0.048
 0.730  1.380  0.257 -0.006 -0.066 -0.047 -0.047
 0.732  1.379  0.257 -0.006 -0.066 -0.046 -0.046
 0.734  1.379  0.258 -0.005 -0.064 -0.045 -0.045
 0.736  1.379  0.259 -0.005 -0.063 -0.044 -0.044
 0.738  1.379  0.260 -0.005 -0.061 -0.043 -0.043
 0.740  1.378  0.262 -0.003 -0.060 -0.042 -0.042
 0.742  1.378  0.263 -0.003 -0.058 -0.041 -0.041
 0.744  1.378  0.265 -0.002 -0.057 -0.041 -0.041
 0.746  1.378  0.266 -0.000 -0.055 -0.039 -0.039
 0.748  1.378  0.268  0.000 -0.053 -0.038 -0.038
 0.750  1.378  0.270  0.002 -0.052 -0.037 -0.037
 0.752  1.377  0.272  0.003 -0.050 -0.036 -0.036
 0.754  1.377  0.274  0.005 -0.047 -0.035 -0.035
 0.756  1.377  0.276  0.006 -0.046 -0.034 -0.034
 0.758  1.377  0.279  0.008 -0.043 -0.032 -0.032
 0.760  1.377  0.282  0.009 -0.041 -0.031 -0.031
 0.762  1.377  0.284  0.012 -0.039 -0.030 -0.030
 0.764  1.377  0.287  0.013 -0.036 -0.028 -0.028
 0.766  1.377  0.290  0.015 -0.033 -0.026 -0.026
 0.768  1.377  0.293  0.017 -0.031 -0.024 -0.024
 0.770  1.377  0.297  0.020 -0.029 -0.023 -0.023
 0.772  1.377  0.301  0.022 -0.026 -0.021 -0.021
 0.774  1.377  0.305  0.025 -0.024 -0.019 -0.019
 0.776  1.376  0.309  0.028 -0.021 -0.016 -0.016
 0.778  1.376  0.313  0.030 -0.018 -0.015 -0.015
 0.780  1.376  0.317  0.033 -0.016 -0.012 -0.012
 0.782  1.376  0.321  0.036 -0.013 -0.009 -0.009
 0.784  1.376  0.326  0.039 -0.010 -0.007 -0.007
 0.786  1.376  0.330  0.042 -0.008 -0.004 -0.004
 0.788  1.376  0.335  0.045 -0.005 -0.002 -0.002
 0.790  1.377  0.339  0.048 -0.003  0.001  0.001
 0.792  1.377  0.343  0.051 -0.000  0.004  0.004
 0.794  1.378  0.348  0.054  0.002  0.007  0.007
 0.796  1.378  0.351  0.057  0.005  0.009  0.009
 0.798  1.379  0.355  0.060  0.007  0.012  0.012
 0.800  1.380  0.359  0.063  0.010  0.016  0.016
 0.802  1.381  0.362  0.066  0.012  0.019  0.019
 0.804  1.382  0.365  0.068  0.014  0.022  0.022
 0.806  1.383  0.369  0.071  0.016  0.026  0.026
 0.808  1.385  0.372  0.073  0.019  0.029  0.029
