# IsPeriodic    : True
# Period        : 0.497101 days
# Normalization : <g_mag>=0
# 
# Phase u_mag  g_mag  r_mag  i_mag  z_mag  y_mag
 0.000  0.164 -0.981 -0.799 -0.643 -0.557 -0.557
 0.002  0.164 -0.981 -0.799 -0.643 -0.557 -0.557
 0.004  0.164 -0.980 -0.799 -0.643 -0.557 -0.557
 0.006  0.166 -0.978 -0.798 -0.642 -0.556 -0.556
 0.008  0.167 -0.975 -0.797 -0.642 -0.556 -0.556
 0.010  0.170 -0.972 -0.795 -0.641 -0.555 -0.555
 0.012  0.172 -0.968 -0.792 -0.640 -0.555 -0.555
 0.014  0.175 -0.964 -0.790 -0.638 -0.554 -0.554
 0.016  0.178 -0.960 -0.788 -0.636 -0.553 -0.553
 0.018  0.182 -0.954 -0.786 -0.635 -0.552 -0.552
 0.020  0.186 -0.948 -0.783 -0.633 -0.550 -0.550
 0.022  0.189 -0.942 -0.780 -0.631 -0.549 -0.549
 0.024  0.194 -0.937 -0.777 -0.628 -0.548 -0.548
 0.026  0.200 -0.931 -0.774 -0.627 -0.545 -0.545
 0.028  0.204 -0.925 -0.771 -0.624 -0.544 -0.544
 0.030  0.209 -0.918 -0.767 -0.621 -0.542 -0.542
 0.032  0.214 -0.912 -0.763 -0.619 -0.540 -0.540
 0.034  0.220 -0.906 -0.760 -0.616 -0.537 -0.537
 0.036  0.226 -0.899 -0.755 -0.614 -0.535 -0.535
 0.038  0.232 -0.893 -0.751 -0.610 -0.533 -0.533
 0.040  0.238 -0.886 -0.748 -0.608 -0.530 -0.530
 0.042  0.245 -0.879 -0.742 -0.604 -0.527 -0.527
 0.044  0.253 -0.872 -0.738 -0.601 -0.525 -0.525
 0.046  0.260 -0.865 -0.733 -0.597 -0.522 -0.522
 0.048  0.268 -0.857 -0.728 -0.594 -0.519 -0.519
 0.050  0.275 -0.850 -0.722 -0.590 -0.515 -0.515
 0.052  0.284 -0.842 -0.717 -0.586 -0.512 -0.512
 0.054  0.293 -0.833 -0.712 -0.581 -0.508 -0.508
 0.056  0.301 -0.824 -0.705 -0.577 -0.505 -0.505
 0.058  0.310 -0.816 -0.699 -0.573 -0.501 -0.501
 0.060  0.319 -0.807 -0.693 -0.568 -0.497 -0.497
 0.062  0.329 -0.797 -0.686 -0.563 -0.492 -0.492
 0.064  0.340 -0.788 -0.680 -0.559 -0.488 -0.488
 0.066  0.349 -0.778 -0.673 -0.553 -0.483 -0.483
 0.068  0.360 -0.768 -0.667 -0.548 -0.479 -0.479
 0.070  0.371 -0.758 -0.659 -0.543 -0.475 -0.475
 0.072  0.381 -0.748 -0.652 -0.538 -0.470 -0.470
 0.074  0.393 -0.738 -0.645 -0.532 -0.465 -0.465
 0.076  0.403 -0.728 -0.638 -0.527 -0.461 -0.461
 0.078  0.415 -0.718 -0.631 -0.522 -0.457 -0.457
 0.080  0.425 -0.708 -0.624 -0.517 -0.452 -0.452
 0.082  0.437 -0.698 -0.616 -0.511 -0.447 -0.447
 0.084  0.447 -0.687 -0.609 -0.506 -0.443 -0.443
 0.086  0.458 -0.677 -0.602 -0.501 -0.439 -0.439
 0.088  0.468 -0.667 -0.596 -0.496 -0.435 -0.435
 0.090  0.478 -0.657 -0.589 -0.490 -0.430 -0.430
 0.092  0.489 -0.647 -0.582 -0.486 -0.426 -0.426
 0.094  0.499 -0.637 -0.576 -0.481 -0.422 -0.422
 0.096  0.508 -0.628 -0.569 -0.476 -0.419 -0.419
 0.098  0.518 -0.618 -0.563 -0.472 -0.415 -0.415
 0.100  0.527 -0.610 -0.556 -0.467 -0.411 -0.411
 0.102  0.536 -0.600 -0.551 -0.463 -0.408 -0.408
 0.104  0.545 -0.591 -0.544 -0.458 -0.404 -0.404
 0.106  0.554 -0.582 -0.539 -0.455 -0.401 -0.401
 0.108  0.563 -0.574 -0.533 -0.450 -0.398 -0.398
 0.110  0.571 -0.565 -0.527 -0.446 -0.395 -0.395
 0.112  0.580 -0.557 -0.521 -0.442 -0.392 -0.392
 0.114  0.588 -0.549 -0.516 -0.438 -0.389 -0.389
 0.116  0.596 -0.541 -0.510 -0.434 -0.385 -0.385
 0.118  0.604 -0.533 -0.505 -0.430 -0.382 -0.382
 0.120  0.613 -0.525 -0.499 -0.426 -0.379 -0.379
 0.122  0.620 -0.518 -0.494 -0.422 -0.377 -0.377
 0.124  0.627 -0.510 -0.488 -0.419 -0.374 -0.374
 0.126  0.635 -0.503 -0.484 -0.415 -0.371 -0.371
 0.128  0.642 -0.496 -0.478 -0.412 -0.369 -0.369
 0.130  0.650 -0.489 -0.474 -0.408 -0.367 -0.367
 0.132  0.655 -0.482 -0.470 -0.406 -0.364 -0.364
 0.134  0.663 -0.474 -0.465 -0.402 -0.362 -0.362
 0.136  0.669 -0.469 -0.460 -0.399 -0.360 -0.360
 0.138  0.676 -0.461 -0.455 -0.396 -0.358 -0.358
 0.140  0.682 -0.456 -0.451 -0.394 -0.356 -0.356
 0.142  0.688 -0.450 -0.448 -0.390 -0.354 -0.354
 0.144  0.694 -0.443 -0.443 -0.387 -0.352 -0.352
 0.146  0.700 -0.437 -0.439 -0.385 -0.350 -0.350
 0.148  0.706 -0.431 -0.435 -0.382 -0.349 -0.349
 0.150  0.712 -0.426 -0.430 -0.379 -0.346 -0.346
 0.152  0.717 -0.420 -0.427 -0.376 -0.345 -0.345
 0.154  0.723 -0.414 -0.423 -0.373 -0.343 -0.343
 0.156  0.729 -0.408 -0.418 -0.371 -0.341 -0.341
 0.158  0.735 -0.402 -0.415 -0.368 -0.339 -0.339
 0.160  0.741 -0.398 -0.411 -0.366 -0.337 -0.337
 0.162  0.745 -0.392 -0.406 -0.363 -0.335 -0.335
 0.164  0.751 -0.387 -0.403 -0.360 -0.334 -0.334
 0.166  0.757 -0.381 -0.399 -0.358 -0.331 -0.331
 0.168  0.763 -0.375 -0.395 -0.355 -0.330 -0.330
 0.170  0.769 -0.369 -0.391 -0.352 -0.327 -0.327
 0.172  0.775 -0.364 -0.387 -0.350 -0.326 -0.326
 0.174  0.781 -0.358 -0.383 -0.347 -0.323 -0.323
 0.176  0.785 -0.352 -0.379 -0.345 -0.322 -0.322
 0.178  0.791 -0.346 -0.376 -0.342 -0.320 -0.320
 0.180  0.797 -0.341 -0.371 -0.339 -0.318 -0.318
 0.182  0.803 -0.335 -0.367 -0.337 -0.316 -0.316
 0.184  0.809 -0.329 -0.364 -0.334 -0.313 -0.313
 0.186  0.815 -0.323 -0.359 -0.332 -0.312 -0.312
 0.188  0.821 -0.316 -0.356 -0.330 -0.309 -0.309
 0.190  0.825 -0.310 -0.352 -0.327 -0.308 -0.308
 0.192  0.831 -0.305 -0.348 -0.325 -0.305 -0.305
 0.194  0.837 -0.299 -0.344 -0.322 -0.303 -0.303
 0.196  0.843 -0.293 -0.341 -0.319 -0.302 -0.302
 0.198  0.849 -0.287 -0.337 -0.317 -0.299 -0.299
 0.200  0.855 -0.282 -0.333 -0.314 -0.298 -0.298
 0.202  0.859 -0.276 -0.330 -0.312 -0.295 -0.295
 0.204  0.865 -0.270 -0.325 -0.310 -0.293 -0.293
 0.206  0.871 -0.263 -0.322 -0.307 -0.291 -0.291
 0.208  0.877 -0.257 -0.319 -0.304 -0.289 -0.289
 0.210  0.881 -0.251 -0.314 -0.302 -0.287 -0.287
 0.212  0.887 -0.246 -0.311 -0.300 -0.284 -0.284
 0.214  0.893 -0.238 -0.307 -0.297 -0.283 -0.283
 0.216  0.899 -0.233 -0.303 -0.295 -0.280 -0.280
 0.218  0.905 -0.227 -0.300 -0.292 -0.278 -0.278
 0.220  0.909 -0.221 -0.296 -0.290 -0.276 -0.276
 0.222  0.915 -0.214 -0.292 -0.288 -0.274 -0.274
 0.224  0.921 -0.208 -0.289 -0.285 -0.272 -0.272
 0.226  0.925 -0.202 -0.286 -0.283 -0.269 -0.269
 0.228  0.931 -0.197 -0.282 -0.281 -0.268 -0.268
 0.230  0.937 -0.191 -0.278 -0.278 -0.265 -0.265
 0.232  0.942 -0.185 -0.275 -0.276 -0.263 -0.263
 0.234  0.948 -0.179 -0.272 -0.274 -0.262 -0.262
 0.236  0.952 -0.174 -0.268 -0.271 -0.259 -0.259
 0.238  0.958 -0.168 -0.265 -0.269 -0.257 -0.257
 0.240  0.962 -0.162 -0.262 -0.267 -0.255 -0.255
 0.242  0.968 -0.156 -0.257 -0.264 -0.253 -0.253
 0.244  0.973 -0.151 -0.254 -0.262 -0.251 -0.251
 0.246  0.977 -0.145 -0.251 -0.260 -0.249 -0.249
 0.248  0.983 -0.141 -0.248 -0.257 -0.247 -0.247
 0.250  0.987 -0.135 -0.244 -0.256 -0.245 -0.245
 0.252  0.992 -0.129 -0.241 -0.253 -0.243 -0.243
 0.254  0.998 -0.125 -0.238 -0.251 -0.241 -0.241
 0.256  1.002 -0.119 -0.236 -0.249 -0.239 -0.239
 0.258  1.007 -0.113 -0.232 -0.246 -0.237 -0.237
 0.260  1.011 -0.109 -0.229 -0.244 -0.235 -0.235
 0.262  1.015 -0.103 -0.226 -0.242 -0.233 -0.233
 0.264  1.021 -0.099 -0.222 -0.240 -0.231 -0.231
 0.266  1.026 -0.094 -0.219 -0.237 -0.229 -0.229
 0.268  1.030 -0.089 -0.216 -0.235 -0.227 -0.227
 0.270  1.035 -0.084 -0.214 -0.233 -0.225 -0.225
 0.272  1.039 -0.080 -0.210 -0.231 -0.223 -0.223
 0.274  1.043 -0.074 -0.207 -0.229 -0.221 -0.221
 0.276  1.048 -0.070 -0.204 -0.227 -0.219 -0.219
 0.278  1.052 -0.066 -0.202 -0.225 -0.217 -0.217
 0.280  1.057 -0.061 -0.198 -0.222 -0.215 -0.215
 0.282  1.061 -0.057 -0.195 -0.221 -0.213 -0.213
 0.284  1.064 -0.053 -0.193 -0.218 -0.211 -0.211
 0.286  1.068 -0.048 -0.190 -0.216 -0.210 -0.210
 0.288  1.073 -0.044 -0.186 -0.214 -0.207 -0.207
 0.290  1.077 -0.040 -0.184 -0.212 -0.206 -0.206
 0.292  1.082 -0.035 -0.181 -0.210 -0.204 -0.204
 0.294  1.086 -0.031 -0.179 -0.207 -0.202 -0.202
 0.296  1.089 -0.027 -0.175 -0.206 -0.200 -0.200
 0.298  1.094 -0.022 -0.173 -0.204 -0.198 -0.198
 0.300  1.098 -0.018 -0.170 -0.201 -0.197 -0.197
 0.302  1.102 -0.014 -0.167 -0.200 -0.194 -0.194
 0.304  1.105 -0.011 -0.164 -0.197 -0.193 -0.193
 0.306  1.110 -0.007 -0.161 -0.195 -0.190 -0.190
 0.308  1.114 -0.002 -0.159 -0.193 -0.189 -0.189
 0.310  1.119  0.002 -0.156 -0.191 -0.187 -0.187
 0.312  1.122  0.006 -0.154 -0.189 -0.185 -0.185
 0.314  1.126  0.009 -0.150 -0.187 -0.183 -0.183
 0.316  1.130  0.014 -0.147 -0.185 -0.182 -0.182
 0.318  1.135  0.018 -0.145 -0.182 -0.179 -0.179
 0.320  1.138  0.022 -0.141 -0.180 -0.178 -0.178
 0.322  1.142  0.026 -0.139 -0.178 -0.176 -0.176
 0.324  1.147  0.031 -0.136 -0.176 -0.174 -0.174
 0.326  1.150  0.034 -0.133 -0.173 -0.172 -0.172
 0.328  1.154  0.038 -0.131 -0.172 -0.171 -0.171
 0.330  1.158  0.042 -0.127 -0.169 -0.168 -0.168
 0.332  1.163  0.047 -0.125 -0.167 -0.167 -0.167
 0.334  1.166  0.049 -0.122 -0.165 -0.165 -0.165
 0.336  1.170  0.054 -0.120 -0.163 -0.163 -0.163
 0.338  1.175  0.058 -0.116 -0.160 -0.161 -0.161
 0.340  1.178  0.062 -0.114 -0.159 -0.160 -0.160
 0.342  1.182  0.067 -0.111 -0.156 -0.158 -0.158
 0.344  1.185  0.070 -0.108 -0.153 -0.156 -0.156
 0.346  1.189  0.074 -0.105 -0.152 -0.154 -0.154
 0.348  1.194  0.078 -0.102 -0.149 -0.153 -0.153
 0.350  1.197  0.081 -0.100 -0.147 -0.151 -0.151
 0.352  1.201  0.085 -0.097 -0.145 -0.149 -0.149
 0.354  1.206  0.090 -0.094 -0.143 -0.147 -0.147
 0.356  1.209  0.094 -0.091 -0.140 -0.146 -0.146
 0.358  1.213  0.097 -0.088 -0.138 -0.144 -0.144
 0.360  1.216  0.101 -0.086 -0.136 -0.142 -0.142
 0.362  1.220  0.106 -0.082 -0.133 -0.140 -0.140
 0.364  1.225  0.109 -0.080 -0.131 -0.139 -0.139
 0.366  1.228  0.113 -0.077 -0.129 -0.137 -0.137
 0.368  1.232  0.117 -0.075 -0.126 -0.135 -0.135
 0.370  1.235  0.121 -0.071 -0.124 -0.133 -0.133
 0.372  1.240  0.124 -0.069 -0.122 -0.131 -0.131
 0.374  1.243  0.129 -0.066 -0.120 -0.129 -0.129
 0.376  1.247  0.133 -0.064 -0.118 -0.128 -0.128
 0.378  1.250  0.136 -0.061 -0.116 -0.126 -0.126
 0.380  1.254  0.140 -0.058 -0.113 -0.124 -0.124
 0.382  1.257  0.144 -0.055 -0.111 -0.122 -0.122
 0.384  1.262  0.149 -0.053 -0.109 -0.120 -0.120
 0.386  1.265  0.152 -0.050 -0.107 -0.119 -0.119
 0.388  1.269  0.156 -0.047 -0.104 -0.117 -0.117
 0.390  1.272  0.160 -0.044 -0.103 -0.115 -0.115
 0.392  1.276  0.165 -0.042 -0.100 -0.113 -0.113
 0.394  1.279  0.168 -0.039 -0.098 -0.111 -0.111
 0.396  1.284  0.172 -0.036 -0.097 -0.110 -0.110
 0.398  1.287  0.176 -0.033 -0.094 -0.108 -0.108
 0.400  1.291  0.179 -0.031 -0.092 -0.106 -0.106
 0.402  1.294  0.183 -0.028 -0.090 -0.104 -0.104
 0.404  1.299  0.188 -0.026 -0.088 -0.102 -0.102
 0.406  1.302  0.192 -0.022 -0.086 -0.100 -0.100
 0.408  1.304  0.195 -0.020 -0.083 -0.099 -0.099
 0.410  1.309  0.199 -0.017 -0.082 -0.096 -0.096
 0.412  1.312  0.204 -0.015 -0.080 -0.095 -0.095
 0.414  1.315  0.208 -0.011 -0.077 -0.092 -0.092
 0.416  1.319  0.211 -0.009 -0.076 -0.091 -0.091
 0.418  1.322  0.215 -0.007 -0.074 -0.089 -0.089
 0.420  1.327  0.219 -0.004 -0.071 -0.087 -0.087
 0.422  1.330  0.224 -0.001 -0.069 -0.085 -0.085
 0.424  1.333  0.228  0.002 -0.068 -0.083 -0.083
 0.426  1.337  0.231  0.004 -0.066 -0.081 -0.081
 0.428  1.340  0.235  0.007 -0.063 -0.079 -0.079
 0.430  1.343  0.239  0.010 -0.062 -0.077 -0.077
 0.432  1.346  0.244  0.012 -0.060 -0.075 -0.075
 0.434  1.350  0.247  0.015 -0.058 -0.073 -0.073
 0.436  1.353  0.251  0.017 -0.056 -0.072 -0.072
 0.438  1.356  0.255  0.020 -0.054 -0.070 -0.070
 0.440  1.359  0.260  0.023 -0.052 -0.068 -0.068
 0.442  1.363  0.263  0.025 -0.050 -0.066 -0.066
 0.444  1.366  0.267  0.028 -0.049 -0.064 -0.064
 0.446  1.369  0.270  0.030 -0.046 -0.062 -0.062
 0.448  1.372  0.274  0.032 -0.044 -0.060 -0.060
 0.450  1.375  0.277  0.035 -0.042 -0.059 -0.059
 0.452  1.378  0.281  0.038 -0.041 -0.057 -0.057
 0.454  1.381  0.284  0.040 -0.039 -0.055 -0.055
 0.456  1.384  0.287  0.042 -0.036 -0.053 -0.053
 0.458  1.387  0.291  0.045 -0.035 -0.052 -0.052
 0.460  1.390  0.294  0.048 -0.033 -0.049 -0.049
 0.462  1.393  0.297  0.050 -0.031 -0.048 -0.048
 0.464  1.396  0.300  0.052 -0.028 -0.046 -0.046
 0.466  1.399  0.303  0.054 -0.027 -0.044 -0.044
 0.468  1.402  0.306  0.057 -0.025 -0.042 -0.042
 0.470  1.405  0.309  0.059 -0.023 -0.041 -0.041
 0.472  1.408  0.311  0.062 -0.021 -0.039 -0.039
 0.474  1.411  0.314  0.064 -0.019 -0.037 -0.037
 0.476  1.414  0.317  0.066 -0.017 -0.035 -0.035
 0.478  1.415  0.320  0.069 -0.015 -0.033 -0.033
 0.480  1.418  0.322  0.071 -0.014 -0.032 -0.032
 0.482  1.421  0.324  0.073 -0.012 -0.030 -0.030
 0.484  1.424  0.327  0.075 -0.009 -0.029 -0.029
 0.486  1.425  0.329  0.077 -0.007 -0.027 -0.027
 0.488  1.428  0.332  0.080 -0.006 -0.025 -0.025
 0.490  1.431  0.333  0.082 -0.004 -0.023 -0.023
 0.492  1.433  0.336  0.084 -0.001 -0.022 -0.022
 0.494  1.436  0.337  0.086  0.000 -0.020 -0.020
 0.496  1.439  0.339  0.088  0.002 -0.019 -0.019
 0.498  1.440  0.342  0.090  0.004 -0.017 -0.017
 0.500  1.443  0.343  0.093  0.006 -0.015 -0.015
 0.502  1.445  0.345  0.095  0.008 -0.014 -0.014
 0.504  1.448  0.346  0.097  0.010 -0.012 -0.012
 0.506  1.449  0.347  0.099  0.012 -0.011 -0.011
 0.508  1.452  0.349  0.100  0.014 -0.009 -0.009
 0.510  1.453  0.350  0.103  0.015 -0.008 -0.008
 0.512  1.456  0.352  0.105  0.017 -0.006 -0.006
 0.514  1.458  0.353  0.107  0.019 -0.004 -0.004
 0.516  1.459  0.355  0.108  0.020 -0.003 -0.003
 0.518  1.461  0.356  0.110  0.022 -0.001 -0.001
 0.520  1.464  0.358  0.112  0.024 -0.001 -0.001
 0.522  1.465  0.359  0.113  0.026  0.001  0.001
 0.524  1.467  0.360  0.116  0.027  0.003  0.003
 0.526  1.468  0.362  0.117  0.028  0.004  0.004
 0.528  1.470  0.363  0.119  0.030  0.006  0.006
 0.530  1.471  0.363  0.120  0.031  0.006  0.006
 0.532  1.473  0.365  0.122  0.033  0.008  0.008
 0.534  1.474  0.366  0.123  0.034  0.010  0.010
 0.536  1.476  0.368  0.125  0.035  0.010  0.010
 0.538  1.477  0.368  0.127  0.036  0.012  0.012
 0.540  1.479  0.369  0.128  0.038  0.013  0.013
 0.542  1.480  0.370  0.130  0.039  0.014  0.014
 0.544  1.481  0.370  0.131  0.040  0.015  0.015
 0.546  1.483  0.372  0.132  0.041  0.017  0.017
 0.548  1.484  0.372  0.133  0.042  0.017  0.017
 0.550  1.484  0.373  0.134  0.043  0.019  0.019
 0.552  1.486  0.373  0.136  0.044  0.020  0.020
 0.554  1.487  0.375  0.138  0.045  0.021  0.021
 0.556  1.487  0.375  0.139  0.046  0.022  0.022
 0.558  1.489  0.376  0.140  0.047  0.023  0.023
 0.560  1.489  0.376  0.141  0.048  0.025  0.025
 0.562  1.490  0.376  0.142  0.048  0.025  0.025
 0.564  1.490  0.378  0.143  0.049  0.026  0.026
 0.566  1.492  0.378  0.144  0.050  0.027  0.027
 0.568  1.492  0.378  0.145  0.051  0.028  0.028
 0.570  1.493  0.379  0.145  0.051  0.029  0.029
 0.572  1.493  0.379  0.146  0.052  0.030  0.030
 0.574  1.493  0.379  0.147  0.053  0.031  0.031
 0.576  1.495  0.379  0.148  0.053  0.032  0.032
 0.578  1.495  0.379  0.148  0.054  0.033  0.033
 0.580  1.495  0.381  0.150  0.055  0.034  0.034
 0.582  1.495  0.381  0.151  0.055  0.035  0.035
 0.584  1.496  0.381  0.151  0.055  0.035  0.035
 0.586  1.496  0.381  0.152  0.055  0.036  0.036
 0.588  1.496  0.381  0.152  0.056  0.037  0.037
 0.590  1.496  0.381  0.153  0.056  0.038  0.038
 0.592  1.496  0.381  0.153  0.057  0.039  0.039
 0.594  1.498  0.381  0.154  0.057  0.039  0.039
 0.596  1.498  0.381  0.154  0.058  0.040  0.040
 0.598  1.498  0.381  0.155  0.058  0.041  0.041
 0.600  1.498  0.381  0.155  0.059  0.042  0.042
 0.602  1.498  0.381  0.155  0.059  0.042  0.042
 0.604  1.498  0.381  0.155  0.060  0.043  0.043
 0.606  1.498  0.381  0.156  0.060  0.043  0.043
 0.608  1.498  0.381  0.156  0.061  0.044  0.044
 0.610  1.498  0.381  0.156  0.061  0.045  0.045
 0.612  1.498  0.381  0.156  0.061  0.046  0.046
 0.614  1.498  0.381  0.156  0.062  0.046  0.046
 0.616  1.498  0.381  0.156  0.062  0.046  0.046
 0.618  1.498  0.381  0.156  0.062  0.047  0.047
 0.620  1.498  0.381  0.156  0.062  0.048  0.048
 0.622  1.498  0.381  0.156  0.062  0.048  0.048
 0.624  1.498  0.381  0.156  0.062  0.049  0.049
 0.626  1.496  0.381  0.156  0.063  0.050  0.050
 0.628  1.496  0.381  0.155  0.063  0.050  0.050
 0.630  1.496  0.381  0.155  0.063  0.050  0.050
 0.632  1.496  0.381  0.155  0.063  0.051  0.051
 0.634  1.496  0.379  0.154  0.064  0.051  0.051
 0.636  1.495  0.379  0.154  0.064  0.052  0.052
 0.638  1.495  0.379  0.154  0.064  0.052  0.052
 0.640  1.495  0.379  0.153  0.064  0.053  0.053
 0.642  1.495  0.379  0.153  0.064  0.053  0.053
 0.644  1.493  0.379  0.152  0.065  0.054  0.054
 0.646  1.493  0.378  0.152  0.065  0.054  0.054
 0.648  1.493  0.378  0.151  0.065  0.054  0.054
 0.650  1.492  0.378  0.151  0.065  0.054  0.054
 0.652  1.492  0.378  0.150  0.065  0.055  0.055
 0.654  1.492  0.376  0.150  0.065  0.056  0.056
 0.656  1.492  0.376  0.148  0.066  0.056  0.056
 0.658  1.490  0.376  0.148  0.066  0.057  0.057
 0.660  1.490  0.376  0.148  0.066  0.057  0.057
 0.662  1.490  0.375  0.147  0.066  0.057  0.057
 0.664  1.489  0.375  0.147  0.066  0.057  0.057
 0.666  1.489  0.375  0.146  0.067  0.058  0.058
 0.668  1.489  0.373  0.146  0.067  0.059  0.059
 0.670  1.487  0.373  0.145  0.067  0.059  0.059
 0.672  1.487  0.373  0.145  0.067  0.060  0.060
 0.674  1.487  0.372  0.145  0.067  0.061  0.061
 0.676  1.486  0.372  0.144  0.068  0.061  0.061
 0.678  1.486  0.372  0.144  0.068  0.061  0.061
 0.680  1.486  0.370  0.144  0.068  0.062  0.062
 0.682  1.486  0.370  0.143  0.068  0.062  0.062
 0.684  1.484  0.369  0.143  0.069  0.063  0.063
 0.686  1.484  0.369  0.143  0.069  0.064  0.064
 0.688  1.484  0.369  0.143  0.069  0.064  0.064
 0.690  1.483  0.368  0.142  0.069  0.064  0.064
 0.692  1.483  0.368  0.142  0.069  0.065  0.065
 0.694  1.483  0.366  0.142  0.069  0.066  0.066
 0.696  1.481  0.366  0.142  0.069  0.066  0.066
 0.698  1.481  0.365  0.142  0.070  0.067  0.067
 0.700  1.481  0.365  0.141  0.070  0.068  0.068
 0.702  1.480  0.363  0.141  0.070  0.068  0.068
 0.704  1.480  0.363  0.141  0.070  0.068  0.068
 0.706  1.480  0.362  0.141  0.071  0.069  0.069
 0.708  1.480  0.362  0.141  0.071  0.070  0.070
 0.710  1.479  0.360  0.141  0.071  0.071  0.071
 0.712  1.479  0.360  0.141  0.072  0.072  0.072
 0.714  1.479  0.359  0.140  0.072  0.072  0.072
 0.716  1.477  0.359  0.140  0.072  0.072  0.072
 0.718  1.477  0.358  0.140  0.073  0.073  0.073
 0.720  1.477  0.356  0.140  0.073  0.074  0.074
 0.722  1.477  0.356  0.140  0.073  0.075  0.075
 0.724  1.476  0.355  0.140  0.074  0.075  0.075
 0.726  1.476  0.355  0.140  0.074  0.076  0.076
 0.728  1.476  0.353  0.140  0.074  0.077  0.077
 0.730  1.476  0.353  0.140  0.075  0.078  0.078
 0.732  1.474  0.353  0.140  0.075  0.079  0.079
 0.734  1.474  0.353  0.140  0.075  0.079  0.079
 0.736  1.474  0.352  0.140  0.076  0.080  0.080
 0.738  1.474  0.352  0.140  0.076  0.081  0.081
 0.740  1.473  0.352  0.140  0.076  0.083  0.083
 0.742  1.473  0.352  0.139  0.076  0.083  0.083
 0.744  1.473  0.352  0.139  0.076  0.084  0.084
 0.746  1.473  0.352  0.139  0.076  0.085  0.085
 0.748  1.473  0.352  0.139  0.076  0.086  0.086
 0.750  1.473  0.353  0.139  0.077  0.087  0.087
 0.752  1.471  0.353  0.139  0.077  0.088  0.088
 0.754  1.471  0.353  0.139  0.077  0.090  0.090
 0.756  1.471  0.353  0.139  0.078  0.090  0.090
 0.758  1.471  0.355  0.139  0.078  0.092  0.092
 0.760  1.471  0.355  0.139  0.078  0.093  0.093
 0.762  1.471  0.356  0.139  0.079  0.094  0.094
 0.764  1.471  0.356  0.139  0.079  0.095  0.095
 0.766  1.471  0.358  0.139  0.079  0.097  0.097
 0.768  1.471  0.359  0.139  0.080  0.098  0.098
 0.770  1.471  0.359  0.139  0.080  0.099  0.099
 0.772  1.471  0.360  0.139  0.080  0.101  0.101
 0.774  1.471  0.362  0.139  0.080  0.101  0.101
 0.776  1.470  0.363  0.139  0.081  0.103  0.103
 0.778  1.470  0.365  0.139  0.081  0.104  0.104
 0.780  1.470  0.366  0.138  0.081  0.106  0.106
 0.782  1.470  0.368  0.138  0.081  0.107  0.107
 0.784  1.470  0.369  0.138  0.081  0.108  0.108
 0.786  1.470  0.372  0.139  0.082  0.110  0.110
 0.788  1.470  0.373  0.139  0.082  0.112  0.112
 0.790  1.471  0.375  0.139  0.083  0.113  0.113
 0.792  1.471  0.376  0.139  0.083  0.115  0.115
 0.794  1.473  0.379  0.140  0.084  0.117  0.117
 0.796  1.473  0.381  0.141  0.085  0.119  0.119
 0.798  1.474  0.382  0.141  0.086  0.120  0.120
 0.800  1.476  0.385  0.143  0.087  0.122  0.122
 0.802  1.477  0.386  0.144  0.089  0.125  0.125
 0.804  1.479  0.388  0.145  0.090  0.126  0.126
 0.806  1.480  0.391  0.147  0.091  0.129  0.129
 0.808  1.483  0.392  0.148  0.094  0.131  0.131
