# IsPeriodic    : True
# Period        : 0.569477 days
# Normalization : <g_mag>=0
# 
# Phase u_mag  g_mag  r_mag  i_mag  z_mag  y_mag
0 0.451 -0.714 -0.639 -0.530 -0.499 -0.499
0.00113895 0.452 -0.714 -0.639 -0.530 -0.499 -0.499
0.00227791 0.453 -0.714 -0.639 -0.529 -0.498 -0.498
0.00341686 0.454 -0.712 -0.639 -0.529 -0.497 -0.497
0.00455582 0.457 -0.711 -0.639 -0.528 -0.496 -0.496
0.00569477 0.460 -0.709 -0.638 -0.528 -0.494 -0.494
0.00683372 0.464 -0.708 -0.637 -0.527 -0.492 -0.492
0.00797268 0.467 -0.706 -0.636 -0.526 -0.489 -0.489
0.00911163 0.472 -0.703 -0.635 -0.525 -0.487 -0.487
0.0102506 0.476 -0.701 -0.634 -0.525 -0.484 -0.484
0.0113895 0.481 -0.698 -0.633 -0.523 -0.481 -0.481
0.0125285 0.486 -0.695 -0.631 -0.522 -0.478 -0.478
0.0136674 0.491 -0.692 -0.630 -0.521 -0.476 -0.476
0.0148064 0.497 -0.689 -0.627 -0.520 -0.473 -0.473
0.0159454 0.501 -0.685 -0.625 -0.518 -0.470 -0.470
0.0170843 0.506 -0.682 -0.623 -0.516 -0.467 -0.467
0.0182233 0.510 -0.678 -0.621 -0.514 -0.465 -0.465
0.0193622 0.516 -0.675 -0.619 -0.512 -0.462 -0.462
0.0205012 0.520 -0.672 -0.616 -0.510 -0.460 -0.460
0.0216401 0.525 -0.667 -0.613 -0.509 -0.457 -0.457
0.0227791 0.530 -0.664 -0.611 -0.506 -0.455 -0.455
0.023918 0.535 -0.659 -0.607 -0.503 -0.452 -0.452
0.025057 0.540 -0.655 -0.604 -0.501 -0.451 -0.451
0.0261959 0.545 -0.650 -0.601 -0.498 -0.448 -0.448
0.0273349 0.550 -0.645 -0.597 -0.496 -0.446 -0.446
0.0284739 0.556 -0.640 -0.593 -0.492 -0.443 -0.443
0.0296128 0.561 -0.635 -0.590 -0.489 -0.441 -0.441
0.0307518 0.567 -0.630 -0.586 -0.486 -0.438 -0.438
0.0318907 0.573 -0.624 -0.582 -0.483 -0.436 -0.436
0.0330297 0.578 -0.618 -0.577 -0.480 -0.433 -0.433
0.0341686 0.584 -0.611 -0.573 -0.477 -0.431 -0.431
0.0353076 0.590 -0.606 -0.568 -0.474 -0.429 -0.429
0.0364465 0.595 -0.600 -0.563 -0.470 -0.426 -0.426
0.0375855 0.602 -0.593 -0.559 -0.467 -0.424 -0.424
0.0387244 0.608 -0.586 -0.553 -0.464 -0.421 -0.421
0.0398634 0.615 -0.580 -0.548 -0.461 -0.419 -0.419
0.0410023 0.621 -0.573 -0.543 -0.457 -0.416 -0.416
0.0421413 0.627 -0.566 -0.538 -0.454 -0.414 -0.414
0.0432803 0.633 -0.559 -0.532 -0.451 -0.412 -0.412
0.0444192 0.640 -0.552 -0.527 -0.448 -0.409 -0.409
0.0455582 0.646 -0.546 -0.522 -0.446 -0.407 -0.407
0.0466971 0.652 -0.539 -0.517 -0.442 -0.405 -0.405
0.0478361 0.659 -0.532 -0.512 -0.440 -0.403 -0.403
0.048975 0.665 -0.525 -0.507 -0.437 -0.400 -0.400
0.050114 0.672 -0.518 -0.502 -0.434 -0.398 -0.398
0.0512529 0.677 -0.512 -0.498 -0.431 -0.396 -0.396
0.0523919 0.684 -0.505 -0.493 -0.429 -0.394 -0.394
0.0535308 0.690 -0.498 -0.489 -0.426 -0.392 -0.392
0.0546698 0.697 -0.492 -0.484 -0.424 -0.390 -0.390
0.0558087 0.702 -0.485 -0.480 -0.421 -0.387 -0.387
0.0569477 0.708 -0.480 -0.475 -0.418 -0.386 -0.386
0.0580867 0.715 -0.473 -0.471 -0.416 -0.383 -0.383
0.0592256 0.721 -0.467 -0.467 -0.414 -0.381 -0.381
0.0603646 0.726 -0.460 -0.464 -0.411 -0.379 -0.379
0.0615035 0.732 -0.455 -0.460 -0.409 -0.377 -0.377
0.0626425 0.738 -0.449 -0.456 -0.407 -0.375 -0.375
0.0637814 0.743 -0.442 -0.452 -0.405 -0.373 -0.373
0.0649204 0.749 -0.437 -0.448 -0.403 -0.371 -0.371
0.0660593 0.755 -0.431 -0.445 -0.400 -0.369 -0.369
0.0671983 0.759 -0.425 -0.442 -0.398 -0.367 -0.367
0.0683372 0.765 -0.420 -0.438 -0.396 -0.365 -0.365
0.0694762 0.771 -0.414 -0.435 -0.394 -0.363 -0.363
0.0706151 0.775 -0.408 -0.432 -0.392 -0.362 -0.362
0.0717541 0.781 -0.403 -0.429 -0.390 -0.360 -0.360
0.0728931 0.785 -0.398 -0.425 -0.388 -0.358 -0.358
0.074032 0.791 -0.392 -0.423 -0.387 -0.357 -0.357
0.075171 0.796 -0.387 -0.419 -0.385 -0.355 -0.355
0.0763099 0.800 -0.382 -0.417 -0.383 -0.353 -0.353
0.0774489 0.806 -0.377 -0.415 -0.381 -0.351 -0.351
0.0785878 0.810 -0.372 -0.412 -0.379 -0.349 -0.349
0.0797268 0.815 -0.366 -0.410 -0.377 -0.348 -0.348
0.0808657 0.820 -0.362 -0.407 -0.375 -0.346 -0.346
0.0820047 0.824 -0.357 -0.405 -0.374 -0.344 -0.344
0.0831436 0.829 -0.352 -0.402 -0.372 -0.343 -0.343
0.0842826 0.833 -0.347 -0.400 -0.370 -0.341 -0.341
0.0854215 0.838 -0.342 -0.397 -0.368 -0.340 -0.340
0.0865605 0.842 -0.338 -0.395 -0.366 -0.338 -0.338
0.0876995 0.847 -0.333 -0.392 -0.364 -0.337 -0.337
0.0888384 0.851 -0.328 -0.390 -0.363 -0.335 -0.335
0.0899774 0.856 -0.323 -0.387 -0.361 -0.334 -0.334
0.0911163 0.859 -0.319 -0.385 -0.359 -0.332 -0.332
0.0922553 0.864 -0.314 -0.382 -0.357 -0.331 -0.331
0.0933942 0.868 -0.310 -0.380 -0.355 -0.329 -0.329
0.0945332 0.873 -0.305 -0.377 -0.353 -0.328 -0.328
0.0956721 0.878 -0.301 -0.375 -0.352 -0.327 -0.327
0.0968111 0.881 -0.296 -0.372 -0.350 -0.325 -0.325
0.09795 0.886 -0.291 -0.369 -0.348 -0.323 -0.323
0.099089 0.890 -0.286 -0.367 -0.346 -0.322 -0.322
0.100228 0.895 -0.281 -0.364 -0.344 -0.320 -0.320
0.101367 0.899 -0.277 -0.361 -0.343 -0.319 -0.319
0.102506 0.903 -0.272 -0.359 -0.341 -0.317 -0.317
0.103645 0.907 -0.268 -0.356 -0.339 -0.315 -0.315
0.104784 0.912 -0.263 -0.353 -0.337 -0.314 -0.314
0.105923 0.916 -0.259 -0.350 -0.336 -0.312 -0.312
0.107062 0.921 -0.254 -0.347 -0.334 -0.311 -0.311
0.108201 0.925 -0.251 -0.345 -0.332 -0.309 -0.309
0.10934 0.930 -0.246 -0.341 -0.330 -0.307 -0.307
0.110479 0.933 -0.242 -0.339 -0.328 -0.306 -0.306
0.111617 0.938 -0.237 -0.335 -0.327 -0.304 -0.304
0.112756 0.942 -0.232 -0.332 -0.325 -0.303 -0.303
0.113895 0.947 -0.228 -0.330 -0.323 -0.301 -0.301
0.115034 0.951 -0.223 -0.326 -0.321 -0.299 -0.299
0.116173 0.955 -0.219 -0.323 -0.320 -0.298 -0.298
0.117312 0.959 -0.215 -0.321 -0.318 -0.296 -0.296
0.118451 0.964 -0.211 -0.317 -0.316 -0.295 -0.295
0.11959 0.969 -0.206 -0.314 -0.314 -0.293 -0.293
0.120729 0.973 -0.202 -0.311 -0.313 -0.291 -0.291
0.121868 0.978 -0.197 -0.307 -0.311 -0.290 -0.290
0.123007 0.982 -0.194 -0.305 -0.309 -0.288 -0.288
0.124146 0.987 -0.189 -0.302 -0.307 -0.287 -0.287
0.125285 0.990 -0.185 -0.298 -0.305 -0.285 -0.285
0.126424 0.995 -0.180 -0.295 -0.303 -0.283 -0.283
0.127563 0.999 -0.177 -0.292 -0.302 -0.282 -0.282
0.128702 1.004 -0.172 -0.289 -0.300 -0.280 -0.280
0.129841 1.008 -0.168 -0.286 -0.298 -0.278 -0.278
0.13098 1.013 -0.164 -0.284 -0.297 -0.277 -0.277
0.132119 1.016 -0.160 -0.280 -0.295 -0.275 -0.275
0.133258 1.021 -0.156 -0.278 -0.293 -0.273 -0.273
0.134397 1.025 -0.152 -0.274 -0.292 -0.271 -0.271
0.135536 1.029 -0.148 -0.272 -0.290 -0.270 -0.270
0.136674 1.033 -0.144 -0.269 -0.288 -0.268 -0.268
0.137813 1.038 -0.141 -0.266 -0.287 -0.267 -0.267
0.138952 1.041 -0.136 -0.264 -0.285 -0.265 -0.265
0.140091 1.046 -0.133 -0.261 -0.283 -0.263 -0.263
0.14123 1.049 -0.128 -0.259 -0.281 -0.262 -0.262
0.142369 1.054 -0.125 -0.256 -0.279 -0.260 -0.260
0.143508 1.057 -0.120 -0.253 -0.278 -0.259 -0.259
0.144647 1.062 -0.117 -0.251 -0.276 -0.257 -0.257
0.145786 1.065 -0.113 -0.248 -0.275 -0.256 -0.256
0.146925 1.070 -0.109 -0.246 -0.273 -0.254 -0.254
0.148064 1.073 -0.105 -0.243 -0.271 -0.253 -0.253
0.149203 1.077 -0.102 -0.241 -0.270 -0.251 -0.251
0.150342 1.081 -0.099 -0.239 -0.268 -0.250 -0.250
0.151481 1.085 -0.094 -0.237 -0.266 -0.248 -0.248
0.15262 1.088 -0.091 -0.234 -0.265 -0.247 -0.247
0.153759 1.093 -0.087 -0.232 -0.263 -0.245 -0.245
0.154898 1.096 -0.084 -0.230 -0.261 -0.244 -0.244
0.156037 1.099 -0.080 -0.228 -0.260 -0.242 -0.242
0.157176 1.103 -0.076 -0.226 -0.258 -0.241 -0.241
0.158315 1.106 -0.072 -0.223 -0.256 -0.239 -0.239
0.159454 1.110 -0.069 -0.222 -0.255 -0.238 -0.238
0.160593 1.113 -0.066 -0.219 -0.253 -0.237 -0.237
0.161731 1.116 -0.062 -0.218 -0.252 -0.235 -0.235
0.16287 1.120 -0.059 -0.215 -0.250 -0.234 -0.234
0.164009 1.123 -0.055 -0.214 -0.248 -0.232 -0.232
0.165148 1.127 -0.052 -0.212 -0.246 -0.231 -0.231
0.166287 1.130 -0.049 -0.209 -0.245 -0.230 -0.230
0.167426 1.133 -0.045 -0.208 -0.243 -0.228 -0.228
0.168565 1.137 -0.042 -0.205 -0.241 -0.227 -0.227
0.169704 1.140 -0.038 -0.204 -0.240 -0.226 -0.226
0.170843 1.144 -0.035 -0.202 -0.238 -0.224 -0.224
0.171982 1.146 -0.032 -0.200 -0.237 -0.223 -0.223
0.173121 1.149 -0.028 -0.198 -0.235 -0.222 -0.222
0.17426 1.153 -0.025 -0.195 -0.233 -0.220 -0.220
0.175399 1.156 -0.021 -0.194 -0.231 -0.219 -0.219
0.176538 1.160 -0.018 -0.191 -0.229 -0.218 -0.218
0.177677 1.162 -0.015 -0.190 -0.228 -0.216 -0.216
0.178816 1.165 -0.011 -0.187 -0.226 -0.215 -0.215
0.179955 1.169 -0.008 -0.185 -0.225 -0.214 -0.214
0.181094 1.172 -0.004 -0.183 -0.223 -0.212 -0.212
0.182233 1.174 0.000 -0.181 -0.221 -0.211 -0.211
0.183372 1.178 0.004 -0.178 -0.220 -0.210 -0.210
0.184511 1.181 0.007 -0.176 -0.218 -0.209 -0.209
0.18565 1.185 0.010 -0.174 -0.216 -0.207 -0.207
0.186788 1.187 0.014 -0.172 -0.215 -0.205 -0.205
0.187927 1.190 0.017 -0.170 -0.213 -0.204 -0.204
0.189066 1.194 0.021 -0.167 -0.211 -0.203 -0.203
0.190205 1.196 0.024 -0.165 -0.209 -0.201 -0.201
0.191344 1.199 0.029 -0.162 -0.207 -0.200 -0.200
0.192483 1.203 0.032 -0.161 -0.206 -0.199 -0.199
0.193622 1.205 0.035 -0.158 -0.204 -0.197 -0.197
0.194761 1.209 0.039 -0.156 -0.202 -0.196 -0.196
0.1959 1.212 0.042 -0.153 -0.201 -0.194 -0.194
0.197039 1.214 0.046 -0.151 -0.199 -0.193 -0.193
0.198178 1.218 0.050 -0.148 -0.197 -0.191 -0.191
0.199317 1.221 0.053 -0.146 -0.196 -0.190 -0.190
0.200456 1.223 0.057 -0.144 -0.194 -0.189 -0.189
0.201595 1.227 0.060 -0.142 -0.192 -0.187 -0.187
0.202734 1.229 0.064 -0.139 -0.190 -0.186 -0.186
0.203873 1.232 0.068 -0.137 -0.189 -0.185 -0.185
0.205012 1.236 0.072 -0.134 -0.187 -0.183 -0.183
0.206151 1.238 0.075 -0.132 -0.185 -0.181 -0.181
0.20729 1.242 0.078 -0.130 -0.183 -0.180 -0.180
0.208429 1.244 0.082 -0.127 -0.181 -0.178 -0.178
0.209568 1.247 0.085 -0.125 -0.179 -0.177 -0.177
0.210706 1.249 0.089 -0.122 -0.178 -0.175 -0.175
0.211845 1.253 0.092 -0.120 -0.176 -0.174 -0.174
0.212984 1.255 0.095 -0.117 -0.174 -0.173 -0.173
0.214123 1.259 0.099 -0.115 -0.172 -0.171 -0.171
0.215262 1.261 0.102 -0.113 -0.171 -0.170 -0.170
0.216401 1.264 0.106 -0.111 -0.169 -0.168 -0.168
0.21754 1.267 0.109 -0.108 -0.167 -0.167 -0.167
0.218679 1.270 0.112 -0.106 -0.165 -0.165 -0.165
0.219818 1.272 0.115 -0.104 -0.164 -0.164 -0.164
0.220957 1.276 0.118 -0.102 -0.162 -0.162 -0.162
0.222096 1.278 0.122 -0.099 -0.160 -0.161 -0.161
0.223235 1.281 0.124 -0.097 -0.159 -0.159 -0.159
0.224374 1.284 0.127 -0.095 -0.157 -0.158 -0.158
0.225513 1.287 0.131 -0.092 -0.155 -0.157 -0.157
0.226652 1.289 0.133 -0.090 -0.153 -0.155 -0.155
0.227791 1.292 0.136 -0.088 -0.151 -0.154 -0.154
0.22893 1.295 0.139 -0.086 -0.150 -0.153 -0.153
0.230069 1.297 0.142 -0.083 -0.148 -0.151 -0.151
0.231208 1.301 0.144 -0.082 -0.146 -0.150 -0.150
0.232347 1.303 0.147 -0.079 -0.144 -0.148 -0.148
0.233486 1.305 0.150 -0.077 -0.142 -0.146 -0.146
0.234625 1.309 0.152 -0.075 -0.141 -0.145 -0.145
0.235763 1.311 0.154 -0.073 -0.139 -0.144 -0.144
0.236902 1.313 0.157 -0.071 -0.137 -0.142 -0.142
0.238041 1.317 0.159 -0.069 -0.135 -0.141 -0.141
0.23918 1.319 0.161 -0.067 -0.133 -0.140 -0.140
0.240319 1.321 0.165 -0.064 -0.131 -0.138 -0.138
0.241458 1.325 0.167 -0.063 -0.130 -0.137 -0.137
0.242597 1.327 0.169 -0.060 -0.128 -0.135 -0.135
0.243736 1.329 0.171 -0.059 -0.126 -0.134 -0.134
0.244875 1.333 0.173 -0.056 -0.125 -0.132 -0.132
0.246014 1.335 0.175 -0.055 -0.123 -0.131 -0.131
0.247153 1.337 0.177 -0.053 -0.122 -0.130 -0.130
0.248292 1.339 0.179 -0.050 -0.120 -0.129 -0.129
0.249431 1.343 0.182 -0.049 -0.118 -0.127 -0.127
0.25057 1.345 0.184 -0.047 -0.117 -0.126 -0.126
0.251709 1.347 0.185 -0.046 -0.115 -0.124 -0.124
0.252848 1.350 0.187 -0.043 -0.114 -0.123 -0.123
0.253987 1.352 0.190 -0.041 -0.112 -0.122 -0.122
0.255126 1.354 0.192 -0.040 -0.111 -0.120 -0.120
0.256265 1.356 0.193 -0.038 -0.109 -0.119 -0.119
0.257404 1.360 0.195 -0.036 -0.108 -0.118 -0.118
0.258543 1.362 0.198 -0.035 -0.107 -0.116 -0.116
0.259682 1.363 0.199 -0.033 -0.105 -0.115 -0.115
0.26082 1.365 0.201 -0.032 -0.104 -0.113 -0.113
0.261959 1.368 0.202 -0.030 -0.102 -0.112 -0.112
0.263098 1.370 0.204 -0.028 -0.101 -0.111 -0.111
0.264237 1.372 0.207 -0.027 -0.100 -0.110 -0.110
0.265376 1.375 0.208 -0.025 -0.098 -0.108 -0.108
0.266515 1.377 0.210 -0.023 -0.097 -0.107 -0.107
0.267654 1.378 0.211 -0.022 -0.096 -0.106 -0.106
0.268793 1.380 0.212 -0.021 -0.094 -0.105 -0.105
0.269932 1.383 0.215 -0.019 -0.094 -0.103 -0.103
0.271071 1.384 0.216 -0.017 -0.093 -0.102 -0.102
0.27221 1.386 0.218 -0.017 -0.091 -0.101 -0.101
0.273349 1.388 0.219 -0.015 -0.090 -0.100 -0.100
0.274488 1.389 0.220 -0.013 -0.089 -0.098 -0.098
0.275627 1.392 0.223 -0.013 -0.088 -0.097 -0.097
0.276766 1.393 0.224 -0.011 -0.087 -0.096 -0.096
0.277905 1.395 0.225 -0.010 -0.085 -0.095 -0.095
0.279044 1.396 0.227 -0.008 -0.085 -0.094 -0.094
0.280183 1.397 0.228 -0.008 -0.083 -0.092 -0.092
0.281322 1.400 0.229 -0.007 -0.083 -0.091 -0.091
0.282461 1.401 0.230 -0.005 -0.081 -0.090 -0.090
0.2836 1.402 0.232 -0.004 -0.080 -0.089 -0.089
0.284739 1.404 0.233 -0.003 -0.080 -0.087 -0.087
0.285877 1.405 0.235 -0.002 -0.078 -0.086 -0.086
0.287016 1.406 0.236 -0.001 -0.078 -0.085 -0.085
0.288155 1.408 0.237 -0.000 -0.076 -0.084 -0.084
0.289294 1.409 0.238 0.001 -0.076 -0.083 -0.083
0.290433 1.410 0.240 0.002 -0.074 -0.081 -0.081
0.291572 1.411 0.241 0.003 -0.074 -0.080 -0.080
0.292711 1.412 0.242 0.004 -0.072 -0.079 -0.079
0.29385 1.413 0.243 0.006 -0.071 -0.078 -0.078
0.294989 1.414 0.244 0.006 -0.070 -0.077 -0.077
0.296128 1.416 0.245 0.007 -0.069 -0.076 -0.076
0.297267 1.417 0.246 0.008 -0.068 -0.075 -0.075
0.298406 1.418 0.248 0.009 -0.068 -0.074 -0.074
0.299545 1.419 0.249 0.011 -0.067 -0.073 -0.073
0.300684 1.420 0.250 0.011 -0.066 -0.071 -0.071
0.301823 1.421 0.251 0.012 -0.065 -0.071 -0.071
0.302962 1.422 0.252 0.013 -0.064 -0.070 -0.070
0.304101 1.424 0.253 0.014 -0.063 -0.068 -0.068
0.30524 1.425 0.254 0.015 -0.062 -0.068 -0.068
0.306379 1.426 0.255 0.016 -0.061 -0.067 -0.067
0.307518 1.427 0.257 0.017 -0.060 -0.066 -0.066
0.308657 1.427 0.258 0.018 -0.059 -0.065 -0.065
0.309795 1.428 0.259 0.019 -0.058 -0.063 -0.063
0.310934 1.429 0.260 0.020 -0.057 -0.063 -0.063
0.312073 1.430 0.261 0.020 -0.057 -0.062 -0.062
0.313212 1.430 0.262 0.021 -0.056 -0.061 -0.061
0.314351 1.431 0.263 0.023 -0.055 -0.060 -0.060
0.31549 1.433 0.265 0.024 -0.054 -0.059 -0.059
0.316629 1.434 0.266 0.025 -0.053 -0.059 -0.059
0.317768 1.434 0.267 0.025 -0.052 -0.057 -0.057
0.318907 1.435 0.268 0.026 -0.052 -0.057 -0.057
0.320046 1.436 0.269 0.027 -0.050 -0.056 -0.056
0.321185 1.436 0.269 0.028 -0.050 -0.055 -0.055
0.322324 1.437 0.270 0.029 -0.049 -0.054 -0.054
0.323463 1.437 0.271 0.029 -0.048 -0.054 -0.054
0.324602 1.438 0.272 0.030 -0.047 -0.052 -0.052
0.325741 1.439 0.274 0.031 -0.046 -0.052 -0.052
0.32688 1.439 0.275 0.032 -0.046 -0.051 -0.051
0.328019 1.441 0.275 0.033 -0.045 -0.051 -0.051
0.329158 1.441 0.276 0.034 -0.044 -0.050 -0.050
0.330297 1.442 0.277 0.034 -0.043 -0.049 -0.049
0.331436 1.442 0.278 0.035 -0.043 -0.048 -0.048
0.332575 1.443 0.278 0.036 -0.042 -0.047 -0.047
0.333714 1.443 0.279 0.037 -0.041 -0.047 -0.047
0.334852 1.444 0.280 0.038 -0.041 -0.046 -0.046
0.335991 1.444 0.280 0.039 -0.040 -0.046 -0.046
0.33713 1.444 0.282 0.039 -0.039 -0.045 -0.045
0.338269 1.445 0.283 0.039 -0.039 -0.044 -0.044
0.339408 1.445 0.283 0.040 -0.038 -0.044 -0.044
0.340547 1.445 0.284 0.041 -0.037 -0.043 -0.043
0.341686 1.445 0.284 0.041 -0.037 -0.042 -0.042
0.342825 1.446 0.285 0.042 -0.036 -0.041 -0.041
0.343964 1.446 0.285 0.043 -0.035 -0.041 -0.041
0.345103 1.446 0.285 0.043 -0.035 -0.040 -0.040
0.346242 1.446 0.286 0.043 -0.034 -0.039 -0.039
0.347381 1.446 0.286 0.044 -0.033 -0.039 -0.039
0.34852 1.446 0.286 0.044 -0.033 -0.038 -0.038
0.349659 1.446 0.287 0.045 -0.033 -0.038 -0.038
0.350798 1.446 0.287 0.045 -0.032 -0.037 -0.037
0.351937 1.446 0.287 0.046 -0.032 -0.036 -0.036
0.353076 1.446 0.287 0.046 -0.031 -0.036 -0.036
0.354215 1.446 0.288 0.047 -0.031 -0.035 -0.035
0.355354 1.446 0.288 0.047 -0.030 -0.035 -0.035
0.356493 1.446 0.288 0.048 -0.030 -0.034 -0.034
0.357632 1.446 0.288 0.048 -0.029 -0.033 -0.033
0.358771 1.445 0.288 0.048 -0.029 -0.033 -0.033
0.359909 1.445 0.288 0.048 -0.028 -0.032 -0.032
0.361048 1.445 0.288 0.048 -0.028 -0.032 -0.032
0.362187 1.445 0.288 0.048 -0.028 -0.031 -0.031
0.363326 1.444 0.288 0.049 -0.027 -0.030 -0.030
0.364465 1.444 0.288 0.049 -0.026 -0.030 -0.030
0.365604 1.443 0.288 0.049 -0.026 -0.029 -0.029
0.366743 1.443 0.288 0.050 -0.026 -0.029 -0.029
0.367882 1.443 0.288 0.050 -0.026 -0.028 -0.028
0.369021 1.442 0.288 0.050 -0.025 -0.028 -0.028
0.37016 1.442 0.287 0.050 -0.025 -0.027 -0.027
0.371299 1.441 0.287 0.050 -0.024 -0.027 -0.027
0.372438 1.441 0.287 0.050 -0.024 -0.026 -0.026
0.373577 1.439 0.287 0.050 -0.024 -0.025 -0.025
0.374716 1.439 0.287 0.050 -0.024 -0.025 -0.025
0.375855 1.438 0.286 0.050 -0.024 -0.024 -0.024
0.376994 1.438 0.286 0.050 -0.023 -0.024 -0.024
0.378133 1.437 0.286 0.050 -0.023 -0.024 -0.024
0.379272 1.437 0.286 0.050 -0.023 -0.023 -0.023
0.380411 1.436 0.286 0.050 -0.022 -0.022 -0.022
0.38155 1.436 0.285 0.050 -0.022 -0.022 -0.022
0.382689 1.435 0.285 0.050 -0.022 -0.021 -0.021
0.383827 1.435 0.285 0.050 -0.022 -0.021 -0.021
0.384966 1.434 0.285 0.050 -0.022 -0.020 -0.020
0.386105 1.434 0.284 0.049 -0.022 -0.020 -0.020
0.387244 1.433 0.284 0.049 -0.022 -0.020 -0.020
0.388383 1.433 0.284 0.049 -0.021 -0.019 -0.019
0.389522 1.431 0.284 0.049 -0.021 -0.019 -0.019
0.390661 1.431 0.283 0.048 -0.021 -0.019 -0.019
0.3918 1.430 0.283 0.048 -0.021 -0.018 -0.018
0.392939 1.430 0.283 0.048 -0.021 -0.017 -0.017
0.394078 1.430 0.282 0.048 -0.021 -0.017 -0.017
0.395217 1.429 0.282 0.048 -0.021 -0.017 -0.017
0.396356 1.429 0.282 0.047 -0.021 -0.017 -0.017
0.397495 1.429 0.280 0.047 -0.021 -0.016 -0.016
0.398634 1.428 0.280 0.046 -0.021 -0.016 -0.016
0.399773 1.428 0.280 0.046 -0.021 -0.016 -0.016
0.400912 1.428 0.279 0.045 -0.021 -0.015 -0.015
0.402051 1.427 0.279 0.045 -0.021 -0.015 -0.015
0.40319 1.427 0.279 0.044 -0.020 -0.014 -0.014
0.404329 1.427 0.278 0.043 -0.020 -0.014 -0.014
0.405468 1.426 0.278 0.043 -0.020 -0.014 -0.014
0.406607 1.426 0.278 0.043 -0.019 -0.014 -0.014
0.407746 1.425 0.277 0.043 -0.019 -0.014 -0.014
0.408884 1.425 0.277 0.042 -0.018 -0.014 -0.014
0.410023 1.425 0.277 0.042 -0.017 -0.013 -0.013
0.411162 1.424 0.277 0.042 -0.017 -0.013 -0.013
0.412301 1.424 0.277 0.041 -0.015 -0.013 -0.013
0.41344 1.424 0.277 0.041 -0.015 -0.012 -0.012
0.414579 1.424 0.277 0.042 -0.013 -0.012 -0.012
0.415718 1.424 0.278 0.042 -0.012 -0.012 -0.012
0.416857 1.425 0.278 0.042 -0.011 -0.011 -0.011
0.417996 1.425 0.279 0.043 -0.010 -0.011 -0.011
0.419135 1.426 0.280 0.043 -0.008 -0.009 -0.009
0.420274 1.427 0.282 0.043 -0.007 -0.009 -0.009
0.421413 1.428 0.284 0.045 -0.006 -0.008 -0.008
0.422552 1.429 0.285 0.046 -0.004 -0.007 -0.007
0.423691 1.430 0.287 0.047 -0.002 -0.006 -0.006
0.42483 1.433 0.288 0.048 -0.000 -0.004 -0.004
0.425969 1.434 0.291 0.049 0.002 -0.003 -0.003
0.427108 1.436 0.293 0.051 0.004 -0.001 -0.001
0.428247 1.438 0.295 0.053 0.005 0.001 0.001
0.429386 1.442 0.297 0.054 0.008 0.003 0.003
0.430525 1.444 0.300 0.056 0.010 0.005 0.005
0.431664 1.446 0.302 0.057 0.013 0.007 0.007
0.432803 1.450 0.305 0.059 0.015 0.009 0.009
0.433941 1.453 0.308 0.062 0.017 0.012 0.012
0.43508 1.456 0.311 0.063 0.020 0.015 0.015
0.436219 1.460 0.314 0.066 0.023 0.017 0.017
0.437358 1.464 0.318 0.068 0.026 0.020 0.020
0.438497 1.469 0.322 0.071 0.028 0.023 0.023
0.439636 1.474 0.326 0.073 0.031 0.026 0.026
0.440775 1.478 0.330 0.076 0.033 0.029 0.029
0.441914 1.483 0.335 0.080 0.037 0.032 0.032
0.443053 1.488 0.339 0.082 0.039 0.036 0.036
0.444192 1.493 0.344 0.085 0.042 0.040 0.040
0.445331 1.499 0.348 0.089 0.044 0.043 0.043
0.44647 1.504 0.353 0.092 0.048 0.047 0.047
0.447609 1.510 0.358 0.095 0.050 0.051 0.051
0.448748 1.516 0.363 0.099 0.053 0.056 0.056
0.449887 1.522 0.368 0.102 0.055 0.060 0.060
0.451026 1.528 0.372 0.105 0.059 0.064 0.064
0.452165 1.535 0.377 0.109 0.061 0.069 0.069
0.453304 1.541 0.380 0.112 0.064 0.073 0.073
0.454443 1.546 0.385 0.115 0.067 0.077 0.077
0.455582 1.553 0.389 0.118 0.069 0.082 0.082
0.456721 1.559 0.393 0.122 0.072 0.086 0.086
0.45786 1.563 0.396 0.124 0.074 0.090 0.090
0.458998 1.569 0.400 0.127 0.076 0.094 0.094
0.460137 1.574 0.403 0.130 0.079 0.098 0.098
0.461276 1.577 0.405 0.133 0.081 0.101 0.101
