# IsPeriodic    : True
# Period        : 0.499722 days
# Normalization : <g_mag>=0
# 
# Phase u_mag  g_mag  r_mag  i_mag  z_mag  y_mag
 0.000  0.292 -0.857 -0.725 -0.629 -0.526 -0.526
 0.002  0.292 -0.857 -0.725 -0.629 -0.526 -0.526
 0.004  0.293 -0.857 -0.725 -0.628 -0.526 -0.526
 0.006  0.294 -0.856 -0.724 -0.627 -0.525 -0.525
 0.008  0.295 -0.853 -0.723 -0.625 -0.524 -0.524
 0.010  0.298 -0.852 -0.721 -0.623 -0.523 -0.523
 0.012  0.300 -0.849 -0.719 -0.620 -0.522 -0.522
 0.014  0.303 -0.846 -0.717 -0.617 -0.520 -0.520
 0.016  0.306 -0.844 -0.715 -0.614 -0.518 -0.518
 0.018  0.309 -0.841 -0.713 -0.610 -0.517 -0.517
 0.020  0.313 -0.837 -0.711 -0.606 -0.515 -0.515
 0.022  0.316 -0.834 -0.709 -0.602 -0.513 -0.513
 0.024  0.321 -0.830 -0.706 -0.599 -0.511 -0.511
 0.026  0.325 -0.826 -0.703 -0.595 -0.508 -0.508
 0.028  0.329 -0.822 -0.700 -0.591 -0.506 -0.506
 0.030  0.334 -0.817 -0.697 -0.587 -0.504 -0.504
 0.032  0.338 -0.813 -0.693 -0.584 -0.502 -0.502
 0.034  0.343 -0.808 -0.691 -0.580 -0.500 -0.500
 0.036  0.348 -0.804 -0.687 -0.577 -0.498 -0.498
 0.038  0.354 -0.798 -0.683 -0.573 -0.495 -0.495
 0.040  0.359 -0.792 -0.680 -0.570 -0.493 -0.493
 0.042  0.366 -0.786 -0.675 -0.567 -0.490 -0.490
 0.044  0.372 -0.781 -0.671 -0.563 -0.487 -0.487
 0.046  0.378 -0.774 -0.668 -0.560 -0.485 -0.485
 0.048  0.384 -0.768 -0.663 -0.556 -0.482 -0.482
 0.050  0.391 -0.761 -0.658 -0.552 -0.480 -0.480
 0.052  0.399 -0.754 -0.653 -0.548 -0.476 -0.476
 0.054  0.406 -0.746 -0.648 -0.545 -0.474 -0.474
 0.056  0.414 -0.740 -0.643 -0.541 -0.470 -0.470
 0.058  0.421 -0.732 -0.638 -0.537 -0.467 -0.467
 0.060  0.430 -0.724 -0.632 -0.533 -0.464 -0.464
 0.062  0.437 -0.716 -0.627 -0.529 -0.460 -0.460
 0.064  0.446 -0.706 -0.621 -0.525 -0.457 -0.457
 0.066  0.454 -0.698 -0.615 -0.521 -0.454 -0.454
 0.068  0.464 -0.689 -0.609 -0.517 -0.450 -0.450
 0.070  0.473 -0.680 -0.603 -0.513 -0.447 -0.447
 0.072  0.483 -0.672 -0.597 -0.509 -0.443 -0.443
 0.074  0.491 -0.662 -0.590 -0.505 -0.439 -0.439
 0.076  0.501 -0.653 -0.584 -0.501 -0.436 -0.436
 0.078  0.510 -0.644 -0.578 -0.497 -0.432 -0.432
 0.080  0.520 -0.634 -0.572 -0.493 -0.428 -0.428
 0.082  0.530 -0.625 -0.565 -0.489 -0.425 -0.425
 0.084  0.538 -0.616 -0.559 -0.485 -0.421 -0.421
 0.086  0.547 -0.608 -0.553 -0.481 -0.417 -0.417
 0.088  0.556 -0.598 -0.547 -0.477 -0.414 -0.414
 0.090  0.564 -0.590 -0.541 -0.473 -0.410 -0.410
 0.092  0.573 -0.581 -0.536 -0.469 -0.407 -0.407
 0.094  0.581 -0.573 -0.530 -0.465 -0.404 -0.404
 0.096  0.589 -0.565 -0.524 -0.461 -0.400 -0.400
 0.098  0.597 -0.557 -0.519 -0.457 -0.397 -0.397
 0.100  0.605 -0.550 -0.513 -0.454 -0.394 -0.394
 0.102  0.612 -0.542 -0.508 -0.450 -0.391 -0.391
 0.104  0.620 -0.534 -0.502 -0.446 -0.388 -0.388
 0.106  0.627 -0.528 -0.497 -0.442 -0.384 -0.384
 0.108  0.634 -0.520 -0.493 -0.439 -0.382 -0.382
 0.110  0.641 -0.513 -0.487 -0.435 -0.378 -0.378
 0.112  0.648 -0.506 -0.482 -0.432 -0.375 -0.375
 0.114  0.654 -0.500 -0.477 -0.429 -0.373 -0.373
 0.116  0.662 -0.492 -0.473 -0.425 -0.370 -0.370
 0.118  0.668 -0.485 -0.468 -0.422 -0.367 -0.367
 0.120  0.674 -0.480 -0.463 -0.418 -0.365 -0.365
 0.122  0.680 -0.473 -0.458 -0.415 -0.362 -0.362
 0.124  0.686 -0.466 -0.454 -0.412 -0.359 -0.359
 0.126  0.692 -0.459 -0.450 -0.408 -0.356 -0.356
 0.128  0.697 -0.454 -0.445 -0.405 -0.354 -0.354
 0.130  0.703 -0.449 -0.441 -0.402 -0.351 -0.351
 0.132  0.708 -0.443 -0.437 -0.399 -0.349 -0.349
 0.134  0.713 -0.438 -0.433 -0.396 -0.347 -0.347
 0.136  0.718 -0.433 -0.429 -0.393 -0.345 -0.345
 0.138  0.723 -0.427 -0.425 -0.390 -0.342 -0.342
 0.140  0.728 -0.422 -0.421 -0.387 -0.340 -0.340
 0.142  0.733 -0.417 -0.418 -0.384 -0.338 -0.338
 0.144  0.737 -0.411 -0.414 -0.381 -0.336 -0.336
 0.146  0.742 -0.407 -0.411 -0.378 -0.334 -0.334
 0.148  0.747 -0.402 -0.407 -0.375 -0.332 -0.332
 0.150  0.750 -0.397 -0.403 -0.372 -0.330 -0.330
 0.152  0.755 -0.393 -0.400 -0.369 -0.327 -0.327
 0.154  0.759 -0.387 -0.396 -0.367 -0.325 -0.325
 0.156  0.764 -0.382 -0.392 -0.364 -0.323 -0.323
 0.158  0.768 -0.378 -0.390 -0.362 -0.321 -0.321
 0.160  0.773 -0.373 -0.386 -0.359 -0.319 -0.319
 0.162  0.776 -0.367 -0.382 -0.356 -0.317 -0.317
 0.164  0.781 -0.363 -0.379 -0.354 -0.315 -0.315
 0.166  0.785 -0.358 -0.375 -0.351 -0.313 -0.313
 0.168  0.790 -0.353 -0.372 -0.349 -0.311 -0.311
 0.170  0.795 -0.347 -0.368 -0.347 -0.309 -0.309
 0.172  0.798 -0.343 -0.365 -0.344 -0.307 -0.307
 0.174  0.803 -0.338 -0.362 -0.341 -0.305 -0.305
 0.176  0.808 -0.333 -0.358 -0.339 -0.303 -0.303
 0.178  0.812 -0.327 -0.355 -0.336 -0.301 -0.301
 0.180  0.817 -0.322 -0.351 -0.334 -0.299 -0.299
 0.182  0.822 -0.317 -0.347 -0.331 -0.297 -0.297
 0.184  0.826 -0.313 -0.345 -0.329 -0.295 -0.295
 0.186  0.831 -0.307 -0.341 -0.327 -0.293 -0.293
 0.188  0.835 -0.302 -0.338 -0.324 -0.290 -0.290
 0.190  0.840 -0.297 -0.334 -0.322 -0.288 -0.288
 0.192  0.844 -0.291 -0.331 -0.319 -0.287 -0.287
 0.194  0.849 -0.286 -0.327 -0.317 -0.285 -0.285
 0.196  0.854 -0.281 -0.325 -0.315 -0.283 -0.283
 0.198  0.859 -0.275 -0.322 -0.312 -0.281 -0.281
 0.200  0.863 -0.270 -0.318 -0.310 -0.279 -0.279
 0.202  0.868 -0.265 -0.315 -0.308 -0.277 -0.277
 0.204  0.872 -0.259 -0.311 -0.306 -0.275 -0.275
 0.206  0.877 -0.254 -0.308 -0.303 -0.273 -0.273
 0.208  0.882 -0.249 -0.305 -0.301 -0.271 -0.271
 0.210  0.886 -0.243 -0.302 -0.299 -0.269 -0.269
 0.212  0.891 -0.238 -0.299 -0.297 -0.266 -0.266
 0.214  0.896 -0.233 -0.295 -0.295 -0.264 -0.264
 0.216  0.901 -0.227 -0.292 -0.293 -0.262 -0.262
 0.218  0.906 -0.222 -0.289 -0.290 -0.260 -0.260
 0.220  0.911 -0.217 -0.285 -0.288 -0.258 -0.258
 0.222  0.916 -0.211 -0.282 -0.287 -0.256 -0.256
 0.224  0.919 -0.206 -0.280 -0.284 -0.254 -0.254
 0.226  0.924 -0.201 -0.277 -0.282 -0.252 -0.252
 0.228  0.929 -0.195 -0.273 -0.281 -0.251 -0.251
 0.230  0.934 -0.190 -0.270 -0.278 -0.249 -0.249
 0.232  0.938 -0.185 -0.267 -0.276 -0.247 -0.247
 0.234  0.943 -0.179 -0.264 -0.275 -0.245 -0.245
 0.236  0.946 -0.174 -0.261 -0.272 -0.242 -0.242
 0.238  0.951 -0.169 -0.259 -0.270 -0.240 -0.240
 0.240  0.956 -0.165 -0.256 -0.268 -0.239 -0.239
 0.242  0.960 -0.159 -0.252 -0.266 -0.237 -0.237
 0.244  0.965 -0.154 -0.249 -0.264 -0.235 -0.235
 0.246  0.969 -0.150 -0.246 -0.262 -0.233 -0.233
 0.248  0.972 -0.145 -0.243 -0.260 -0.231 -0.231
 0.250  0.977 -0.139 -0.240 -0.258 -0.229 -0.229
 0.252  0.981 -0.135 -0.238 -0.256 -0.227 -0.227
 0.254  0.986 -0.130 -0.235 -0.254 -0.226 -0.226
 0.256  0.990 -0.126 -0.233 -0.253 -0.224 -0.224
 0.258  0.993 -0.121 -0.230 -0.250 -0.222 -0.222
 0.260  0.997 -0.117 -0.227 -0.248 -0.221 -0.221
 0.262  1.002 -0.111 -0.224 -0.246 -0.218 -0.218
 0.264  1.006 -0.107 -0.221 -0.244 -0.217 -0.217
 0.266  1.009 -0.103 -0.218 -0.242 -0.215 -0.215
 0.268  1.013 -0.098 -0.216 -0.240 -0.214 -0.214
 0.270  1.017 -0.094 -0.214 -0.238 -0.212 -0.212
 0.272  1.020 -0.090 -0.211 -0.237 -0.210 -0.210
 0.274  1.024 -0.085 -0.208 -0.234 -0.208 -0.208
 0.276  1.028 -0.081 -0.205 -0.233 -0.207 -0.207
 0.278  1.032 -0.077 -0.203 -0.231 -0.205 -0.205
 0.280  1.035 -0.073 -0.200 -0.228 -0.203 -0.203
 0.282  1.039 -0.068 -0.197 -0.227 -0.201 -0.201
 0.284  1.043 -0.064 -0.196 -0.224 -0.200 -0.200
 0.286  1.046 -0.060 -0.193 -0.223 -0.199 -0.199
 0.288  1.050 -0.056 -0.190 -0.221 -0.197 -0.197
 0.290  1.054 -0.052 -0.188 -0.219 -0.195 -0.195
 0.292  1.056 -0.047 -0.185 -0.217 -0.193 -0.193
 0.294  1.060 -0.043 -0.183 -0.215 -0.192 -0.192
 0.296  1.064 -0.039 -0.180 -0.213 -0.190 -0.190
 0.298  1.067 -0.035 -0.178 -0.211 -0.188 -0.188
 0.300  1.071 -0.032 -0.175 -0.209 -0.187 -0.187
 0.302  1.073 -0.028 -0.173 -0.207 -0.186 -0.186
 0.304  1.077 -0.024 -0.171 -0.206 -0.183 -0.183
 0.306  1.081 -0.020 -0.168 -0.203 -0.182 -0.182
 0.308  1.085 -0.016 -0.166 -0.202 -0.181 -0.181
 0.310  1.088 -0.012 -0.163 -0.199 -0.179 -0.179
 0.312  1.091 -0.008 -0.161 -0.198 -0.177 -0.177
 0.314  1.094 -0.004 -0.158 -0.196 -0.176 -0.176
 0.316  1.098 -0.000 -0.155 -0.193 -0.174 -0.174
 0.318  1.102  0.004 -0.153 -0.192 -0.173 -0.173
 0.320  1.106  0.008 -0.151 -0.190 -0.171 -0.171
 0.322  1.108  0.012 -0.149 -0.188 -0.169 -0.169
 0.324  1.112  0.016 -0.146 -0.186 -0.168 -0.168
 0.326  1.115  0.018 -0.143 -0.184 -0.166 -0.166
 0.328  1.119  0.022 -0.141 -0.182 -0.164 -0.164
 0.330  1.122  0.026 -0.138 -0.180 -0.163 -0.163
 0.332  1.125  0.030 -0.136 -0.178 -0.162 -0.162
 0.334  1.129  0.034 -0.133 -0.176 -0.160 -0.160
 0.336  1.133  0.038 -0.131 -0.174 -0.158 -0.158
 0.338  1.135  0.042 -0.129 -0.172 -0.157 -0.157
 0.340  1.139  0.045 -0.127 -0.170 -0.155 -0.155
 0.342  1.143  0.049 -0.124 -0.168 -0.153 -0.153
 0.344  1.146  0.053 -0.121 -0.166 -0.152 -0.152
 0.346  1.150  0.057 -0.119 -0.164 -0.151 -0.151
 0.348  1.152  0.061 -0.116 -0.162 -0.149 -0.149
 0.350  1.156  0.064 -0.114 -0.160 -0.147 -0.147
 0.352  1.160  0.068 -0.111 -0.158 -0.146 -0.146
 0.354  1.164  0.072 -0.110 -0.156 -0.144 -0.144
 0.356  1.166  0.076 -0.107 -0.154 -0.142 -0.142
 0.358  1.170  0.078 -0.104 -0.152 -0.141 -0.141
 0.360  1.173  0.082 -0.102 -0.150 -0.140 -0.140
 0.362  1.176  0.086 -0.099 -0.148 -0.138 -0.138
 0.364  1.180  0.089 -0.097 -0.146 -0.136 -0.136
 0.366  1.183  0.093 -0.094 -0.143 -0.135 -0.135
 0.368  1.187  0.097 -0.092 -0.142 -0.133 -0.133
 0.370  1.189  0.101 -0.089 -0.140 -0.131 -0.131
 0.372  1.193  0.104 -0.088 -0.137 -0.130 -0.130
 0.374  1.197  0.108 -0.085 -0.136 -0.128 -0.128
 0.376  1.199  0.112 -0.083 -0.133 -0.127 -0.127
 0.378  1.203  0.114 -0.080 -0.131 -0.125 -0.125
 0.380  1.207  0.118 -0.078 -0.130 -0.123 -0.123
 0.382  1.209  0.122 -0.075 -0.127 -0.122 -0.122
 0.384  1.213  0.125 -0.073 -0.126 -0.120 -0.120
 0.386  1.215  0.129 -0.070 -0.124 -0.118 -0.118
 0.388  1.219  0.133 -0.068 -0.121 -0.116 -0.116
 0.390  1.223  0.136 -0.066 -0.120 -0.115 -0.115
 0.392  1.225  0.140 -0.064 -0.118 -0.113 -0.113
 0.394  1.229  0.144 -0.061 -0.116 -0.112 -0.112
 0.396  1.231  0.146 -0.059 -0.114 -0.109 -0.109
 0.398  1.235  0.150 -0.056 -0.111 -0.108 -0.108
 0.400  1.237  0.154 -0.054 -0.110 -0.106 -0.106
 0.402  1.241  0.157 -0.051 -0.108 -0.105 -0.105
 0.404  1.244  0.161 -0.049 -0.106 -0.103 -0.103
 0.406  1.247  0.165 -0.046 -0.104 -0.101 -0.101
 0.408  1.250  0.168 -0.045 -0.102 -0.099 -0.099
 0.410  1.254  0.172 -0.042 -0.100 -0.097 -0.097
 0.412  1.256  0.174 -0.040 -0.099 -0.096 -0.096
 0.414  1.260  0.178 -0.037 -0.096 -0.094 -0.094
 0.416  1.262  0.182 -0.035 -0.095 -0.092 -0.092
 0.418  1.266  0.185 -0.033 -0.092 -0.090 -0.090
 0.420  1.268  0.189 -0.030 -0.091 -0.088 -0.088
 0.422  1.272  0.192 -0.028 -0.089 -0.087 -0.087
 0.424  1.274  0.196 -0.025 -0.087 -0.085 -0.085
 0.426  1.277  0.200 -0.024 -0.086 -0.083 -0.083
 0.428  1.281  0.202 -0.021 -0.083 -0.081 -0.081
 0.430  1.283  0.206 -0.019 -0.082 -0.079 -0.079
 0.432  1.286  0.209 -0.017 -0.080 -0.077 -0.077
 0.434  1.289  0.213 -0.014 -0.078 -0.076 -0.076
 0.436  1.292  0.216 -0.012 -0.077 -0.074 -0.074
 0.438  1.294  0.220 -0.009 -0.074 -0.072 -0.072
 0.440  1.298  0.222 -0.007 -0.073 -0.070 -0.070
 0.442  1.300  0.225 -0.005 -0.071 -0.068 -0.068
 0.444  1.303  0.229 -0.002 -0.069 -0.066 -0.066
 0.446  1.305  0.232 -0.001 -0.067 -0.065 -0.065
 0.448  1.308  0.234  0.001 -0.066 -0.063 -0.063
 0.450  1.311  0.238  0.003 -0.064 -0.061 -0.061
 0.452  1.314  0.241  0.006 -0.062 -0.059 -0.059
 0.454  1.316  0.244  0.008 -0.061 -0.058 -0.058
 0.456  1.319  0.246  0.010 -0.058 -0.056 -0.056
 0.458  1.321  0.249  0.012 -0.057 -0.055 -0.055
 0.460  1.324  0.252  0.015 -0.055 -0.053 -0.053
 0.462  1.326  0.254  0.017 -0.053 -0.051 -0.051
 0.464  1.329  0.257  0.019 -0.052 -0.050 -0.050
 0.466  1.331  0.260  0.020 -0.050 -0.048 -0.048
 0.468  1.334  0.262  0.022 -0.048 -0.046 -0.046
 0.470  1.336  0.265  0.024 -0.046 -0.045 -0.045
 0.472  1.339  0.268  0.027 -0.045 -0.043 -0.043
 0.474  1.341  0.269  0.029 -0.043 -0.042 -0.042
 0.476  1.342  0.272  0.031 -0.041 -0.040 -0.040
 0.478  1.345  0.274  0.033 -0.039 -0.039 -0.039
 0.480  1.347  0.276  0.035 -0.038 -0.037 -0.037
 0.482  1.350  0.278  0.037 -0.036 -0.035 -0.035
 0.484  1.351  0.281  0.039 -0.034 -0.034 -0.034
 0.486  1.353  0.282  0.041 -0.033 -0.033 -0.033
 0.488  1.356  0.285  0.042 -0.031 -0.031 -0.031
 0.490  1.358  0.286  0.044 -0.029 -0.030 -0.030
 0.492  1.360  0.289  0.046 -0.027 -0.029 -0.029
 0.494  1.362  0.290  0.048 -0.026 -0.027 -0.027
 0.496  1.365  0.293  0.050 -0.024 -0.026 -0.026
 0.498  1.366  0.294  0.052 -0.022 -0.024 -0.024
 0.500  1.368  0.296  0.054 -0.020 -0.023 -0.023
 0.502  1.369  0.297  0.056 -0.019 -0.022 -0.022
 0.504  1.372  0.300  0.058 -0.017 -0.020 -0.020
 0.506  1.373  0.301  0.060 -0.015 -0.019 -0.019
 0.508  1.376  0.302  0.061 -0.014 -0.018 -0.018
 0.510  1.377  0.304  0.063 -0.012 -0.017 -0.017
 0.512  1.378  0.305  0.064 -0.011 -0.016 -0.016
 0.514  1.381  0.308  0.066 -0.009 -0.014 -0.014
 0.516  1.382  0.309  0.067 -0.007 -0.013 -0.013
 0.518  1.383  0.310  0.069 -0.005 -0.011 -0.011
 0.520  1.384  0.312  0.071 -0.004 -0.011 -0.011
 0.522  1.385  0.313  0.072 -0.002 -0.009 -0.009
 0.524  1.387  0.314  0.074 -0.001 -0.008 -0.008
 0.526  1.388  0.316  0.075  0.000 -0.007 -0.007
 0.528  1.389  0.317  0.077  0.002 -0.006 -0.006
 0.530  1.390  0.318  0.078  0.003 -0.005 -0.005
 0.532  1.392  0.320  0.080  0.005 -0.004 -0.004
 0.534  1.393  0.321  0.081  0.005 -0.002 -0.002
 0.536  1.394  0.322  0.083  0.007 -0.002 -0.002
 0.538  1.395  0.322  0.084  0.008 -0.000 -0.000
 0.540  1.395  0.324  0.084  0.008  0.000  0.000
 0.542  1.397  0.325  0.086  0.010  0.002  0.002
 0.544  1.398  0.326  0.087  0.011  0.002  0.002
 0.546  1.398  0.328  0.088  0.011  0.003  0.003
 0.548  1.399  0.328  0.089  0.013  0.004  0.004
 0.550  1.399  0.329  0.090  0.014  0.005  0.005
 0.552  1.400  0.330  0.092  0.015  0.006  0.006
 0.554  1.400  0.330  0.093  0.015  0.007  0.007
 0.556  1.402  0.332  0.094  0.016  0.008  0.008
 0.558  1.402  0.333  0.095  0.017  0.008  0.008
 0.560  1.402  0.333  0.096  0.018  0.010  0.010
 0.562  1.403  0.334  0.097  0.018  0.011  0.011
 0.564  1.403  0.334  0.098  0.018  0.011  0.011
 0.566  1.403  0.336  0.099  0.019  0.012  0.012
 0.568  1.403  0.336  0.100  0.020  0.013  0.013
 0.570  1.403  0.337  0.100  0.020  0.014  0.014
 0.572  1.403  0.337  0.101  0.021  0.015  0.015
 0.574  1.403  0.339  0.102  0.021  0.015  0.015
 0.576  1.403  0.339  0.103  0.021  0.016  0.016
 0.578  1.403  0.340  0.103  0.021  0.017  0.017
 0.580  1.403  0.340  0.104  0.021  0.017  0.017
 0.582  1.403  0.340  0.105  0.021  0.018  0.018
 0.584  1.403  0.341  0.105  0.022  0.019  0.019
 0.586  1.403  0.341  0.106  0.022  0.019  0.019
 0.588  1.403  0.341  0.106  0.022  0.020  0.020
 0.590  1.403  0.343  0.106  0.022  0.021  0.021
 0.592  1.403  0.343  0.106  0.023  0.022  0.022
 0.594  1.403  0.343  0.107  0.023  0.022  0.022
 0.596  1.403  0.344  0.107  0.023  0.022  0.022
 0.598  1.403  0.344  0.108  0.024  0.023  0.023
 0.600  1.403  0.344  0.108  0.024  0.024  0.024
 0.602  1.403  0.344  0.108  0.024  0.024  0.024
 0.604  1.403  0.345  0.108  0.024  0.025  0.025
 0.606  1.403  0.345  0.109  0.024  0.026  0.026
 0.608  1.403  0.345  0.109  0.024  0.026  0.026
 0.610  1.403  0.345  0.109  0.024  0.026  0.026
 0.612  1.403  0.345  0.109  0.025  0.027  0.027
 0.614  1.402  0.347  0.109  0.025  0.028  0.028
 0.616  1.402  0.347  0.109  0.026  0.028  0.028
 0.618  1.402  0.347  0.109  0.026  0.028  0.028
 0.620  1.402  0.347  0.109  0.026  0.029  0.029
 0.622  1.402  0.347  0.109  0.027  0.030  0.030
 0.624  1.402  0.347  0.109  0.027  0.030  0.030
 0.626  1.402  0.347  0.109  0.027  0.030  0.030
 0.628  1.402  0.347  0.108  0.027  0.030  0.030
 0.630  1.402  0.347  0.108  0.027  0.031  0.031
 0.632  1.402  0.347  0.108  0.028  0.032  0.032
 0.634  1.402  0.347  0.107  0.028  0.032  0.032
 0.636  1.402  0.347  0.107  0.029  0.032  0.032
 0.638  1.402  0.347  0.107  0.029  0.032  0.032
 0.640  1.402  0.347  0.106  0.029  0.033  0.033
 0.642  1.402  0.347  0.106  0.030  0.033  0.033
 0.644  1.402  0.347  0.106  0.030  0.034  0.034
 0.646  1.402  0.347  0.106  0.030  0.034  0.034
 0.648  1.400  0.347  0.105  0.030  0.035  0.035
 0.650  1.400  0.347  0.105  0.031  0.035  0.035
 0.652  1.400  0.347  0.104  0.031  0.035  0.035
 0.654  1.400  0.347  0.104  0.032  0.035  0.035
 0.656  1.400  0.345  0.103  0.032  0.035  0.035
 0.658  1.400  0.345  0.103  0.033  0.036  0.036
 0.660  1.400  0.345  0.103  0.033  0.036  0.036
 0.662  1.400  0.344  0.102  0.033  0.037  0.037
 0.664  1.399  0.344  0.102  0.033  0.037  0.037
 0.666  1.399  0.343  0.101  0.033  0.037  0.037
 0.668  1.399  0.343  0.101  0.033  0.037  0.037
 0.670  1.399  0.341  0.100  0.034  0.037  0.037
 0.672  1.399  0.341  0.100  0.034  0.038  0.038
 0.674  1.398  0.340  0.100  0.034  0.038  0.038
 0.676  1.398  0.340  0.099  0.034  0.039  0.039
 0.678  1.398  0.339  0.099  0.034  0.039  0.039
 0.680  1.398  0.337  0.099  0.034  0.039  0.039
 0.682  1.397  0.336  0.098  0.034  0.039  0.039
 0.684  1.397  0.336  0.098  0.034  0.040  0.040
 0.686  1.397  0.334  0.098  0.034  0.040  0.040
 0.688  1.397  0.333  0.098  0.034  0.040  0.040
 0.690  1.395  0.332  0.097  0.034  0.041  0.041
 0.692  1.395  0.330  0.097  0.034  0.041  0.041
 0.694  1.395  0.329  0.097  0.033  0.041  0.041
 0.696  1.394  0.328  0.097  0.033  0.041  0.041
 0.698  1.394  0.326  0.097  0.033  0.042  0.042
 0.700  1.393  0.325  0.096  0.033  0.042  0.042
 0.702  1.393  0.322  0.096  0.033  0.042  0.042
 0.704  1.393  0.321  0.096  0.033  0.043  0.043
 0.706  1.392  0.320  0.096  0.033  0.043  0.043
 0.708  1.392  0.318  0.096  0.032  0.043  0.043
 0.710  1.390  0.316  0.096  0.032  0.043  0.043
 0.712  1.390  0.314  0.096  0.031  0.044  0.044
 0.714  1.389  0.313  0.095  0.031  0.044  0.044
 0.716  1.389  0.310  0.095  0.030  0.044  0.044
 0.718  1.389  0.309  0.095  0.030  0.045  0.045
 0.720  1.388  0.308  0.095  0.029  0.045  0.045
 0.722  1.388  0.306  0.095  0.029  0.046  0.046
 0.724  1.387  0.305  0.095  0.028  0.046  0.046
 0.726  1.387  0.304  0.095  0.028  0.046  0.046
 0.728  1.387  0.302  0.095  0.027  0.047  0.047
 0.730  1.387  0.301  0.095  0.027  0.047  0.047
 0.732  1.387  0.301  0.095  0.027  0.048  0.048
 0.734  1.387  0.300  0.095  0.027  0.048  0.048
 0.736  1.387  0.300  0.095  0.027  0.049  0.049
 0.738  1.387  0.300  0.095  0.027  0.050  0.050
 0.740  1.387  0.300  0.095  0.027  0.050  0.050
 0.742  1.387  0.300  0.094  0.028  0.051  0.051
 0.744  1.387  0.301  0.094  0.029  0.052  0.052
 0.746  1.387  0.301  0.094  0.029  0.053  0.053
 0.748  1.388  0.302  0.094  0.030  0.054  0.054
 0.750  1.388  0.302  0.094  0.030  0.055  0.055
 0.752  1.388  0.304  0.094  0.032  0.056  0.056
 0.754  1.389  0.305  0.094  0.033  0.057  0.057
 0.756  1.389  0.306  0.094  0.034  0.058  0.058
 0.758  1.390  0.308  0.094  0.035  0.059  0.059
 0.760  1.390  0.309  0.094  0.037  0.060  0.060
 0.762  1.392  0.312  0.094  0.038  0.061  0.061
 0.764  1.393  0.313  0.094  0.040  0.063  0.063
 0.766  1.394  0.316  0.094  0.042  0.064  0.064
 0.768  1.394  0.318  0.094  0.043  0.065  0.065
 0.770  1.395  0.320  0.094  0.046  0.067  0.067
 0.772  1.397  0.324  0.094  0.048  0.068  0.068
 0.774  1.398  0.326  0.094  0.050  0.070  0.070
 0.776  1.399  0.329  0.094  0.052  0.071  0.071
 0.778  1.400  0.333  0.094  0.055  0.073  0.073
 0.780  1.402  0.336  0.093  0.058  0.074  0.074
 0.782  1.403  0.340  0.093  0.061  0.076  0.076
 0.784  1.405  0.344  0.093  0.064  0.078  0.078
 0.786  1.406  0.347  0.094  0.067  0.080  0.080
 0.788  1.408  0.351  0.094  0.070  0.081  0.081
 0.790  1.410  0.355  0.094  0.073  0.083  0.083
 0.792  1.411  0.359  0.094  0.076  0.085  0.085
 0.794  1.413  0.363  0.095  0.080  0.087  0.087
 0.796  1.415  0.367  0.096  0.083  0.089  0.089
 0.798  1.418  0.371  0.096  0.086  0.090  0.090
 0.800  1.419  0.375  0.098  0.090  0.092  0.092
 0.802  1.421  0.379  0.099  0.093  0.094  0.094
 0.804  1.424  0.383  0.100  0.096  0.096  0.096
 0.806  1.426  0.385  0.102  0.099  0.098  0.098
 0.808  1.429  0.389  0.103  0.102  0.100  0.100
