# IsPeriodic    : True
# Period        : 0.551130 days
# Normalization : <g_mag>=0
# 
# Phase u_mag  g_mag  r_mag  i_mag  z_mag  y_mag
 0.000  0.374 -0.787 -0.680 -0.596 -0.506 -0.506
 0.002  0.374 -0.789 -0.680 -0.596 -0.506 -0.506
 0.004  0.374 -0.787 -0.679 -0.595 -0.505 -0.505
 0.006  0.375 -0.786 -0.678 -0.594 -0.504 -0.504
 0.008  0.376 -0.785 -0.677 -0.593 -0.503 -0.503
 0.010  0.378 -0.782 -0.676 -0.591 -0.502 -0.502
 0.012  0.380 -0.780 -0.674 -0.590 -0.500 -0.500
 0.014  0.382 -0.777 -0.672 -0.588 -0.499 -0.499
 0.016  0.384 -0.775 -0.670 -0.586 -0.497 -0.497
 0.018  0.388 -0.771 -0.668 -0.583 -0.496 -0.496
 0.020  0.391 -0.768 -0.665 -0.581 -0.494 -0.494
 0.022  0.393 -0.764 -0.663 -0.578 -0.492 -0.492
 0.024  0.397 -0.760 -0.661 -0.576 -0.490 -0.490
 0.026  0.402 -0.757 -0.658 -0.573 -0.488 -0.488
 0.028  0.405 -0.753 -0.655 -0.570 -0.486 -0.486
 0.030  0.408 -0.748 -0.652 -0.568 -0.484 -0.484
 0.032  0.413 -0.744 -0.649 -0.565 -0.482 -0.482
 0.034  0.418 -0.739 -0.647 -0.563 -0.480 -0.480
 0.036  0.422 -0.736 -0.643 -0.560 -0.478 -0.478
 0.038  0.427 -0.731 -0.640 -0.557 -0.476 -0.476
 0.040  0.432 -0.726 -0.636 -0.555 -0.474 -0.474
 0.042  0.437 -0.721 -0.633 -0.552 -0.472 -0.472
 0.044  0.443 -0.716 -0.629 -0.549 -0.470 -0.470
 0.046  0.449 -0.710 -0.626 -0.547 -0.467 -0.467
 0.048  0.455 -0.705 -0.622 -0.544 -0.465 -0.465
 0.050  0.461 -0.699 -0.618 -0.541 -0.463 -0.463
 0.052  0.468 -0.693 -0.614 -0.537 -0.460 -0.460
 0.054  0.474 -0.687 -0.609 -0.534 -0.458 -0.458
 0.056  0.481 -0.680 -0.605 -0.531 -0.454 -0.454
 0.058  0.488 -0.673 -0.600 -0.527 -0.452 -0.452
 0.060  0.495 -0.667 -0.595 -0.524 -0.449 -0.449
 0.062  0.503 -0.660 -0.591 -0.520 -0.446 -0.446
 0.064  0.512 -0.652 -0.586 -0.517 -0.444 -0.444
 0.066  0.518 -0.645 -0.580 -0.513 -0.441 -0.441
 0.068  0.528 -0.637 -0.575 -0.510 -0.438 -0.438
 0.070  0.536 -0.630 -0.570 -0.506 -0.435 -0.435
 0.072  0.544 -0.623 -0.565 -0.502 -0.432 -0.432
 0.074  0.553 -0.615 -0.559 -0.499 -0.429 -0.429
 0.076  0.561 -0.607 -0.554 -0.495 -0.426 -0.426
 0.078  0.571 -0.599 -0.549 -0.491 -0.423 -0.423
 0.080  0.579 -0.592 -0.543 -0.487 -0.419 -0.419
 0.082  0.588 -0.583 -0.537 -0.484 -0.417 -0.417
 0.084  0.596 -0.576 -0.532 -0.480 -0.414 -0.414
 0.086  0.604 -0.569 -0.527 -0.476 -0.411 -0.411
 0.088  0.612 -0.561 -0.522 -0.473 -0.408 -0.408
 0.090  0.620 -0.553 -0.517 -0.469 -0.405 -0.405
 0.092  0.628 -0.545 -0.512 -0.465 -0.402 -0.402
 0.094  0.637 -0.538 -0.508 -0.462 -0.399 -0.399
 0.096  0.643 -0.532 -0.502 -0.459 -0.397 -0.397
 0.098  0.652 -0.524 -0.498 -0.455 -0.394 -0.394
 0.100  0.658 -0.517 -0.494 -0.452 -0.391 -0.391
 0.102  0.665 -0.510 -0.489 -0.449 -0.389 -0.389
 0.104  0.672 -0.504 -0.485 -0.445 -0.386 -0.386
 0.106  0.679 -0.496 -0.481 -0.443 -0.384 -0.384
 0.108  0.686 -0.490 -0.476 -0.439 -0.381 -0.381
 0.110  0.693 -0.483 -0.472 -0.436 -0.379 -0.379
 0.112  0.700 -0.477 -0.467 -0.433 -0.376 -0.376
 0.114  0.706 -0.470 -0.463 -0.431 -0.374 -0.374
 0.116  0.713 -0.463 -0.460 -0.428 -0.372 -0.372
 0.118  0.719 -0.457 -0.455 -0.425 -0.369 -0.369
 0.120  0.726 -0.451 -0.452 -0.422 -0.367 -0.367
 0.122  0.731 -0.445 -0.448 -0.419 -0.365 -0.365
 0.124  0.737 -0.438 -0.444 -0.416 -0.363 -0.363
 0.126  0.743 -0.432 -0.440 -0.414 -0.360 -0.360
 0.128  0.749 -0.426 -0.437 -0.411 -0.359 -0.359
 0.130  0.755 -0.421 -0.433 -0.409 -0.357 -0.357
 0.132  0.759 -0.415 -0.431 -0.406 -0.355 -0.355
 0.134  0.765 -0.410 -0.427 -0.404 -0.353 -0.353
 0.136  0.770 -0.404 -0.424 -0.402 -0.351 -0.351
 0.138  0.775 -0.399 -0.421 -0.399 -0.349 -0.349
 0.140  0.780 -0.393 -0.418 -0.397 -0.347 -0.347
 0.142  0.785 -0.388 -0.415 -0.395 -0.345 -0.345
 0.144  0.789 -0.383 -0.412 -0.393 -0.344 -0.344
 0.146  0.794 -0.377 -0.409 -0.391 -0.342 -0.342
 0.148  0.799 -0.372 -0.406 -0.389 -0.340 -0.340
 0.150  0.803 -0.367 -0.404 -0.386 -0.339 -0.339
 0.152  0.808 -0.362 -0.400 -0.385 -0.337 -0.337
 0.154  0.812 -0.357 -0.397 -0.383 -0.335 -0.335
 0.156  0.817 -0.352 -0.395 -0.381 -0.334 -0.334
 0.158  0.822 -0.346 -0.392 -0.379 -0.332 -0.332
 0.160  0.826 -0.341 -0.389 -0.376 -0.330 -0.330
 0.162  0.830 -0.337 -0.386 -0.375 -0.329 -0.329
 0.164  0.834 -0.332 -0.383 -0.373 -0.327 -0.327
 0.166  0.839 -0.327 -0.381 -0.371 -0.325 -0.325
 0.168  0.844 -0.322 -0.377 -0.369 -0.324 -0.324
 0.170  0.848 -0.317 -0.375 -0.367 -0.322 -0.322
 0.172  0.853 -0.312 -0.372 -0.365 -0.321 -0.321
 0.174  0.858 -0.307 -0.369 -0.363 -0.319 -0.319
 0.176  0.861 -0.302 -0.366 -0.361 -0.317 -0.317
 0.178  0.866 -0.297 -0.363 -0.359 -0.316 -0.316
 0.180  0.870 -0.292 -0.361 -0.356 -0.314 -0.314
 0.182  0.875 -0.287 -0.357 -0.354 -0.313 -0.313
 0.184  0.880 -0.282 -0.355 -0.352 -0.311 -0.311
 0.186  0.884 -0.278 -0.352 -0.351 -0.309 -0.309
 0.188  0.889 -0.273 -0.348 -0.349 -0.308 -0.308
 0.190  0.892 -0.268 -0.346 -0.346 -0.306 -0.306
 0.192  0.897 -0.263 -0.343 -0.344 -0.305 -0.305
 0.194  0.902 -0.258 -0.340 -0.342 -0.303 -0.303
 0.196  0.906 -0.253 -0.337 -0.340 -0.301 -0.301
 0.198  0.911 -0.248 -0.334 -0.338 -0.300 -0.300
 0.200  0.915 -0.243 -0.331 -0.336 -0.298 -0.298
 0.202  0.919 -0.238 -0.328 -0.334 -0.297 -0.297
 0.204  0.924 -0.233 -0.325 -0.332 -0.295 -0.295
 0.206  0.928 -0.228 -0.322 -0.330 -0.293 -0.293
 0.208  0.933 -0.224 -0.320 -0.328 -0.292 -0.292
 0.210  0.936 -0.219 -0.316 -0.326 -0.290 -0.290
 0.212  0.941 -0.214 -0.313 -0.324 -0.288 -0.288
 0.214  0.946 -0.209 -0.310 -0.322 -0.287 -0.287
 0.216  0.950 -0.204 -0.307 -0.319 -0.285 -0.285
 0.218  0.955 -0.200 -0.305 -0.317 -0.283 -0.283
 0.220  0.958 -0.195 -0.301 -0.315 -0.281 -0.281
 0.222  0.963 -0.190 -0.299 -0.313 -0.280 -0.280
 0.224  0.968 -0.185 -0.295 -0.311 -0.278 -0.278
 0.226  0.971 -0.181 -0.293 -0.309 -0.276 -0.276
 0.228  0.976 -0.176 -0.290 -0.307 -0.275 -0.275
 0.230  0.980 -0.172 -0.287 -0.304 -0.273 -0.273
 0.232  0.984 -0.167 -0.284 -0.302 -0.272 -0.272
 0.234  0.988 -0.162 -0.281 -0.300 -0.270 -0.270
 0.236  0.992 -0.158 -0.279 -0.298 -0.269 -0.269
 0.238  0.996 -0.154 -0.276 -0.297 -0.267 -0.267
 0.240  1.000 -0.150 -0.273 -0.295 -0.266 -0.266
 0.242  1.005 -0.145 -0.270 -0.292 -0.264 -0.264
 0.244  1.008 -0.141 -0.267 -0.290 -0.263 -0.263
 0.246  1.011 -0.136 -0.265 -0.288 -0.261 -0.261
 0.248  1.016 -0.133 -0.262 -0.287 -0.259 -0.259
 0.250  1.020 -0.128 -0.259 -0.285 -0.258 -0.258
 0.252  1.023 -0.124 -0.257 -0.282 -0.256 -0.256
 0.254  1.028 -0.120 -0.254 -0.280 -0.255 -0.255
 0.256  1.031 -0.115 -0.251 -0.279 -0.253 -0.253
 0.258  1.035 -0.112 -0.249 -0.277 -0.251 -0.251
 0.260  1.038 -0.108 -0.246 -0.275 -0.250 -0.250
 0.262  1.042 -0.104 -0.244 -0.273 -0.248 -0.248
 0.264  1.046 -0.101 -0.241 -0.271 -0.246 -0.246
 0.266  1.050 -0.097 -0.238 -0.269 -0.245 -0.245
 0.268  1.053 -0.093 -0.237 -0.267 -0.243 -0.243
 0.270  1.057 -0.090 -0.234 -0.265 -0.242 -0.242
 0.272  1.060 -0.086 -0.231 -0.263 -0.240 -0.240
 0.274  1.064 -0.082 -0.229 -0.262 -0.239 -0.239
 0.276  1.067 -0.079 -0.227 -0.260 -0.238 -0.238
 0.278  1.071 -0.075 -0.224 -0.258 -0.236 -0.236
 0.280  1.074 -0.071 -0.222 -0.256 -0.234 -0.234
 0.282  1.077 -0.068 -0.219 -0.255 -0.233 -0.233
 0.284  1.080 -0.064 -0.217 -0.253 -0.231 -0.231
 0.286  1.083 -0.061 -0.215 -0.251 -0.229 -0.229
 0.288  1.087 -0.058 -0.212 -0.249 -0.228 -0.228
 0.290  1.090 -0.054 -0.210 -0.248 -0.226 -0.226
 0.292  1.094 -0.052 -0.208 -0.245 -0.225 -0.225
 0.294  1.097 -0.048 -0.206 -0.244 -0.224 -0.224
 0.296  1.099 -0.044 -0.203 -0.242 -0.222 -0.222
 0.298  1.103 -0.040 -0.201 -0.240 -0.221 -0.221
 0.300  1.106 -0.038 -0.199 -0.239 -0.219 -0.219
 0.302  1.110 -0.034 -0.196 -0.237 -0.218 -0.218
 0.304  1.112 -0.031 -0.195 -0.235 -0.216 -0.216
 0.306  1.116 -0.028 -0.192 -0.233 -0.214 -0.214
 0.308  1.119 -0.025 -0.189 -0.232 -0.213 -0.213
 0.310  1.123 -0.021 -0.188 -0.230 -0.211 -0.211
 0.312  1.125 -0.017 -0.185 -0.228 -0.210 -0.210
 0.314  1.128 -0.013 -0.183 -0.226 -0.208 -0.208
 0.316  1.132 -0.011 -0.181 -0.225 -0.207 -0.207
 0.318  1.135 -0.007 -0.178 -0.223 -0.205 -0.205
 0.320  1.138 -0.004 -0.176 -0.221 -0.204 -0.204
 0.322  1.141  0.000 -0.174 -0.220 -0.203 -0.203
 0.324  1.145  0.004 -0.172 -0.218 -0.201 -0.201
 0.326  1.147  0.007 -0.169 -0.216 -0.199 -0.199
 0.328  1.150  0.011 -0.167 -0.214 -0.198 -0.198
 0.330  1.154  0.015 -0.165 -0.213 -0.196 -0.196
 0.332  1.157  0.018 -0.162 -0.211 -0.195 -0.195
 0.334  1.160  0.022 -0.160 -0.209 -0.193 -0.193
 0.336  1.163  0.026 -0.158 -0.207 -0.192 -0.192
 0.338  1.167  0.030 -0.155 -0.206 -0.191 -0.191
 0.340  1.169  0.033 -0.153 -0.203 -0.189 -0.189
 0.342  1.172  0.037 -0.151 -0.202 -0.187 -0.187
 0.344  1.175  0.041 -0.149 -0.200 -0.186 -0.186
 0.346  1.178  0.044 -0.146 -0.198 -0.184 -0.184
 0.348  1.182  0.048 -0.144 -0.196 -0.183 -0.183
 0.350  1.184  0.052 -0.142 -0.195 -0.181 -0.181
 0.352  1.187  0.055 -0.139 -0.193 -0.180 -0.180
 0.354  1.191  0.059 -0.138 -0.191 -0.178 -0.178
 0.356  1.193  0.063 -0.135 -0.189 -0.177 -0.177
 0.358  1.197  0.066 -0.132 -0.188 -0.176 -0.176
 0.360  1.199  0.071 -0.131 -0.186 -0.174 -0.174
 0.362  1.202  0.075 -0.128 -0.184 -0.172 -0.172
 0.364  1.206  0.079 -0.126 -0.182 -0.171 -0.171
 0.366  1.208  0.082 -0.124 -0.181 -0.169 -0.169
 0.368  1.212  0.086 -0.121 -0.178 -0.168 -0.168
 0.370  1.214  0.090 -0.119 -0.177 -0.166 -0.166
 0.372  1.218  0.093 -0.117 -0.175 -0.165 -0.165
 0.374  1.220  0.097 -0.115 -0.173 -0.164 -0.164
 0.376  1.223  0.101 -0.112 -0.172 -0.162 -0.162
 0.378  1.226  0.104 -0.110 -0.170 -0.161 -0.161
 0.380  1.229  0.108 -0.108 -0.168 -0.159 -0.159
 0.382  1.231  0.112 -0.105 -0.166 -0.157 -0.157
 0.384  1.235  0.115 -0.104 -0.165 -0.156 -0.156
 0.386  1.237  0.118 -0.101 -0.163 -0.154 -0.154
 0.388  1.241  0.122 -0.099 -0.161 -0.153 -0.153
 0.390  1.243  0.125 -0.097 -0.159 -0.151 -0.151
 0.392  1.246  0.129 -0.094 -0.158 -0.150 -0.150
 0.394  1.249  0.133 -0.092 -0.156 -0.148 -0.148
 0.396  1.252  0.135 -0.090 -0.154 -0.147 -0.147
 0.398  1.255  0.139 -0.088 -0.153 -0.145 -0.145
 0.400  1.258  0.143 -0.085 -0.151 -0.144 -0.144
 0.402  1.260  0.145 -0.083 -0.149 -0.142 -0.142
 0.404  1.264  0.149 -0.081 -0.147 -0.140 -0.140
 0.406  1.266  0.151 -0.079 -0.146 -0.139 -0.139
 0.408  1.268  0.155 -0.076 -0.144 -0.137 -0.137
 0.410  1.272  0.157 -0.075 -0.142 -0.136 -0.136
 0.412  1.274  0.161 -0.072 -0.141 -0.134 -0.134
 0.414  1.277  0.163 -0.070 -0.139 -0.132 -0.132
 0.416  1.280  0.167 -0.068 -0.137 -0.131 -0.131
 0.418  1.282  0.170 -0.066 -0.135 -0.129 -0.129
 0.420  1.286  0.172 -0.063 -0.134 -0.128 -0.128
 0.422  1.288  0.176 -0.062 -0.132 -0.126 -0.126
 0.424  1.290  0.178 -0.059 -0.130 -0.125 -0.125
 0.426  1.294  0.181 -0.057 -0.129 -0.123 -0.123
 0.428  1.296  0.183 -0.055 -0.127 -0.122 -0.122
 0.430  1.299  0.187 -0.053 -0.125 -0.120 -0.120
 0.432  1.301  0.189 -0.050 -0.124 -0.119 -0.119
 0.434  1.304  0.192 -0.048 -0.122 -0.117 -0.117
 0.436  1.307  0.194 -0.046 -0.120 -0.115 -0.115
 0.438  1.309  0.197 -0.044 -0.119 -0.114 -0.114
 0.440  1.311  0.199 -0.041 -0.117 -0.112 -0.112
 0.442  1.315  0.201 -0.040 -0.115 -0.110 -0.110
 0.444  1.317  0.204 -0.038 -0.114 -0.108 -0.108
 0.446  1.319  0.206 -0.035 -0.112 -0.107 -0.107
 0.448  1.322  0.209 -0.034 -0.110 -0.105 -0.105
 0.450  1.324  0.211 -0.031 -0.109 -0.104 -0.104
 0.452  1.326  0.214 -0.029 -0.107 -0.102 -0.102
 0.454  1.329  0.216 -0.027 -0.105 -0.101 -0.101
 0.456  1.331  0.219 -0.026 -0.104 -0.100 -0.100
 0.458  1.333  0.221 -0.023 -0.102 -0.098 -0.098
 0.460  1.336  0.224 -0.021 -0.100 -0.097 -0.097
 0.462  1.338  0.226 -0.020 -0.099 -0.095 -0.095
 0.464  1.340  0.227 -0.018 -0.097 -0.093 -0.093
 0.466  1.343  0.230 -0.016 -0.096 -0.092 -0.092
 0.468  1.345  0.232 -0.013 -0.094 -0.090 -0.090
 0.470  1.347  0.233 -0.012 -0.092 -0.089 -0.089
 0.472  1.349  0.236 -0.010 -0.091 -0.088 -0.088
 0.474  1.352  0.238 -0.008 -0.089 -0.087 -0.087
 0.476  1.354  0.240 -0.006 -0.088 -0.085 -0.085
 0.478  1.355  0.242 -0.005 -0.087 -0.083 -0.083
 0.480  1.358  0.244 -0.003 -0.084 -0.082 -0.082
 0.482  1.360  0.246 -0.001 -0.083 -0.081 -0.081
 0.484  1.362  0.248  0.001 -0.082 -0.079 -0.079
 0.486  1.363  0.249  0.002 -0.080 -0.078 -0.078
 0.488  1.366  0.252  0.004 -0.079 -0.077 -0.077
 0.490  1.368  0.253  0.006 -0.077 -0.075 -0.075
 0.492  1.369  0.256  0.008 -0.076 -0.074 -0.074
 0.494  1.371  0.257  0.009 -0.075 -0.073 -0.073
 0.496  1.374  0.258  0.011 -0.072 -0.071 -0.071
 0.498  1.375  0.260  0.013 -0.071 -0.070 -0.070
 0.500  1.377  0.262  0.014 -0.070 -0.068 -0.068
 0.502  1.378  0.263  0.015 -0.068 -0.067 -0.067
 0.504  1.381  0.265  0.017 -0.067 -0.066 -0.066
 0.506  1.382  0.267  0.019 -0.065 -0.065 -0.065
 0.508  1.384  0.268  0.020 -0.064 -0.063 -0.063
 0.510  1.385  0.269  0.022 -0.062 -0.062 -0.062
 0.512  1.388  0.270  0.023 -0.061 -0.061 -0.061
 0.514  1.389  0.273  0.024 -0.060 -0.060 -0.060
 0.516  1.390  0.274  0.026 -0.058 -0.058 -0.058
 0.518  1.391  0.275  0.028 -0.057 -0.057 -0.057
 0.520  1.393  0.276  0.029 -0.056 -0.056 -0.056
 0.522  1.395  0.278  0.030 -0.055 -0.055 -0.055
 0.524  1.396  0.279  0.031 -0.053 -0.054 -0.054
 0.526  1.397  0.280  0.033 -0.052 -0.053 -0.053
 0.528  1.398  0.281  0.034 -0.051 -0.051 -0.051
 0.530  1.399  0.281  0.035 -0.050 -0.051 -0.051
 0.532  1.400  0.283  0.036 -0.049 -0.050 -0.050
 0.534  1.402  0.284  0.037 -0.048 -0.048 -0.048
 0.536  1.403  0.285  0.038 -0.047 -0.048 -0.048
 0.538  1.404  0.286  0.039 -0.046 -0.046 -0.046
 0.540  1.405  0.286  0.041 -0.045 -0.046 -0.046
 0.542  1.406  0.287  0.042 -0.044 -0.045 -0.045
 0.544  1.407  0.289  0.043 -0.043 -0.044 -0.044
 0.546  1.408  0.289  0.043 -0.042 -0.043 -0.043
 0.548  1.410  0.290  0.044 -0.041 -0.042 -0.042
 0.550  1.410  0.290  0.045 -0.040 -0.041 -0.041
 0.552  1.411  0.291  0.046 -0.040 -0.040 -0.040
 0.554  1.412  0.291  0.047 -0.039 -0.039 -0.039
 0.556  1.412  0.292  0.048 -0.038 -0.038 -0.038
 0.558  1.413  0.292  0.049 -0.037 -0.038 -0.038
 0.560  1.413  0.294  0.050 -0.037 -0.037 -0.037
 0.562  1.414  0.294  0.050 -0.036 -0.036 -0.036
 0.564  1.414  0.294  0.050 -0.035 -0.035 -0.035
 0.566  1.415  0.295  0.051 -0.035 -0.035 -0.035
 0.568  1.415  0.295  0.052 -0.034 -0.034 -0.034
 0.570  1.417  0.295  0.053 -0.034 -0.033 -0.033
 0.572  1.417  0.295  0.053 -0.033 -0.032 -0.032
 0.574  1.417  0.295  0.054 -0.033 -0.031 -0.031
 0.576  1.418  0.296  0.055 -0.032 -0.031 -0.031
 0.578  1.418  0.296  0.055 -0.032 -0.030 -0.030
 0.580  1.418  0.296  0.056 -0.031 -0.030 -0.030
 0.582  1.418  0.296  0.056 -0.031 -0.029 -0.029
 0.584  1.419  0.296  0.057 -0.030 -0.028 -0.028
 0.586  1.419  0.296  0.057 -0.030 -0.028 -0.028
 0.588  1.419  0.296  0.057 -0.030 -0.027 -0.027
 0.590  1.419  0.297  0.057 -0.029 -0.026 -0.026
 0.592  1.419  0.297  0.058 -0.029 -0.026 -0.026
 0.594  1.420  0.297  0.058 -0.028 -0.025 -0.025
 0.596  1.420  0.297  0.058 -0.028 -0.025 -0.025
 0.598  1.420  0.297  0.059 -0.028 -0.024 -0.024
 0.600  1.420  0.297  0.059 -0.028 -0.023 -0.023
 0.602  1.420  0.299  0.059 -0.027 -0.022 -0.022
 0.604  1.420  0.299  0.060 -0.027 -0.021 -0.021
 0.606  1.420  0.299  0.060 -0.026 -0.021 -0.021
 0.608  1.420  0.299  0.060 -0.026 -0.020 -0.020
 0.610  1.420  0.300  0.060 -0.025 -0.019 -0.019
 0.612  1.420  0.300  0.061 -0.025 -0.019 -0.019
 0.614  1.420  0.300  0.061 -0.025 -0.018 -0.018
 0.616  1.420  0.300  0.061 -0.025 -0.018 -0.018
 0.618  1.420  0.301  0.061 -0.024 -0.017 -0.017
 0.620  1.420  0.301  0.061 -0.024 -0.016 -0.016
 0.622  1.420  0.301  0.061 -0.024 -0.015 -0.015
 0.624  1.420  0.302  0.061 -0.023 -0.014 -0.014
 0.626  1.419  0.302  0.062 -0.023 -0.014 -0.014
 0.628  1.419  0.302  0.062 -0.023 -0.013 -0.013
 0.630  1.419  0.303  0.062 -0.023 -0.013 -0.013
 0.632  1.419  0.303  0.062 -0.023 -0.012 -0.012
 0.634  1.419  0.303  0.062 -0.022 -0.011 -0.011
 0.636  1.418  0.305  0.061 -0.022 -0.010 -0.010
 0.638  1.418  0.305  0.061 -0.021 -0.009 -0.009
 0.640  1.418  0.305  0.061 -0.021 -0.009 -0.009
 0.642  1.418  0.306  0.061 -0.021 -0.008 -0.008
 0.644  1.417  0.306  0.061 -0.020 -0.008 -0.008
 0.646  1.417  0.306  0.061 -0.020 -0.007 -0.007
 0.648  1.417  0.307  0.061 -0.020 -0.006 -0.006
 0.650  1.415  0.307  0.061 -0.020 -0.005 -0.005
 0.652  1.415  0.307  0.060 -0.020 -0.004 -0.004
 0.654  1.415  0.308  0.060 -0.020 -0.004 -0.004
 0.656  1.415  0.308  0.060 -0.020 -0.003 -0.003
 0.658  1.414  0.308  0.060 -0.019 -0.003 -0.003
 0.660  1.414  0.308  0.060 -0.019 -0.002 -0.002
 0.662  1.414  0.308  0.059 -0.019 -0.001 -0.001
 0.664  1.413  0.310  0.059 -0.018 -0.001 -0.001
 0.666  1.413  0.310  0.059 -0.018 -0.001 -0.001
 0.668  1.413  0.310  0.059 -0.018 -0.000 -0.000
 0.670  1.412  0.310  0.058 -0.018  0.001  0.001
 0.672  1.412  0.310  0.058 -0.018  0.001  0.001
 0.674  1.412  0.308  0.058 -0.018  0.001  0.001
 0.676  1.411  0.308  0.057 -0.018  0.002  0.002
 0.678  1.411  0.308  0.057 -0.018  0.002  0.002
 0.680  1.411  0.308  0.057 -0.018  0.002  0.002
 0.682  1.411  0.308  0.057 -0.017  0.002  0.002
 0.684  1.410  0.307  0.057 -0.017  0.003  0.003
 0.686  1.410  0.307  0.057 -0.017  0.003  0.003
 0.688  1.410  0.306  0.056 -0.017  0.004  0.004
 0.690  1.408  0.306  0.056 -0.017  0.004  0.004
 0.692  1.408  0.306  0.056 -0.016  0.004  0.004
 0.694  1.408  0.305  0.055 -0.016  0.004  0.004
 0.696  1.407  0.305  0.055 -0.016  0.004  0.004
 0.698  1.407  0.303  0.054 -0.016  0.004  0.004
 0.700  1.407  0.302  0.054 -0.016  0.004  0.004
 0.702  1.406  0.302  0.054 -0.015  0.004  0.004
 0.704  1.406  0.301  0.053 -0.015  0.005  0.005
 0.706  1.406  0.300  0.053 -0.015  0.005  0.005
 0.708  1.406  0.300  0.052 -0.015  0.005  0.005
 0.710  1.405  0.299  0.052 -0.015  0.005  0.005
 0.712  1.405  0.297  0.051 -0.015  0.005  0.005
 0.714  1.405  0.296  0.051 -0.015  0.004  0.004
 0.716  1.404  0.295  0.050 -0.015  0.004  0.004
 0.718  1.404  0.294  0.050 -0.015  0.004  0.004
 0.720  1.404  0.292  0.050 -0.015  0.004  0.004
 0.722  1.404  0.291  0.050 -0.015  0.004  0.004
 0.724  1.403  0.291  0.050 -0.015  0.004  0.004
 0.726  1.403  0.290  0.050 -0.015  0.005  0.005
 0.728  1.403  0.289  0.050 -0.014  0.005  0.005
 0.730  1.403  0.289  0.050 -0.014  0.005  0.005
 0.732  1.402  0.289  0.050 -0.014  0.006  0.006
 0.734  1.402  0.289  0.050 -0.013  0.006  0.006
 0.736  1.402  0.289  0.050 -0.013  0.007  0.007
 0.738  1.402  0.289  0.050 -0.013  0.007  0.007
 0.740  1.400  0.289  0.050 -0.012  0.008  0.008
 0.742  1.400  0.289  0.051 -0.011  0.009  0.009
 0.744  1.400  0.290  0.052 -0.010  0.010  0.010
 0.746  1.400  0.290  0.052 -0.010  0.011  0.011
 0.748  1.400  0.291  0.053 -0.009  0.012  0.012
 0.750  1.400  0.292  0.054 -0.008  0.014  0.014
 0.752  1.399  0.294  0.055 -0.008  0.015  0.015
 0.754  1.399  0.295  0.056 -0.007  0.016  0.016
 0.756  1.399  0.296  0.057 -0.006  0.017  0.017
 0.758  1.399  0.297  0.058 -0.005  0.019  0.019
 0.760  1.399  0.299  0.059 -0.004  0.021  0.021
 0.762  1.399  0.301  0.060 -0.003  0.022  0.022
 0.764  1.399  0.302  0.062 -0.002  0.024  0.024
 0.766  1.399  0.305  0.063 -0.000  0.026  0.026
 0.768  1.399  0.307  0.064  0.000  0.028  0.028
 0.770  1.399  0.310  0.066  0.002  0.030  0.030
 0.772  1.399  0.312  0.068  0.003  0.033  0.033
 0.774  1.399  0.314  0.070  0.005  0.035  0.035
 0.776  1.398  0.317  0.071  0.006  0.038  0.038
 0.778  1.398  0.321  0.073  0.007  0.040  0.040
 0.780  1.398  0.323  0.075  0.009  0.043  0.043
 0.782  1.398  0.327  0.077  0.010  0.045  0.045
 0.784  1.398  0.330  0.079  0.012  0.048  0.048
 0.786  1.398  0.334  0.081  0.014  0.051  0.051
 0.788  1.398  0.338  0.084  0.015  0.053  0.053
 0.790  1.399  0.340  0.085  0.017  0.056  0.056
 0.792  1.399  0.344  0.088  0.019  0.059  0.059
 0.794  1.400  0.348  0.090  0.021  0.062  0.062
 0.796  1.400  0.351  0.092  0.022  0.064  0.064
 0.798  1.402  0.355  0.095  0.024  0.067  0.067
 0.800  1.403  0.359  0.098  0.026  0.070  0.070
 0.802  1.404  0.362  0.099  0.028  0.073  0.073
 0.804  1.405  0.366  0.102  0.030  0.075  0.075
 0.806  1.406  0.369  0.105  0.032  0.078  0.078
 0.808  1.408  0.372  0.107  0.034  0.080  0.080
