# IsPeriodic    : True
# Period        : 0.643397 days
# Normalization : <g_mag>=0
# 
# Phase u_mag  g_mag  r_mag  i_mag  z_mag  y_mag
 0.000  0.506 -0.649 -0.623 -0.569 -0.504 -0.504
 0.002  0.506 -0.650 -0.623 -0.569 -0.504 -0.504
 0.004  0.506 -0.649 -0.623 -0.569 -0.504 -0.504
 0.006  0.507 -0.648 -0.623 -0.569 -0.504 -0.504
 0.008  0.508 -0.647 -0.622 -0.568 -0.503 -0.503
 0.010  0.510 -0.645 -0.621 -0.568 -0.502 -0.502
 0.012  0.511 -0.643 -0.620 -0.566 -0.502 -0.502
 0.014  0.512 -0.641 -0.620 -0.565 -0.500 -0.500
 0.016  0.514 -0.639 -0.619 -0.564 -0.499 -0.499
 0.018  0.517 -0.636 -0.618 -0.562 -0.498 -0.498
 0.020  0.520 -0.633 -0.617 -0.561 -0.496 -0.496
 0.022  0.522 -0.630 -0.615 -0.559 -0.494 -0.494
 0.024  0.525 -0.627 -0.614 -0.558 -0.492 -0.492
 0.026  0.528 -0.624 -0.612 -0.556 -0.490 -0.490
 0.028  0.531 -0.621 -0.610 -0.555 -0.487 -0.487
 0.030  0.534 -0.617 -0.608 -0.553 -0.485 -0.485
 0.032  0.538 -0.614 -0.607 -0.551 -0.482 -0.482
 0.034  0.541 -0.610 -0.604 -0.549 -0.479 -0.479
 0.036  0.545 -0.607 -0.602 -0.548 -0.476 -0.476
 0.038  0.549 -0.603 -0.599 -0.546 -0.473 -0.473
 0.040  0.553 -0.599 -0.597 -0.544 -0.470 -0.470
 0.042  0.557 -0.595 -0.594 -0.542 -0.467 -0.467
 0.044  0.562 -0.591 -0.591 -0.540 -0.465 -0.465
 0.046  0.567 -0.586 -0.588 -0.538 -0.462 -0.462
 0.048  0.571 -0.581 -0.585 -0.535 -0.458 -0.458
 0.050  0.576 -0.576 -0.582 -0.533 -0.456 -0.456
 0.052  0.582 -0.571 -0.579 -0.531 -0.453 -0.453
 0.054  0.587 -0.566 -0.575 -0.528 -0.451 -0.451
 0.056  0.593 -0.561 -0.571 -0.526 -0.449 -0.449
 0.058  0.599 -0.555 -0.567 -0.523 -0.446 -0.446
 0.060  0.604 -0.550 -0.563 -0.521 -0.444 -0.444
 0.062  0.611 -0.544 -0.559 -0.518 -0.441 -0.441
 0.064  0.617 -0.538 -0.555 -0.515 -0.439 -0.439
 0.066  0.623 -0.532 -0.551 -0.512 -0.437 -0.437
 0.068  0.630 -0.526 -0.546 -0.509 -0.435 -0.435
 0.070  0.637 -0.520 -0.541 -0.506 -0.433 -0.433
 0.072  0.643 -0.514 -0.537 -0.503 -0.431 -0.431
 0.074  0.651 -0.508 -0.533 -0.500 -0.429 -0.429
 0.076  0.658 -0.500 -0.528 -0.497 -0.428 -0.428
 0.078  0.665 -0.494 -0.523 -0.494 -0.426 -0.426
 0.080  0.672 -0.488 -0.519 -0.490 -0.424 -0.424
 0.082  0.679 -0.481 -0.514 -0.487 -0.423 -0.423
 0.084  0.686 -0.475 -0.509 -0.485 -0.421 -0.421
 0.086  0.692 -0.469 -0.505 -0.482 -0.419 -0.419
 0.088  0.699 -0.463 -0.500 -0.478 -0.418 -0.418
 0.090  0.705 -0.456 -0.497 -0.475 -0.416 -0.416
 0.092  0.712 -0.450 -0.492 -0.473 -0.415 -0.415
 0.094  0.718 -0.444 -0.489 -0.470 -0.414 -0.414
 0.096  0.724 -0.439 -0.484 -0.467 -0.413 -0.413
 0.098  0.731 -0.433 -0.481 -0.464 -0.412 -0.412
 0.100  0.736 -0.426 -0.477 -0.462 -0.412 -0.412
 0.102  0.742 -0.420 -0.473 -0.459 -0.410 -0.410
 0.104  0.747 -0.415 -0.470 -0.456 -0.409 -0.409
 0.106  0.753 -0.409 -0.467 -0.454 -0.409 -0.409
 0.108  0.759 -0.404 -0.463 -0.451 -0.408 -0.408
 0.110  0.764 -0.398 -0.460 -0.449 -0.407 -0.407
 0.112  0.770 -0.393 -0.457 -0.447 -0.406 -0.406
 0.114  0.775 -0.388 -0.453 -0.444 -0.405 -0.405
 0.116  0.780 -0.382 -0.450 -0.442 -0.404 -0.404
 0.118  0.785 -0.377 -0.447 -0.440 -0.404 -0.404
 0.120  0.790 -0.372 -0.444 -0.438 -0.403 -0.403
 0.122  0.795 -0.367 -0.441 -0.435 -0.402 -0.402
 0.124  0.800 -0.362 -0.438 -0.433 -0.401 -0.401
 0.126  0.804 -0.357 -0.435 -0.431 -0.400 -0.400
 0.128  0.809 -0.352 -0.432 -0.429 -0.399 -0.399
 0.130  0.814 -0.347 -0.430 -0.427 -0.398 -0.398
 0.132  0.818 -0.342 -0.427 -0.425 -0.397 -0.397
 0.134  0.822 -0.338 -0.425 -0.424 -0.395 -0.395
 0.136  0.826 -0.333 -0.423 -0.422 -0.394 -0.394
 0.138  0.831 -0.329 -0.421 -0.420 -0.393 -0.393
 0.140  0.834 -0.324 -0.419 -0.418 -0.392 -0.392
 0.142  0.838 -0.320 -0.416 -0.417 -0.391 -0.391
 0.144  0.842 -0.316 -0.414 -0.415 -0.389 -0.389
 0.146  0.846 -0.311 -0.412 -0.414 -0.388 -0.388
 0.148  0.849 -0.307 -0.410 -0.412 -0.387 -0.387
 0.150  0.853 -0.303 -0.408 -0.410 -0.385 -0.385
 0.152  0.857 -0.299 -0.405 -0.409 -0.384 -0.384
 0.154  0.861 -0.295 -0.403 -0.407 -0.382 -0.382
 0.156  0.864 -0.291 -0.401 -0.406 -0.381 -0.381
 0.158  0.868 -0.286 -0.399 -0.404 -0.379 -0.379
 0.160  0.872 -0.282 -0.397 -0.403 -0.378 -0.378
 0.162  0.875 -0.278 -0.394 -0.401 -0.376 -0.376
 0.164  0.878 -0.274 -0.392 -0.400 -0.374 -0.374
 0.166  0.882 -0.269 -0.390 -0.398 -0.373 -0.373
 0.168  0.886 -0.265 -0.388 -0.397 -0.371 -0.371
 0.170  0.890 -0.261 -0.385 -0.395 -0.370 -0.370
 0.172  0.893 -0.257 -0.383 -0.393 -0.368 -0.368
 0.174  0.897 -0.253 -0.381 -0.392 -0.366 -0.366
 0.176  0.900 -0.249 -0.378 -0.390 -0.364 -0.364
 0.178  0.904 -0.245 -0.375 -0.389 -0.362 -0.362
 0.180  0.907 -0.241 -0.373 -0.387 -0.360 -0.360
 0.182  0.911 -0.237 -0.371 -0.385 -0.358 -0.358
 0.184  0.915 -0.233 -0.368 -0.384 -0.357 -0.357
 0.186  0.919 -0.229 -0.366 -0.382 -0.355 -0.355
 0.188  0.922 -0.225 -0.363 -0.380 -0.353 -0.353
 0.190  0.925 -0.221 -0.361 -0.379 -0.351 -0.351
 0.192  0.929 -0.217 -0.358 -0.378 -0.350 -0.350
 0.194  0.933 -0.213 -0.356 -0.376 -0.348 -0.348
 0.196  0.936 -0.209 -0.353 -0.374 -0.346 -0.346
 0.198  0.940 -0.205 -0.350 -0.372 -0.344 -0.344
 0.200  0.944 -0.201 -0.348 -0.371 -0.342 -0.342
 0.202  0.947 -0.197 -0.345 -0.369 -0.341 -0.341
 0.204  0.950 -0.192 -0.342 -0.368 -0.340 -0.340
 0.206  0.954 -0.188 -0.340 -0.366 -0.338 -0.338
 0.208  0.958 -0.184 -0.337 -0.364 -0.336 -0.336
 0.210  0.961 -0.180 -0.334 -0.363 -0.335 -0.335
 0.212  0.965 -0.176 -0.331 -0.361 -0.333 -0.333
 0.214  0.968 -0.172 -0.328 -0.359 -0.331 -0.331
 0.216  0.972 -0.168 -0.326 -0.358 -0.330 -0.330
 0.218  0.976 -0.165 -0.323 -0.356 -0.329 -0.329
 0.220  0.979 -0.161 -0.320 -0.354 -0.327 -0.327
 0.222  0.982 -0.157 -0.317 -0.352 -0.326 -0.326
 0.224  0.986 -0.153 -0.314 -0.351 -0.324 -0.324
 0.226  0.989 -0.149 -0.312 -0.349 -0.323 -0.323
 0.228  0.993 -0.145 -0.309 -0.348 -0.321 -0.321
 0.230  0.996 -0.142 -0.307 -0.346 -0.320 -0.320
 0.232  0.999 -0.138 -0.304 -0.344 -0.319 -0.319
 0.234  1.003 -0.134 -0.302 -0.342 -0.318 -0.318
 0.236  1.006 -0.131 -0.299 -0.341 -0.316 -0.316
 0.238  1.009 -0.127 -0.296 -0.340 -0.315 -0.315
 0.240  1.012 -0.124 -0.294 -0.338 -0.314 -0.314
 0.242  1.016 -0.120 -0.291 -0.336 -0.313 -0.313
 0.244  1.019 -0.116 -0.289 -0.335 -0.312 -0.312
 0.246  1.022 -0.112 -0.287 -0.333 -0.310 -0.310
 0.248  1.025 -0.109 -0.285 -0.331 -0.309 -0.309
 0.250  1.028 -0.105 -0.282 -0.330 -0.308 -0.308
 0.252  1.031 -0.102 -0.280 -0.328 -0.307 -0.307
 0.254  1.035 -0.099 -0.277 -0.327 -0.305 -0.305
 0.256  1.038 -0.095 -0.275 -0.325 -0.304 -0.304
 0.258  1.040 -0.092 -0.273 -0.324 -0.303 -0.303
 0.260  1.043 -0.089 -0.271 -0.322 -0.302 -0.302
 0.262  1.046 -0.086 -0.269 -0.320 -0.301 -0.301
 0.264  1.050 -0.083 -0.267 -0.318 -0.300 -0.300
 0.266  1.052 -0.080 -0.265 -0.317 -0.298 -0.298
 0.268  1.055 -0.077 -0.263 -0.316 -0.297 -0.297
 0.270  1.058 -0.074 -0.261 -0.314 -0.296 -0.296
 0.272  1.061 -0.071 -0.259 -0.313 -0.295 -0.295
 0.274  1.064 -0.068 -0.257 -0.311 -0.294 -0.294
 0.276  1.067 -0.065 -0.255 -0.310 -0.292 -0.292
 0.278  1.069 -0.062 -0.253 -0.308 -0.291 -0.291
 0.280  1.072 -0.059 -0.252 -0.306 -0.290 -0.290
 0.282  1.075 -0.056 -0.250 -0.305 -0.289 -0.289
 0.284  1.077 -0.053 -0.248 -0.303 -0.287 -0.287
 0.286  1.080 -0.051 -0.246 -0.302 -0.286 -0.286
 0.288  1.082 -0.048 -0.245 -0.300 -0.285 -0.285
 0.290  1.085 -0.045 -0.243 -0.299 -0.283 -0.283
 0.292  1.088 -0.043 -0.241 -0.297 -0.282 -0.282
 0.294  1.091 -0.039 -0.239 -0.296 -0.281 -0.281
 0.296  1.093 -0.036 -0.237 -0.294 -0.279 -0.279
 0.298  1.096 -0.033 -0.236 -0.293 -0.278 -0.278
 0.300  1.098 -0.031 -0.234 -0.292 -0.277 -0.277
 0.302  1.101 -0.028 -0.232 -0.290 -0.276 -0.276
 0.304  1.103 -0.025 -0.231 -0.289 -0.274 -0.274
 0.306  1.106 -0.023 -0.228 -0.287 -0.273 -0.273
 0.308  1.109 -0.020 -0.227 -0.285 -0.272 -0.272
 0.310  1.111 -0.017 -0.225 -0.284 -0.270 -0.270
 0.312  1.113 -0.014 -0.223 -0.282 -0.269 -0.269
 0.314  1.116 -0.011 -0.221 -0.281 -0.267 -0.267
 0.316  1.119 -0.009 -0.219 -0.279 -0.266 -0.266
 0.318  1.122 -0.006 -0.217 -0.278 -0.265 -0.265
 0.320  1.124 -0.003 -0.215 -0.276 -0.263 -0.263
 0.322  1.126  0.000 -0.213 -0.275 -0.262 -0.262
 0.324  1.129  0.003 -0.212 -0.273 -0.260 -0.260
 0.326  1.131  0.006 -0.209 -0.272 -0.259 -0.259
 0.328  1.134  0.009 -0.207 -0.271 -0.257 -0.257
 0.330  1.137  0.012 -0.206 -0.269 -0.256 -0.256
 0.332  1.140  0.015 -0.204 -0.267 -0.255 -0.255
 0.334  1.141  0.018 -0.201 -0.266 -0.253 -0.253
 0.336  1.144  0.021 -0.199 -0.264 -0.252 -0.252
 0.338  1.147  0.024 -0.198 -0.262 -0.250 -0.250
 0.340  1.149  0.027 -0.196 -0.261 -0.249 -0.249
 0.342  1.152  0.030 -0.193 -0.259 -0.247 -0.247
 0.344  1.154  0.033 -0.191 -0.258 -0.246 -0.246
 0.346  1.156  0.036 -0.189 -0.256 -0.245 -0.245
 0.348  1.159  0.040 -0.187 -0.255 -0.244 -0.244
 0.350  1.161  0.043 -0.185 -0.254 -0.242 -0.242
 0.352  1.164  0.046 -0.183 -0.252 -0.241 -0.241
 0.354  1.167  0.049 -0.181 -0.250 -0.239 -0.239
 0.356  1.169  0.052 -0.179 -0.249 -0.238 -0.238
 0.358  1.171  0.055 -0.176 -0.247 -0.236 -0.236
 0.360  1.173  0.059 -0.174 -0.245 -0.235 -0.235
 0.362  1.176  0.062 -0.172 -0.244 -0.234 -0.234
 0.364  1.179  0.065 -0.170 -0.242 -0.232 -0.232
 0.366  1.181  0.068 -0.168 -0.241 -0.231 -0.231
 0.368  1.184  0.071 -0.166 -0.240 -0.230 -0.230
 0.370  1.185  0.074 -0.163 -0.238 -0.229 -0.229
 0.372  1.188  0.077 -0.161 -0.237 -0.227 -0.227
 0.374  1.190  0.080 -0.159 -0.235 -0.226 -0.226
 0.376  1.193  0.083 -0.157 -0.233 -0.224 -0.224
 0.378  1.195  0.086 -0.155 -0.232 -0.223 -0.223
 0.380  1.198  0.089 -0.153 -0.230 -0.222 -0.222
 0.382  1.199  0.092 -0.151 -0.228 -0.220 -0.220
 0.384  1.202  0.095 -0.149 -0.227 -0.219 -0.219
 0.386  1.204  0.097 -0.147 -0.225 -0.218 -0.218
 0.388  1.207  0.100 -0.145 -0.224 -0.216 -0.216
 0.390  1.209  0.103 -0.143 -0.223 -0.215 -0.215
 0.392  1.212  0.106 -0.141 -0.221 -0.214 -0.214
 0.394  1.213  0.109 -0.139 -0.219 -0.213 -0.213
 0.396  1.216  0.111 -0.137 -0.218 -0.212 -0.212
 0.398  1.218  0.115 -0.135 -0.216 -0.210 -0.210
 0.400  1.221  0.118 -0.133 -0.214 -0.209 -0.209
 0.402  1.223  0.120 -0.131 -0.213 -0.208 -0.208
 0.404  1.226  0.123 -0.129 -0.211 -0.206 -0.206
 0.406  1.228  0.125 -0.127 -0.210 -0.205 -0.205
 0.408  1.229  0.128 -0.125 -0.209 -0.204 -0.204
 0.410  1.232  0.130 -0.123 -0.207 -0.202 -0.202
 0.412  1.234  0.133 -0.122 -0.205 -0.201 -0.201
 0.414  1.236  0.135 -0.119 -0.204 -0.200 -0.200
 0.416  1.239  0.138 -0.118 -0.202 -0.198 -0.198
 0.418  1.241  0.140 -0.116 -0.200 -0.197 -0.197
 0.420  1.243  0.142 -0.114 -0.199 -0.196 -0.196
 0.422  1.245  0.145 -0.112 -0.197 -0.195 -0.195
 0.424  1.247  0.147 -0.111 -0.196 -0.193 -0.193
 0.426  1.250  0.149 -0.108 -0.194 -0.192 -0.192
 0.428  1.252  0.151 -0.107 -0.193 -0.191 -0.191
 0.430  1.254  0.154 -0.105 -0.191 -0.190 -0.190
 0.432  1.256  0.156 -0.103 -0.190 -0.189 -0.189
 0.434  1.258  0.158 -0.102 -0.188 -0.188 -0.188
 0.436  1.260  0.160 -0.100 -0.186 -0.186 -0.186
 0.438  1.262  0.162 -0.098 -0.185 -0.185 -0.185
 0.440  1.264  0.164 -0.097 -0.183 -0.184 -0.184
 0.442  1.267  0.166 -0.095 -0.182 -0.183 -0.183
 0.444  1.269  0.168 -0.093 -0.180 -0.182 -0.182
 0.446  1.271  0.170 -0.092 -0.179 -0.181 -0.181
 0.448  1.272  0.172 -0.090 -0.178 -0.179 -0.179
 0.450  1.274  0.174 -0.089 -0.176 -0.178 -0.178
 0.452  1.276  0.176 -0.087 -0.175 -0.177 -0.177
 0.454  1.278  0.178 -0.086 -0.173 -0.176 -0.176
 0.456  1.280  0.180 -0.084 -0.172 -0.174 -0.174
 0.458  1.282  0.182 -0.083 -0.171 -0.173 -0.173
 0.460  1.284  0.184 -0.081 -0.170 -0.172 -0.172
 0.462  1.286  0.186 -0.080 -0.169 -0.171 -0.171
 0.464  1.287  0.187 -0.078 -0.167 -0.170 -0.170
 0.466  1.289  0.189 -0.077 -0.166 -0.169 -0.169
 0.468  1.291  0.192 -0.076 -0.165 -0.168 -0.168
 0.470  1.293  0.193 -0.075 -0.163 -0.167 -0.167
 0.472  1.295  0.195 -0.073 -0.162 -0.166 -0.166
 0.474  1.297  0.197 -0.072 -0.161 -0.165 -0.165
 0.476  1.299  0.198 -0.070 -0.161 -0.163 -0.163
 0.478  1.300  0.200 -0.070 -0.159 -0.162 -0.162
 0.480  1.301  0.202 -0.068 -0.158 -0.161 -0.161
 0.482  1.303  0.203 -0.067 -0.157 -0.160 -0.160
 0.484  1.305  0.205 -0.066 -0.156 -0.159 -0.159
 0.486  1.306  0.206 -0.065 -0.155 -0.158 -0.158
 0.488  1.308  0.208 -0.064 -0.154 -0.157 -0.157
 0.490  1.310  0.209 -0.062 -0.153 -0.156 -0.156
 0.492  1.311  0.211 -0.062 -0.152 -0.155 -0.155
 0.494  1.313  0.212 -0.061 -0.151 -0.154 -0.154
 0.496  1.315  0.213 -0.059 -0.151 -0.153 -0.153
 0.498  1.316  0.215 -0.059 -0.149 -0.152 -0.152
 0.500  1.317  0.216 -0.058 -0.149 -0.151 -0.151
 0.502  1.318  0.217 -0.057 -0.148 -0.150 -0.150
 0.504  1.320  0.219 -0.056 -0.147 -0.149 -0.149
 0.506  1.321  0.220 -0.055 -0.146 -0.148 -0.148
 0.508  1.323  0.221 -0.054 -0.145 -0.147 -0.147
 0.510  1.324  0.222 -0.053 -0.145 -0.146 -0.146
 0.512  1.326  0.223 -0.052 -0.144 -0.145 -0.145
 0.514  1.327  0.225 -0.051 -0.143 -0.145 -0.145
 0.516  1.328  0.226 -0.050 -0.142 -0.144 -0.144
 0.518  1.329  0.227 -0.049 -0.141 -0.142 -0.142
 0.520  1.330  0.228 -0.049 -0.141 -0.142 -0.142
 0.522  1.331  0.229 -0.048 -0.140 -0.141 -0.141
 0.524  1.332  0.230 -0.047 -0.140 -0.140 -0.140
 0.526  1.333  0.231 -0.046 -0.139 -0.139 -0.139
 0.528  1.334  0.232 -0.045 -0.138 -0.139 -0.139
 0.530  1.335  0.232 -0.044 -0.137 -0.137 -0.137
 0.532  1.336  0.233 -0.043 -0.137 -0.137 -0.137
 0.534  1.337  0.234 -0.043 -0.136 -0.136 -0.136
 0.536  1.338  0.235 -0.042 -0.135 -0.135 -0.135
 0.538  1.339  0.236 -0.040 -0.135 -0.134 -0.134
 0.540  1.340  0.236 -0.040 -0.134 -0.134 -0.134
 0.542  1.341  0.237 -0.039 -0.133 -0.132 -0.132
 0.544  1.342  0.238 -0.038 -0.132 -0.132 -0.132
 0.546  1.343  0.238 -0.038 -0.132 -0.131 -0.131
 0.548  1.344  0.239 -0.037 -0.131 -0.130 -0.130
 0.550  1.344  0.239 -0.036 -0.131 -0.129 -0.129
 0.552  1.345  0.240 -0.035 -0.130 -0.129 -0.129
 0.554  1.345  0.240 -0.034 -0.130 -0.128 -0.128
 0.556  1.345  0.241 -0.033 -0.129 -0.127 -0.127
 0.558  1.346  0.241 -0.032 -0.128 -0.126 -0.126
 0.560  1.346  0.242 -0.032 -0.128 -0.126 -0.126
 0.562  1.347  0.242 -0.031 -0.127 -0.125 -0.125
 0.564  1.347  0.242 -0.030 -0.127 -0.124 -0.124
 0.566  1.348  0.243 -0.029 -0.126 -0.123 -0.123
 0.568  1.348  0.243 -0.029 -0.125 -0.123 -0.123
 0.570  1.349  0.243 -0.028 -0.125 -0.122 -0.122
 0.572  1.349  0.243 -0.027 -0.125 -0.121 -0.121
 0.574  1.349  0.243 -0.027 -0.124 -0.120 -0.120
 0.576  1.350  0.244 -0.026 -0.124 -0.120 -0.120
 0.578  1.350  0.244 -0.025 -0.123 -0.119 -0.119
 0.580  1.350  0.244 -0.024 -0.123 -0.118 -0.118
 0.582  1.350  0.244 -0.024 -0.122 -0.118 -0.118
 0.584  1.351  0.244 -0.023 -0.121 -0.117 -0.117
 0.586  1.351  0.244 -0.022 -0.121 -0.116 -0.116
 0.588  1.351  0.244 -0.021 -0.121 -0.116 -0.116
 0.590  1.351  0.245 -0.021 -0.120 -0.115 -0.115
 0.592  1.351  0.245 -0.021 -0.120 -0.114 -0.114
 0.594  1.352  0.245 -0.020 -0.119 -0.114 -0.114
 0.596  1.352  0.245 -0.019 -0.118 -0.113 -0.113
 0.598  1.352  0.245 -0.019 -0.118 -0.113 -0.113
 0.600  1.352  0.245 -0.019 -0.117 -0.111 -0.111
 0.602  1.352  0.246 -0.018 -0.117 -0.111 -0.111
 0.604  1.352  0.246 -0.017 -0.117 -0.110 -0.110
 0.606  1.352  0.246 -0.017 -0.116 -0.110 -0.110
 0.608  1.352  0.246 -0.016 -0.116 -0.109 -0.109
 0.610  1.352  0.247 -0.016 -0.115 -0.109 -0.109
 0.612  1.352  0.247 -0.016 -0.114 -0.108 -0.108
 0.614  1.352  0.247 -0.015 -0.114 -0.108 -0.108
 0.616  1.352  0.247 -0.015 -0.113 -0.107 -0.107
 0.618  1.352  0.248 -0.014 -0.113 -0.106 -0.106
 0.620  1.352  0.248 -0.014 -0.112 -0.105 -0.105
 0.622  1.352  0.248 -0.013 -0.111 -0.105 -0.105
 0.624  1.352  0.249 -0.013 -0.111 -0.104 -0.104
 0.626  1.351  0.249 -0.013 -0.110 -0.104 -0.104
 0.628  1.351  0.249 -0.013 -0.110 -0.103 -0.103
 0.630  1.351  0.250 -0.013 -0.109 -0.102 -0.102
 0.632  1.351  0.250 -0.012 -0.109 -0.102 -0.102
 0.634  1.351  0.250 -0.012 -0.108 -0.101 -0.101
 0.636  1.350  0.251 -0.012 -0.107 -0.100 -0.100
 0.638  1.350  0.251 -0.011 -0.107 -0.100 -0.100
 0.640  1.350  0.251 -0.011 -0.106 -0.099 -0.099
 0.642  1.350  0.252 -0.011 -0.106 -0.098 -0.098
 0.644  1.349  0.252 -0.010 -0.105 -0.098 -0.098
 0.646  1.349  0.252 -0.010 -0.104 -0.097 -0.097
 0.648  1.349  0.253 -0.010 -0.104 -0.097 -0.097
 0.650  1.348  0.253 -0.010 -0.103 -0.096 -0.096
 0.652  1.348  0.253 -0.010 -0.103 -0.095 -0.095
 0.654  1.348  0.254 -0.010 -0.102 -0.094 -0.094
 0.656  1.348  0.254 -0.010 -0.101 -0.094 -0.094
 0.658  1.347  0.254 -0.010 -0.101 -0.093 -0.093
 0.660  1.347  0.254 -0.010 -0.101 -0.093 -0.093
 0.662  1.347  0.254 -0.010 -0.100 -0.092 -0.092
 0.664  1.346  0.255 -0.010 -0.100 -0.091 -0.091
 0.666  1.346  0.255 -0.010 -0.100 -0.091 -0.091
 0.668  1.346  0.255 -0.010 -0.099 -0.090 -0.090
 0.670  1.345  0.255 -0.010 -0.099 -0.089 -0.089
 0.672  1.345  0.255 -0.010 -0.099 -0.088 -0.088
 0.674  1.345  0.254 -0.010 -0.098 -0.088 -0.088
 0.676  1.345  0.254 -0.010 -0.098 -0.087 -0.087
 0.678  1.345  0.254 -0.011 -0.097 -0.086 -0.086
 0.680  1.345  0.254 -0.011 -0.097 -0.086 -0.086
 0.682  1.345  0.254 -0.011 -0.097 -0.085 -0.085
 0.684  1.344  0.253 -0.011 -0.097 -0.084 -0.084
 0.686  1.344  0.253 -0.012 -0.097 -0.083 -0.083
 0.688  1.344  0.252 -0.012 -0.096 -0.083 -0.083
 0.690  1.343  0.252 -0.012 -0.096 -0.082 -0.082
 0.692  1.343  0.252 -0.013 -0.096 -0.081 -0.081
 0.694  1.343  0.251 -0.013 -0.096 -0.081 -0.081
 0.696  1.342  0.251 -0.013 -0.096 -0.080 -0.080
 0.698  1.342  0.250 -0.013 -0.096 -0.079 -0.079
 0.700  1.342  0.249 -0.014 -0.096 -0.078 -0.078
 0.702  1.341  0.249 -0.014 -0.096 -0.077 -0.077
 0.704  1.341  0.248 -0.015 -0.096 -0.077 -0.077
 0.706  1.341  0.247 -0.015 -0.096 -0.076 -0.076
 0.708  1.341  0.247 -0.016 -0.096 -0.075 -0.075
 0.710  1.340  0.246 -0.016 -0.096 -0.074 -0.074
 0.712  1.340  0.245 -0.016 -0.096 -0.073 -0.073
 0.714  1.340  0.244 -0.017 -0.096 -0.073 -0.073
 0.716  1.339  0.243 -0.017 -0.096 -0.072 -0.072
 0.718  1.339  0.242 -0.018 -0.096 -0.071 -0.071
 0.720  1.339  0.241 -0.018 -0.096 -0.070 -0.070
 0.722  1.339  0.240 -0.018 -0.096 -0.069 -0.069
 0.724  1.338  0.240 -0.019 -0.096 -0.068 -0.068
 0.726  1.338  0.239 -0.019 -0.096 -0.067 -0.067
 0.728  1.338  0.238 -0.018 -0.096 -0.067 -0.067
 0.730  1.338  0.238 -0.018 -0.096 -0.066 -0.066
 0.732  1.337  0.238 -0.018 -0.096 -0.065 -0.065
 0.734  1.337  0.238 -0.017 -0.095 -0.064 -0.064
 0.736  1.337  0.238 -0.016 -0.094 -0.063 -0.063
 0.738  1.337  0.238 -0.016 -0.094 -0.062 -0.062
 0.740  1.336  0.238 -0.015 -0.093 -0.061 -0.061
 0.742  1.336  0.238 -0.014 -0.093 -0.060 -0.060
 0.744  1.336  0.239 -0.013 -0.092 -0.060 -0.060
 0.746  1.336  0.239 -0.012 -0.091 -0.058 -0.058
 0.748  1.336  0.240 -0.011 -0.090 -0.057 -0.057
 0.750  1.336  0.241 -0.010 -0.089 -0.056 -0.056
 0.752  1.335  0.242 -0.008 -0.087 -0.055 -0.055
 0.754  1.335  0.243 -0.007 -0.086 -0.054 -0.054
 0.756  1.335  0.244 -0.005 -0.085 -0.053 -0.053
 0.758  1.335  0.245 -0.004 -0.083 -0.052 -0.052
 0.760  1.335  0.246 -0.002 -0.082 -0.050 -0.050
 0.762  1.335  0.248 -0.000 -0.080 -0.049 -0.049
 0.764  1.335  0.249  0.001 -0.079 -0.047 -0.047
 0.766  1.335  0.251  0.003 -0.078 -0.046 -0.046
 0.768  1.335  0.253  0.006 -0.075 -0.044 -0.044
 0.770  1.335  0.255  0.008 -0.073 -0.042 -0.042
 0.772  1.335  0.257  0.010 -0.072 -0.041 -0.041
 0.774  1.335  0.259  0.013 -0.069 -0.039 -0.039
 0.776  1.334  0.261  0.016 -0.067 -0.036 -0.036
 0.778  1.334  0.264  0.018 -0.065 -0.035 -0.035
 0.780  1.334  0.266  0.021 -0.062 -0.032 -0.032
 0.782  1.334  0.270  0.024 -0.060 -0.030 -0.030
 0.784  1.334  0.273  0.027 -0.058 -0.028 -0.028
 0.786  1.334  0.276  0.030 -0.055 -0.025 -0.025
 0.788  1.334  0.279  0.033 -0.052 -0.023 -0.023
 0.790  1.335  0.281  0.036 -0.049 -0.020 -0.020
 0.792  1.335  0.284  0.039 -0.047 -0.017 -0.017
 0.794  1.336  0.287  0.041 -0.045 -0.014 -0.014
 0.796  1.336  0.290  0.044 -0.042 -0.011 -0.011
 0.798  1.337  0.293  0.047 -0.039 -0.009 -0.009
 0.800  1.338  0.296  0.050 -0.037 -0.005 -0.005
 0.802  1.339  0.299  0.053 -0.034 -0.003 -0.003
 0.804  1.340  0.302  0.055 -0.032  0.001  0.001
 0.806  1.341  0.304  0.058 -0.030  0.004  0.004
 0.808  1.343  0.307  0.060 -0.027  0.007  0.007
