# IsPeriodic    : True
# Period        : 0.633298 days
# Normalization : <g_mag>=0
# 
# Phase u_mag  g_mag  r_mag  i_mag  z_mag  y_mag
 0.000  0.664 -0.491 -0.519 -0.504 -0.471 -0.471
 0.002  0.665 -0.491 -0.519 -0.504 -0.471 -0.471
 0.004  0.665 -0.490 -0.519 -0.504 -0.471 -0.471
 0.006  0.666 -0.489 -0.518 -0.504 -0.470 -0.470
 0.008  0.667 -0.488 -0.517 -0.503 -0.470 -0.470
 0.010  0.669 -0.487 -0.516 -0.503 -0.469 -0.469
 0.012  0.671 -0.484 -0.515 -0.502 -0.469 -0.469
 0.014  0.673 -0.482 -0.514 -0.502 -0.468 -0.468
 0.016  0.675 -0.480 -0.512 -0.501 -0.467 -0.467
 0.018  0.677 -0.477 -0.510 -0.500 -0.466 -0.466
 0.020  0.679 -0.474 -0.509 -0.499 -0.465 -0.465
 0.022  0.682 -0.471 -0.506 -0.498 -0.463 -0.463
 0.024  0.684 -0.469 -0.505 -0.496 -0.462 -0.462
 0.026  0.687 -0.466 -0.503 -0.495 -0.460 -0.460
 0.028  0.690 -0.463 -0.501 -0.494 -0.458 -0.458
 0.030  0.692 -0.459 -0.499 -0.492 -0.457 -0.457
 0.032  0.694 -0.456 -0.497 -0.490 -0.455 -0.455
 0.034  0.697 -0.453 -0.495 -0.488 -0.452 -0.452
 0.036  0.700 -0.450 -0.494 -0.487 -0.450 -0.450
 0.038  0.703 -0.447 -0.492 -0.485 -0.448 -0.448
 0.040  0.706 -0.443 -0.490 -0.483 -0.446 -0.446
 0.042  0.708 -0.440 -0.488 -0.481 -0.444 -0.444
 0.044  0.712 -0.436 -0.486 -0.479 -0.442 -0.442
 0.046  0.714 -0.433 -0.483 -0.476 -0.440 -0.440
 0.048  0.717 -0.429 -0.481 -0.474 -0.438 -0.438
 0.050  0.721 -0.425 -0.479 -0.472 -0.436 -0.436
 0.052  0.724 -0.421 -0.476 -0.470 -0.434 -0.434
 0.054  0.727 -0.417 -0.474 -0.468 -0.432 -0.432
 0.056  0.731 -0.412 -0.472 -0.466 -0.430 -0.430
 0.058  0.735 -0.408 -0.469 -0.464 -0.429 -0.429
 0.060  0.738 -0.404 -0.467 -0.462 -0.427 -0.427
 0.062  0.742 -0.399 -0.464 -0.460 -0.425 -0.425
 0.064  0.746 -0.394 -0.461 -0.458 -0.424 -0.424
 0.066  0.749 -0.389 -0.458 -0.456 -0.422 -0.422
 0.068  0.753 -0.384 -0.456 -0.454 -0.421 -0.421
 0.070  0.758 -0.379 -0.453 -0.452 -0.419 -0.419
 0.072  0.762 -0.374 -0.450 -0.450 -0.418 -0.418
 0.074  0.766 -0.369 -0.447 -0.449 -0.416 -0.416
 0.076  0.770 -0.364 -0.444 -0.447 -0.415 -0.415
 0.078  0.773 -0.359 -0.442 -0.445 -0.414 -0.414
 0.080  0.778 -0.354 -0.439 -0.443 -0.413 -0.413
 0.082  0.782 -0.349 -0.435 -0.442 -0.412 -0.412
 0.084  0.786 -0.344 -0.433 -0.440 -0.410 -0.410
 0.086  0.790 -0.339 -0.430 -0.439 -0.409 -0.409
 0.088  0.794 -0.334 -0.427 -0.437 -0.408 -0.408
 0.090  0.798 -0.329 -0.424 -0.436 -0.407 -0.407
 0.092  0.802 -0.324 -0.422 -0.434 -0.407 -0.407
 0.094  0.806 -0.319 -0.419 -0.433 -0.406 -0.406
 0.096  0.810 -0.314 -0.416 -0.432 -0.405 -0.405
 0.098  0.813 -0.309 -0.414 -0.430 -0.404 -0.404
 0.100  0.817 -0.305 -0.411 -0.429 -0.404 -0.404
 0.102  0.820 -0.300 -0.408 -0.428 -0.403 -0.403
 0.104  0.824 -0.296 -0.406 -0.426 -0.402 -0.402
 0.106  0.828 -0.291 -0.403 -0.425 -0.402 -0.402
 0.108  0.831 -0.287 -0.401 -0.424 -0.401 -0.401
 0.110  0.835 -0.283 -0.398 -0.423 -0.401 -0.401
 0.112  0.838 -0.278 -0.396 -0.422 -0.400 -0.400
 0.114  0.841 -0.275 -0.393 -0.420 -0.399 -0.399
 0.116  0.845 -0.271 -0.391 -0.420 -0.399 -0.399
 0.118  0.847 -0.267 -0.388 -0.418 -0.398 -0.398
 0.120  0.851 -0.263 -0.386 -0.417 -0.397 -0.397
 0.122  0.854 -0.259 -0.384 -0.416 -0.397 -0.397
 0.124  0.857 -0.255 -0.382 -0.415 -0.396 -0.396
 0.126  0.860 -0.252 -0.380 -0.414 -0.395 -0.395
 0.128  0.863 -0.248 -0.377 -0.413 -0.395 -0.395
 0.130  0.866 -0.245 -0.375 -0.412 -0.394 -0.394
 0.132  0.868 -0.241 -0.373 -0.411 -0.393 -0.393
 0.134  0.871 -0.237 -0.371 -0.409 -0.392 -0.392
 0.136  0.874 -0.235 -0.369 -0.409 -0.391 -0.391
 0.138  0.876 -0.231 -0.367 -0.407 -0.391 -0.391
 0.140  0.879 -0.228 -0.365 -0.406 -0.389 -0.389
 0.142  0.882 -0.225 -0.363 -0.405 -0.389 -0.389
 0.144  0.884 -0.222 -0.361 -0.404 -0.388 -0.388
 0.146  0.886 -0.219 -0.359 -0.403 -0.387 -0.387
 0.148  0.889 -0.216 -0.357 -0.401 -0.386 -0.386
 0.150  0.891 -0.213 -0.356 -0.400 -0.385 -0.385
 0.152  0.894 -0.210 -0.354 -0.399 -0.384 -0.384
 0.154  0.896 -0.207 -0.352 -0.398 -0.383 -0.383
 0.156  0.898 -0.204 -0.350 -0.397 -0.381 -0.381
 0.158  0.901 -0.201 -0.348 -0.395 -0.381 -0.381
 0.160  0.903 -0.199 -0.347 -0.394 -0.379 -0.379
 0.162  0.905 -0.196 -0.345 -0.393 -0.378 -0.378
 0.164  0.907 -0.193 -0.343 -0.392 -0.377 -0.377
 0.166  0.910 -0.191 -0.341 -0.391 -0.376 -0.376
 0.168  0.912 -0.188 -0.339 -0.389 -0.375 -0.375
 0.170  0.915 -0.185 -0.338 -0.388 -0.373 -0.373
 0.172  0.917 -0.182 -0.336 -0.387 -0.372 -0.372
 0.174  0.919 -0.179 -0.334 -0.385 -0.371 -0.371
 0.176  0.922 -0.176 -0.333 -0.384 -0.369 -0.369
 0.178  0.924 -0.173 -0.331 -0.383 -0.368 -0.368
 0.180  0.926 -0.170 -0.329 -0.381 -0.367 -0.367
 0.182  0.929 -0.168 -0.328 -0.380 -0.366 -0.366
 0.184  0.931 -0.165 -0.326 -0.379 -0.364 -0.364
 0.186  0.934 -0.162 -0.324 -0.377 -0.363 -0.363
 0.188  0.936 -0.158 -0.323 -0.376 -0.362 -0.362
 0.190  0.938 -0.155 -0.321 -0.374 -0.360 -0.360
 0.192  0.941 -0.152 -0.319 -0.373 -0.359 -0.359
 0.194  0.944 -0.150 -0.317 -0.372 -0.358 -0.358
 0.196  0.946 -0.147 -0.316 -0.370 -0.357 -0.357
 0.198  0.948 -0.144 -0.314 -0.369 -0.355 -0.355
 0.200  0.951 -0.141 -0.312 -0.368 -0.354 -0.354
 0.202  0.953 -0.138 -0.311 -0.367 -0.353 -0.353
 0.204  0.955 -0.135 -0.309 -0.366 -0.352 -0.352
 0.206  0.958 -0.132 -0.308 -0.364 -0.351 -0.351
 0.208  0.961 -0.129 -0.306 -0.363 -0.350 -0.350
 0.210  0.963 -0.126 -0.304 -0.362 -0.348 -0.348
 0.212  0.965 -0.123 -0.303 -0.361 -0.347 -0.347
 0.214  0.968 -0.119 -0.301 -0.360 -0.346 -0.346
 0.216  0.971 -0.116 -0.300 -0.359 -0.345 -0.345
 0.218  0.973 -0.114 -0.298 -0.358 -0.344 -0.344
 0.220  0.975 -0.111 -0.297 -0.356 -0.343 -0.343
 0.222  0.978 -0.107 -0.295 -0.356 -0.342 -0.342
 0.224  0.981 -0.104 -0.293 -0.354 -0.341 -0.341
 0.226  0.983 -0.101 -0.292 -0.354 -0.340 -0.340
 0.228  0.985 -0.098 -0.290 -0.352 -0.339 -0.339
 0.230  0.988 -0.096 -0.289 -0.352 -0.338 -0.338
 0.232  0.990 -0.093 -0.287 -0.350 -0.337 -0.337
 0.234  0.993 -0.090 -0.286 -0.350 -0.336 -0.336
 0.236  0.995 -0.087 -0.284 -0.348 -0.335 -0.335
 0.238  0.998 -0.084 -0.283 -0.348 -0.334 -0.334
 0.240  1.000 -0.081 -0.281 -0.347 -0.333 -0.333
 0.242  1.002 -0.078 -0.280 -0.346 -0.332 -0.332
 0.244  1.005 -0.075 -0.278 -0.345 -0.332 -0.332
 0.246  1.007 -0.072 -0.277 -0.344 -0.331 -0.331
 0.248  1.010 -0.070 -0.275 -0.343 -0.330 -0.330
 0.250  1.012 -0.067 -0.274 -0.343 -0.329 -0.329
 0.252  1.014 -0.065 -0.272 -0.342 -0.328 -0.328
 0.254  1.017 -0.062 -0.270 -0.341 -0.327 -0.327
 0.256  1.019 -0.059 -0.269 -0.340 -0.326 -0.326
 0.258  1.021 -0.057 -0.267 -0.339 -0.326 -0.326
 0.260  1.023 -0.054 -0.266 -0.339 -0.325 -0.325
 0.262  1.025 -0.052 -0.264 -0.338 -0.324 -0.324
 0.264  1.028 -0.049 -0.263 -0.337 -0.323 -0.323
 0.266  1.030 -0.047 -0.261 -0.336 -0.322 -0.322
 0.268  1.033 -0.044 -0.260 -0.335 -0.321 -0.321
 0.270  1.035 -0.042 -0.259 -0.335 -0.321 -0.321
 0.272  1.037 -0.040 -0.257 -0.334 -0.320 -0.320
 0.274  1.039 -0.037 -0.256 -0.333 -0.319 -0.319
 0.276  1.041 -0.035 -0.254 -0.332 -0.318 -0.318
 0.278  1.043 -0.033 -0.253 -0.331 -0.317 -0.317
 0.280  1.046 -0.031 -0.251 -0.330 -0.316 -0.316
 0.282  1.048 -0.029 -0.250 -0.329 -0.315 -0.315
 0.284  1.050 -0.026 -0.248 -0.328 -0.314 -0.314
 0.286  1.052 -0.024 -0.247 -0.327 -0.313 -0.313
 0.288  1.054 -0.022 -0.245 -0.326 -0.313 -0.313
 0.290  1.056 -0.020 -0.244 -0.325 -0.311 -0.311
 0.292  1.058 -0.018 -0.242 -0.324 -0.311 -0.311
 0.294  1.060 -0.016 -0.241 -0.323 -0.310 -0.310
 0.296  1.062 -0.013 -0.239 -0.322 -0.309 -0.309
 0.298  1.064 -0.011 -0.238 -0.321 -0.308 -0.308
 0.300  1.067 -0.009 -0.237 -0.319 -0.307 -0.307
 0.302  1.069 -0.007 -0.235 -0.318 -0.306 -0.306
 0.304  1.071 -0.005 -0.234 -0.317 -0.305 -0.305
 0.306  1.073 -0.003 -0.232 -0.316 -0.304 -0.304
 0.308  1.075 -0.001 -0.231 -0.315 -0.303 -0.303
 0.310  1.077  0.001 -0.230 -0.313 -0.302 -0.302
 0.312  1.079  0.003 -0.228 -0.312 -0.301 -0.301
 0.314  1.081  0.005 -0.227 -0.311 -0.300 -0.300
 0.316  1.083  0.007 -0.225 -0.309 -0.299 -0.299
 0.318  1.084  0.009 -0.223 -0.308 -0.298 -0.298
 0.320  1.086  0.011 -0.222 -0.306 -0.297 -0.297
 0.322  1.088  0.013 -0.221 -0.305 -0.296 -0.296
 0.324  1.090  0.015 -0.219 -0.303 -0.295 -0.295
 0.326  1.092  0.017 -0.218 -0.302 -0.294 -0.294
 0.328  1.094  0.019 -0.216 -0.300 -0.293 -0.293
 0.330  1.095  0.021 -0.215 -0.299 -0.292 -0.292
 0.332  1.097  0.023 -0.214 -0.298 -0.291 -0.291
 0.334  1.099  0.025 -0.212 -0.296 -0.289 -0.289
 0.336  1.101  0.027 -0.211 -0.295 -0.289 -0.289
 0.338  1.103  0.029 -0.210 -0.293 -0.287 -0.287
 0.340  1.104  0.031 -0.208 -0.292 -0.287 -0.287
 0.342  1.106  0.033 -0.207 -0.290 -0.285 -0.285
 0.344  1.108  0.035 -0.205 -0.289 -0.285 -0.285
 0.346  1.110  0.037 -0.204 -0.288 -0.284 -0.284
 0.348  1.112  0.039 -0.203 -0.286 -0.283 -0.283
 0.350  1.113  0.041 -0.201 -0.285 -0.282 -0.282
 0.352  1.115  0.043 -0.200 -0.284 -0.281 -0.281
 0.354  1.116  0.045 -0.198 -0.282 -0.280 -0.280
 0.356  1.118  0.047 -0.197 -0.281 -0.279 -0.279
 0.358  1.120  0.049 -0.195 -0.280 -0.278 -0.278
 0.360  1.122  0.051 -0.194 -0.279 -0.277 -0.277
 0.362  1.123  0.053 -0.193 -0.278 -0.276 -0.276
 0.364  1.125  0.054 -0.191 -0.276 -0.275 -0.275
 0.366  1.126  0.056 -0.190 -0.275 -0.274 -0.274
 0.368  1.128  0.059 -0.189 -0.274 -0.273 -0.273
 0.370  1.130  0.061 -0.187 -0.273 -0.272 -0.272
 0.372  1.131  0.062 -0.186 -0.272 -0.271 -0.271
 0.374  1.133  0.064 -0.185 -0.271 -0.270 -0.270
 0.376  1.134  0.067 -0.183 -0.269 -0.269 -0.269
 0.378  1.136  0.068 -0.182 -0.269 -0.268 -0.268
 0.380  1.137  0.070 -0.181 -0.267 -0.267 -0.267
 0.382  1.139  0.072 -0.179 -0.266 -0.266 -0.266
 0.384  1.141  0.074 -0.178 -0.265 -0.265 -0.265
 0.386  1.143  0.076 -0.176 -0.265 -0.264 -0.264
 0.388  1.144  0.078 -0.175 -0.263 -0.263 -0.263
 0.390  1.146  0.080 -0.174 -0.263 -0.262 -0.262
 0.392  1.147  0.082 -0.172 -0.262 -0.261 -0.261
 0.394  1.149  0.084 -0.171 -0.261 -0.260 -0.260
 0.396  1.151  0.086 -0.170 -0.260 -0.260 -0.260
 0.398  1.153  0.088 -0.168 -0.259 -0.258 -0.258
 0.400  1.154  0.090 -0.167 -0.258 -0.258 -0.258
 0.402  1.156  0.092 -0.166 -0.257 -0.257 -0.257
 0.404  1.157  0.094 -0.164 -0.257 -0.256 -0.256
 0.406  1.159  0.096 -0.163 -0.256 -0.255 -0.255
 0.408  1.161  0.098 -0.162 -0.255 -0.254 -0.254
 0.410  1.163  0.100 -0.161 -0.254 -0.253 -0.253
 0.412  1.164  0.102 -0.159 -0.253 -0.252 -0.252
 0.414  1.166  0.104 -0.158 -0.252 -0.251 -0.251
 0.416  1.167  0.105 -0.157 -0.251 -0.250 -0.250
 0.418  1.169  0.108 -0.155 -0.251 -0.249 -0.249
 0.420  1.170  0.110 -0.154 -0.249 -0.248 -0.248
 0.422  1.172  0.112 -0.152 -0.249 -0.248 -0.248
 0.424  1.174  0.114 -0.151 -0.248 -0.246 -0.246
 0.426  1.176  0.116 -0.150 -0.247 -0.246 -0.246
 0.428  1.177  0.118 -0.149 -0.246 -0.245 -0.245
 0.430  1.179  0.120 -0.147 -0.245 -0.244 -0.244
 0.432  1.180  0.122 -0.146 -0.244 -0.243 -0.243
 0.434  1.182  0.123 -0.145 -0.243 -0.243 -0.243
 0.436  1.184  0.126 -0.144 -0.242 -0.241 -0.241
 0.438  1.186  0.128 -0.142 -0.241 -0.241 -0.241
 0.440  1.187  0.130 -0.141 -0.240 -0.240 -0.240
 0.442  1.189  0.131 -0.140 -0.239 -0.239 -0.239
 0.444  1.190  0.134 -0.139 -0.238 -0.238 -0.238
 0.446  1.192  0.135 -0.137 -0.238 -0.237 -0.237
 0.448  1.194  0.137 -0.136 -0.236 -0.236 -0.236
 0.450  1.195  0.139 -0.135 -0.236 -0.235 -0.235
 0.452  1.196  0.141 -0.134 -0.234 -0.235 -0.235
 0.454  1.197  0.142 -0.133 -0.234 -0.234 -0.234
 0.456  1.199  0.144 -0.132 -0.232 -0.233 -0.233
 0.458  1.200  0.146 -0.131 -0.232 -0.232 -0.232
 0.460  1.201  0.147 -0.129 -0.230 -0.231 -0.231
 0.462  1.203  0.149 -0.128 -0.230 -0.231 -0.231
 0.464  1.204  0.150 -0.127 -0.228 -0.230 -0.230
 0.466  1.205  0.152 -0.126 -0.228 -0.229 -0.229
 0.468  1.207  0.153 -0.125 -0.226 -0.228 -0.228
 0.470  1.208  0.154 -0.124 -0.226 -0.227 -0.227
 0.472  1.209  0.156 -0.123 -0.224 -0.227 -0.227
 0.474  1.210  0.157 -0.122 -0.224 -0.226 -0.226
 0.476  1.211  0.159 -0.121 -0.223 -0.225 -0.225
 0.478  1.212  0.160 -0.120 -0.222 -0.224 -0.224
 0.480  1.213  0.161 -0.119 -0.221 -0.223 -0.223
 0.482  1.215  0.162 -0.118 -0.220 -0.223 -0.223
 0.484  1.215  0.164 -0.117 -0.219 -0.222 -0.222
 0.486  1.216  0.164 -0.116 -0.218 -0.221 -0.221
 0.488  1.217  0.166 -0.115 -0.217 -0.221 -0.221
 0.490  1.218  0.167 -0.115 -0.216 -0.220 -0.220
 0.492  1.219  0.168 -0.114 -0.215 -0.219 -0.219
 0.494  1.220  0.169 -0.113 -0.214 -0.218 -0.218
 0.496  1.221  0.170 -0.112 -0.214 -0.217 -0.217
 0.498  1.221  0.171 -0.111 -0.213 -0.217 -0.217
 0.500  1.222  0.172 -0.110 -0.212 -0.216 -0.216
 0.502  1.223  0.172 -0.110 -0.211 -0.215 -0.215
 0.504  1.223  0.173 -0.109 -0.210 -0.215 -0.215
 0.506  1.224  0.174 -0.108 -0.210 -0.214 -0.214
 0.508  1.225  0.175 -0.107 -0.209 -0.213 -0.213
 0.510  1.225  0.175 -0.106 -0.208 -0.213 -0.213
 0.512  1.226  0.176 -0.105 -0.207 -0.212 -0.212
 0.514  1.226  0.177 -0.105 -0.207 -0.211 -0.211
 0.516  1.227  0.177 -0.104 -0.206 -0.211 -0.211
 0.518  1.228  0.178 -0.103 -0.205 -0.210 -0.210
 0.520  1.228  0.179 -0.103 -0.205 -0.209 -0.209
 0.522  1.229  0.180 -0.102 -0.204 -0.209 -0.209
 0.524  1.229  0.180 -0.101 -0.204 -0.208 -0.208
 0.526  1.230  0.181 -0.101 -0.203 -0.207 -0.207
 0.528  1.230  0.182 -0.100 -0.203 -0.207 -0.207
 0.530  1.231  0.182 -0.099 -0.202 -0.206 -0.206
 0.532  1.232  0.182 -0.099 -0.202 -0.206 -0.206
 0.534  1.232  0.183 -0.098 -0.201 -0.205 -0.205
 0.536  1.232  0.184 -0.097 -0.201 -0.205 -0.205
 0.538  1.233  0.184 -0.097 -0.200 -0.204 -0.204
 0.540  1.234  0.185 -0.096 -0.200 -0.204 -0.204
 0.542  1.234  0.185 -0.096 -0.199 -0.203 -0.203
 0.544  1.234  0.185 -0.095 -0.199 -0.202 -0.202
 0.546  1.235  0.186 -0.094 -0.199 -0.202 -0.202
 0.548  1.236  0.186 -0.094 -0.198 -0.201 -0.201
 0.550  1.236  0.187 -0.093 -0.198 -0.200 -0.200
 0.552  1.236  0.187 -0.093 -0.197 -0.200 -0.200
 0.554  1.237  0.188 -0.092 -0.197 -0.200 -0.200
 0.556  1.237  0.188 -0.092 -0.197 -0.199 -0.199
 0.558  1.238  0.188 -0.091 -0.196 -0.198 -0.198
 0.560  1.238  0.188 -0.091 -0.196 -0.198 -0.198
 0.562  1.238  0.188 -0.090 -0.195 -0.197 -0.197
 0.564  1.239  0.189 -0.090 -0.195 -0.197 -0.197
 0.566  1.239  0.189 -0.089 -0.195 -0.196 -0.196
 0.568  1.240  0.189 -0.089 -0.194 -0.196 -0.196
 0.570  1.240  0.190 -0.088 -0.194 -0.195 -0.195
 0.572  1.240  0.190 -0.088 -0.193 -0.195 -0.195
 0.574  1.240  0.190 -0.087 -0.193 -0.194 -0.194
 0.576  1.241  0.190 -0.087 -0.193 -0.194 -0.194
 0.578  1.241  0.190 -0.086 -0.192 -0.193 -0.193
 0.580  1.242  0.190 -0.086 -0.192 -0.192 -0.192
 0.582  1.242  0.190 -0.085 -0.191 -0.192 -0.192
 0.584  1.242  0.190 -0.085 -0.191 -0.192 -0.192
 0.586  1.242  0.190 -0.085 -0.190 -0.191 -0.191
 0.588  1.243  0.190 -0.084 -0.190 -0.191 -0.191
 0.590  1.243  0.190 -0.084 -0.189 -0.190 -0.190
 0.592  1.243  0.190 -0.083 -0.189 -0.190 -0.190
 0.594  1.244  0.190 -0.083 -0.189 -0.189 -0.189
 0.596  1.244  0.190 -0.082 -0.188 -0.189 -0.189
 0.598  1.244  0.190 -0.082 -0.188 -0.188 -0.188
 0.600  1.244  0.190 -0.082 -0.187 -0.188 -0.188
 0.602  1.244  0.190 -0.081 -0.187 -0.187 -0.187
 0.604  1.244  0.190 -0.081 -0.187 -0.187 -0.187
 0.606  1.245  0.190 -0.081 -0.186 -0.186 -0.186
 0.608  1.245  0.190 -0.080 -0.185 -0.186 -0.186
 0.610  1.245  0.190 -0.080 -0.185 -0.186 -0.186
 0.612  1.245  0.190 -0.080 -0.185 -0.185 -0.185
 0.614  1.246  0.190 -0.080 -0.184 -0.185 -0.185
 0.616  1.246  0.190 -0.079 -0.184 -0.184 -0.184
 0.618  1.246  0.190 -0.079 -0.183 -0.184 -0.184
 0.620  1.246  0.190 -0.079 -0.183 -0.183 -0.183
 0.622  1.246  0.190 -0.079 -0.183 -0.183 -0.183
 0.624  1.246  0.190 -0.079 -0.182 -0.182 -0.182
 0.626  1.246  0.190 -0.078 -0.182 -0.182 -0.182
 0.628  1.246  0.190 -0.078 -0.181 -0.182 -0.182
 0.630  1.246  0.190 -0.078 -0.181 -0.181 -0.181
 0.632  1.246  0.190 -0.078 -0.181 -0.180 -0.180
 0.634  1.246  0.190 -0.078 -0.180 -0.180 -0.180
 0.636  1.246  0.190 -0.078 -0.180 -0.180 -0.180
 0.638  1.246  0.190 -0.078 -0.179 -0.179 -0.179
 0.640  1.246  0.190 -0.078 -0.179 -0.179 -0.179
 0.642  1.246  0.190 -0.077 -0.179 -0.178 -0.178
 0.644  1.246  0.190 -0.077 -0.179 -0.178 -0.178
 0.646  1.246  0.189 -0.077 -0.178 -0.177 -0.177
 0.648  1.246  0.189 -0.077 -0.178 -0.177 -0.177
 0.650  1.246  0.189 -0.077 -0.178 -0.176 -0.176
 0.652  1.246  0.189 -0.077 -0.177 -0.176 -0.176
 0.654  1.246  0.188 -0.077 -0.177 -0.175 -0.175
 0.656  1.246  0.188 -0.077 -0.177 -0.175 -0.175
 0.658  1.246  0.188 -0.077 -0.177 -0.174 -0.174
 0.660  1.246  0.188 -0.077 -0.177 -0.174 -0.174
 0.662  1.246  0.188 -0.077 -0.176 -0.173 -0.173
 0.664  1.246  0.188 -0.077 -0.176 -0.173 -0.173
 0.666  1.246  0.188 -0.077 -0.176 -0.172 -0.172
 0.668  1.245  0.187 -0.078 -0.176 -0.172 -0.172
 0.670  1.245  0.187 -0.078 -0.175 -0.171 -0.171
 0.672  1.245  0.187 -0.078 -0.175 -0.171 -0.171
 0.674  1.245  0.186 -0.078 -0.175 -0.170 -0.170
 0.676  1.244  0.186 -0.078 -0.175 -0.170 -0.170
 0.678  1.244  0.186 -0.078 -0.175 -0.169 -0.169
 0.680  1.244  0.185 -0.078 -0.175 -0.169 -0.169
 0.682  1.244  0.185 -0.079 -0.175 -0.168 -0.168
 0.684  1.244  0.185 -0.079 -0.175 -0.168 -0.168
 0.686  1.244  0.185 -0.079 -0.175 -0.167 -0.167
 0.688  1.243  0.185 -0.079 -0.175 -0.167 -0.167
 0.690  1.243  0.184 -0.080 -0.174 -0.166 -0.166
 0.692  1.243  0.184 -0.080 -0.174 -0.166 -0.166
 0.694  1.242  0.183 -0.080 -0.174 -0.165 -0.165
 0.696  1.242  0.183 -0.080 -0.174 -0.165 -0.165
 0.698  1.242  0.182 -0.081 -0.173 -0.164 -0.164
 0.700  1.242  0.182 -0.081 -0.173 -0.164 -0.164
 0.702  1.242  0.182 -0.081 -0.173 -0.163 -0.163
 0.704  1.241  0.182 -0.082 -0.172 -0.163 -0.163
 0.706  1.241  0.181 -0.082 -0.172 -0.162 -0.162
 0.708  1.240  0.181 -0.082 -0.172 -0.161 -0.161
 0.710  1.240  0.180 -0.083 -0.172 -0.161 -0.161
 0.712  1.240  0.180 -0.084 -0.171 -0.160 -0.160
 0.714  1.239  0.180 -0.084 -0.171 -0.160 -0.160
 0.716  1.239  0.180 -0.085 -0.170 -0.159 -0.159
 0.718  1.238  0.179 -0.085 -0.170 -0.158 -0.158
 0.720  1.238  0.178 -0.085 -0.169 -0.158 -0.158
 0.722  1.238  0.178 -0.086 -0.169 -0.157 -0.157
 0.724  1.238  0.177 -0.086 -0.168 -0.157 -0.157
 0.726  1.238  0.177 -0.087 -0.168 -0.156 -0.156
 0.728  1.238  0.177 -0.087 -0.167 -0.155 -0.155
 0.730  1.238  0.177 -0.087 -0.166 -0.155 -0.155
 0.732  1.238  0.177 -0.087 -0.166 -0.154 -0.154
 0.734  1.238  0.177 -0.087 -0.165 -0.153 -0.153
 0.736  1.238  0.176 -0.087 -0.164 -0.153 -0.153
 0.738  1.239  0.176 -0.086 -0.164 -0.152 -0.152
 0.740  1.240  0.176 -0.086 -0.163 -0.151 -0.151
 0.742  1.240  0.176 -0.086 -0.162 -0.151 -0.151
 0.744  1.242  0.176 -0.085 -0.161 -0.150 -0.150
 0.746  1.242  0.176 -0.085 -0.160 -0.149 -0.149
 0.748  1.244  0.176 -0.084 -0.160 -0.149 -0.149
 0.750  1.244  0.177 -0.083 -0.159 -0.148 -0.148
 0.752  1.246  0.177 -0.082 -0.158 -0.147 -0.147
 0.754  1.247  0.177 -0.081 -0.157 -0.146 -0.146
 0.756  1.249  0.177 -0.080 -0.156 -0.145 -0.145
 0.758  1.250  0.177 -0.079 -0.155 -0.145 -0.145
 0.760  1.252  0.177 -0.078 -0.154 -0.143 -0.143
 0.762  1.254  0.178 -0.077 -0.153 -0.143 -0.143
 0.764  1.255  0.178 -0.075 -0.152 -0.141 -0.141
 0.766  1.257  0.179 -0.074 -0.151 -0.140 -0.140
 0.768  1.259  0.180 -0.073 -0.150 -0.139 -0.139
 0.770  1.262  0.180 -0.071 -0.149 -0.138 -0.138
 0.772  1.265  0.180 -0.069 -0.148 -0.137 -0.137
 0.774  1.267  0.181 -0.067 -0.146 -0.135 -0.135
 0.776  1.270  0.182 -0.066 -0.145 -0.133 -0.133
 0.778  1.273  0.182 -0.063 -0.144 -0.132 -0.132
 0.780  1.276  0.183 -0.061 -0.143 -0.130 -0.130
 0.782  1.279  0.184 -0.059 -0.142 -0.129 -0.129
 0.784  1.282  0.185 -0.057 -0.140 -0.127 -0.127
 0.786  1.285  0.186 -0.054 -0.139 -0.125 -0.125
 0.788  1.288  0.187 -0.052 -0.137 -0.124 -0.124
 0.790  1.292  0.188 -0.050 -0.136 -0.122 -0.122
 0.792  1.295  0.188 -0.047 -0.135 -0.120 -0.120
 0.794  1.298  0.190 -0.045 -0.133 -0.118 -0.118
 0.796  1.301  0.190 -0.043 -0.132 -0.116 -0.116
 0.798  1.304  0.191 -0.041 -0.131 -0.114 -0.114
 0.800  1.306  0.193 -0.038 -0.129 -0.111 -0.111
 0.802  1.309  0.193 -0.036 -0.128 -0.109 -0.109
 0.804  1.312  0.194 -0.034 -0.127 -0.107 -0.107
 0.806  1.314  0.195 -0.031 -0.125 -0.104 -0.104
 0.808  1.316  0.196 -0.029 -0.124 -0.102 -0.102
