# IsPeriodic    : True
# Period        : 0.605596 days
# Normalization : <g_mag>=0
# 
# Phase u_mag  g_mag  r_mag  i_mag  z_mag  y_mag
 0.000  0.747 -0.410 -0.495 -0.478 -0.466 -0.466
 0.002  0.747 -0.410 -0.495 -0.478 -0.466 -0.466
 0.004  0.747 -0.409 -0.494 -0.478 -0.465 -0.465
 0.006  0.748 -0.409 -0.494 -0.478 -0.465 -0.465
 0.008  0.749 -0.409 -0.494 -0.478 -0.464 -0.464
 0.010  0.750 -0.408 -0.493 -0.477 -0.463 -0.463
 0.012  0.751 -0.407 -0.492 -0.476 -0.462 -0.462
 0.014  0.753 -0.407 -0.492 -0.476 -0.461 -0.461
 0.016  0.754 -0.405 -0.491 -0.475 -0.460 -0.460
 0.018  0.756 -0.404 -0.490 -0.474 -0.459 -0.459
 0.020  0.758 -0.403 -0.489 -0.474 -0.458 -0.458
 0.022  0.760 -0.401 -0.488 -0.473 -0.456 -0.456
 0.024  0.763 -0.400 -0.486 -0.472 -0.455 -0.455
 0.026  0.765 -0.398 -0.485 -0.471 -0.454 -0.454
 0.028  0.767 -0.396 -0.484 -0.470 -0.453 -0.453
 0.030  0.769 -0.394 -0.483 -0.469 -0.451 -0.451
 0.032  0.772 -0.392 -0.481 -0.468 -0.450 -0.450
 0.034  0.774 -0.389 -0.480 -0.467 -0.449 -0.449
 0.036  0.776 -0.386 -0.479 -0.466 -0.448 -0.448
 0.038  0.779 -0.384 -0.477 -0.465 -0.447 -0.447
 0.040  0.782 -0.381 -0.476 -0.464 -0.446 -0.446
 0.042  0.784 -0.378 -0.474 -0.463 -0.444 -0.444
 0.044  0.787 -0.374 -0.472 -0.462 -0.443 -0.443
 0.046  0.789 -0.371 -0.471 -0.461 -0.442 -0.442
 0.048  0.792 -0.367 -0.469 -0.460 -0.441 -0.441
 0.050  0.795 -0.364 -0.467 -0.459 -0.440 -0.440
 0.052  0.797 -0.361 -0.466 -0.458 -0.438 -0.438
 0.054  0.800 -0.356 -0.464 -0.457 -0.437 -0.437
 0.056  0.803 -0.352 -0.462 -0.455 -0.436 -0.436
 0.058  0.806 -0.349 -0.460 -0.454 -0.435 -0.435
 0.060  0.809 -0.345 -0.458 -0.453 -0.434 -0.434
 0.062  0.812 -0.341 -0.456 -0.451 -0.433 -0.433
 0.064  0.815 -0.336 -0.453 -0.450 -0.431 -0.431
 0.066  0.818 -0.332 -0.452 -0.449 -0.430 -0.430
 0.068  0.822 -0.329 -0.449 -0.448 -0.429 -0.429
 0.070  0.825 -0.325 -0.447 -0.446 -0.428 -0.428
 0.072  0.828 -0.321 -0.445 -0.445 -0.427 -0.427
 0.074  0.831 -0.317 -0.442 -0.443 -0.425 -0.425
 0.076  0.835 -0.314 -0.440 -0.442 -0.424 -0.424
 0.078  0.839 -0.310 -0.437 -0.440 -0.423 -0.423
 0.080  0.842 -0.306 -0.434 -0.439 -0.422 -0.422
 0.082  0.846 -0.302 -0.432 -0.437 -0.421 -0.421
 0.084  0.849 -0.299 -0.429 -0.436 -0.420 -0.420
 0.086  0.853 -0.295 -0.427 -0.434 -0.418 -0.418
 0.088  0.856 -0.292 -0.424 -0.433 -0.417 -0.417
 0.090  0.860 -0.288 -0.422 -0.431 -0.416 -0.416
 0.092  0.863 -0.284 -0.419 -0.430 -0.415 -0.415
 0.094  0.867 -0.281 -0.416 -0.428 -0.414 -0.414
 0.096  0.870 -0.277 -0.414 -0.427 -0.412 -0.412
 0.098  0.874 -0.274 -0.411 -0.425 -0.411 -0.411
 0.100  0.877 -0.270 -0.409 -0.424 -0.410 -0.410
 0.102  0.881 -0.267 -0.407 -0.423 -0.409 -0.409
 0.104  0.884 -0.263 -0.404 -0.421 -0.408 -0.408
 0.106  0.888 -0.260 -0.402 -0.419 -0.407 -0.407
 0.108  0.892 -0.257 -0.400 -0.418 -0.405 -0.405
 0.110  0.895 -0.254 -0.398 -0.417 -0.404 -0.404
 0.112  0.898 -0.250 -0.395 -0.416 -0.403 -0.403
 0.114  0.901 -0.247 -0.393 -0.414 -0.402 -0.402
 0.116  0.904 -0.244 -0.391 -0.413 -0.401 -0.401
 0.118  0.908 -0.241 -0.389 -0.412 -0.399 -0.399
 0.120  0.911 -0.238 -0.387 -0.410 -0.398 -0.398
 0.122  0.914 -0.235 -0.385 -0.409 -0.397 -0.397
 0.124  0.917 -0.232 -0.383 -0.408 -0.396 -0.396
 0.126  0.920 -0.228 -0.381 -0.407 -0.395 -0.395
 0.128  0.923 -0.226 -0.379 -0.405 -0.394 -0.394
 0.130  0.926 -0.222 -0.377 -0.404 -0.393 -0.393
 0.132  0.929 -0.219 -0.375 -0.403 -0.392 -0.392
 0.134  0.932 -0.217 -0.373 -0.402 -0.391 -0.391
 0.136  0.935 -0.213 -0.371 -0.401 -0.389 -0.389
 0.138  0.938 -0.210 -0.370 -0.400 -0.388 -0.388
 0.140  0.941 -0.208 -0.368 -0.398 -0.388 -0.388
 0.142  0.943 -0.204 -0.366 -0.397 -0.386 -0.386
 0.144  0.946 -0.201 -0.364 -0.396 -0.385 -0.385
 0.146  0.949 -0.199 -0.363 -0.395 -0.384 -0.384
 0.148  0.952 -0.196 -0.361 -0.394 -0.383 -0.383
 0.150  0.954 -0.192 -0.360 -0.393 -0.382 -0.382
 0.152  0.957 -0.190 -0.358 -0.392 -0.381 -0.381
 0.154  0.959 -0.187 -0.356 -0.391 -0.380 -0.380
 0.156  0.962 -0.184 -0.355 -0.390 -0.379 -0.379
 0.158  0.965 -0.181 -0.354 -0.389 -0.378 -0.378
 0.160  0.967 -0.178 -0.352 -0.388 -0.377 -0.377
 0.162  0.970 -0.175 -0.351 -0.387 -0.376 -0.376
 0.164  0.972 -0.173 -0.349 -0.386 -0.375 -0.375
 0.166  0.975 -0.170 -0.348 -0.385 -0.374 -0.374
 0.168  0.978 -0.167 -0.346 -0.384 -0.373 -0.373
 0.170  0.980 -0.164 -0.345 -0.383 -0.372 -0.372
 0.172  0.983 -0.162 -0.343 -0.382 -0.371 -0.371
 0.174  0.985 -0.159 -0.342 -0.381 -0.370 -0.370
 0.176  0.988 -0.156 -0.340 -0.380 -0.369 -0.369
 0.178  0.990 -0.153 -0.339 -0.379 -0.368 -0.368
 0.180  0.993 -0.150 -0.337 -0.378 -0.366 -0.366
 0.182  0.996 -0.147 -0.336 -0.377 -0.366 -0.366
 0.184  0.999 -0.144 -0.334 -0.376 -0.365 -0.365
 0.186  1.001 -0.142 -0.332 -0.375 -0.363 -0.363
 0.188  1.004 -0.139 -0.331 -0.374 -0.363 -0.363
 0.190  1.007 -0.136 -0.329 -0.373 -0.362 -0.362
 0.192  1.010 -0.133 -0.327 -0.372 -0.360 -0.360
 0.194  1.012 -0.131 -0.326 -0.371 -0.360 -0.360
 0.196  1.015 -0.128 -0.324 -0.370 -0.359 -0.359
 0.198  1.018 -0.126 -0.323 -0.369 -0.358 -0.358
 0.200  1.021 -0.123 -0.321 -0.368 -0.357 -0.357
 0.202  1.024 -0.120 -0.319 -0.367 -0.356 -0.356
 0.204  1.027 -0.117 -0.318 -0.366 -0.355 -0.355
 0.206  1.029 -0.115 -0.316 -0.365 -0.354 -0.354
 0.208  1.032 -0.112 -0.314 -0.364 -0.353 -0.353
 0.210  1.035 -0.109 -0.313 -0.363 -0.352 -0.352
 0.212  1.038 -0.107 -0.311 -0.362 -0.351 -0.351
 0.214  1.042 -0.104 -0.309 -0.361 -0.350 -0.350
 0.216  1.044 -0.102 -0.308 -0.360 -0.349 -0.349
 0.218  1.047 -0.099 -0.306 -0.359 -0.348 -0.348
 0.220  1.050 -0.097 -0.305 -0.358 -0.347 -0.347
 0.222  1.053 -0.094 -0.303 -0.357 -0.346 -0.346
 0.224  1.056 -0.091 -0.301 -0.355 -0.346 -0.346
 0.226  1.059 -0.089 -0.299 -0.355 -0.345 -0.345
 0.228  1.062 -0.086 -0.298 -0.354 -0.344 -0.344
 0.230  1.065 -0.084 -0.296 -0.352 -0.343 -0.343
 0.232  1.069 -0.082 -0.294 -0.352 -0.342 -0.342
 0.234  1.071 -0.079 -0.293 -0.350 -0.341 -0.341
 0.236  1.074 -0.077 -0.291 -0.349 -0.340 -0.340
 0.238  1.078 -0.074 -0.289 -0.348 -0.339 -0.339
 0.240  1.080 -0.072 -0.287 -0.347 -0.338 -0.338
 0.242  1.084 -0.069 -0.286 -0.346 -0.337 -0.337
 0.244  1.086 -0.067 -0.284 -0.345 -0.336 -0.336
 0.246  1.089 -0.064 -0.282 -0.344 -0.336 -0.336
 0.248  1.092 -0.062 -0.280 -0.343 -0.334 -0.334
 0.250  1.095 -0.060 -0.279 -0.342 -0.334 -0.334
 0.252  1.098 -0.057 -0.277 -0.341 -0.333 -0.333
 0.254  1.100 -0.055 -0.275 -0.339 -0.332 -0.332
 0.256  1.103 -0.053 -0.274 -0.338 -0.331 -0.331
 0.258  1.106 -0.051 -0.272 -0.338 -0.330 -0.330
 0.260  1.108 -0.048 -0.270 -0.336 -0.329 -0.329
 0.262  1.111 -0.046 -0.268 -0.335 -0.329 -0.329
 0.264  1.113 -0.044 -0.267 -0.334 -0.328 -0.328
 0.266  1.116 -0.041 -0.265 -0.333 -0.327 -0.327
 0.268  1.118 -0.039 -0.263 -0.332 -0.326 -0.326
 0.270  1.121 -0.037 -0.262 -0.330 -0.325 -0.325
 0.272  1.124 -0.035 -0.260 -0.329 -0.324 -0.324
 0.274  1.126 -0.032 -0.259 -0.328 -0.323 -0.323
 0.276  1.129 -0.030 -0.257 -0.327 -0.323 -0.323
 0.278  1.131 -0.028 -0.255 -0.326 -0.322 -0.322
 0.280  1.133 -0.026 -0.254 -0.325 -0.321 -0.321
 0.282  1.136 -0.023 -0.252 -0.323 -0.320 -0.320
 0.284  1.138 -0.021 -0.250 -0.322 -0.319 -0.319
 0.286  1.140 -0.019 -0.249 -0.321 -0.319 -0.319
 0.288  1.142 -0.017 -0.247 -0.320 -0.318 -0.318
 0.290  1.145 -0.015 -0.245 -0.319 -0.317 -0.317
 0.292  1.147 -0.013 -0.243 -0.318 -0.316 -0.316
 0.294  1.149 -0.010 -0.242 -0.316 -0.315 -0.315
 0.296  1.151 -0.008 -0.240 -0.315 -0.314 -0.314
 0.298  1.153 -0.006 -0.238 -0.314 -0.314 -0.314
 0.300  1.155 -0.004 -0.237 -0.313 -0.313 -0.313
 0.302  1.157 -0.002 -0.235 -0.312 -0.312 -0.312
 0.304  1.159  0.000 -0.233 -0.311 -0.311 -0.311
 0.306  1.161  0.003 -0.232 -0.309 -0.310 -0.310
 0.308  1.163  0.005 -0.230 -0.308 -0.309 -0.309
 0.310  1.165  0.007 -0.229 -0.307 -0.308 -0.308
 0.312  1.168  0.009 -0.227 -0.305 -0.308 -0.308
 0.314  1.170  0.011 -0.225 -0.304 -0.307 -0.307
 0.316  1.171  0.013 -0.224 -0.303 -0.306 -0.306
 0.318  1.173  0.016 -0.222 -0.302 -0.305 -0.305
 0.320  1.175  0.018 -0.221 -0.301 -0.304 -0.304
 0.322  1.177  0.020 -0.219 -0.300 -0.303 -0.303
 0.324  1.179  0.022 -0.217 -0.298 -0.303 -0.303
 0.326  1.181  0.024 -0.216 -0.297 -0.301 -0.301
 0.328  1.183  0.027 -0.214 -0.296 -0.301 -0.301
 0.330  1.186  0.029 -0.213 -0.295 -0.300 -0.300
 0.332  1.188  0.031 -0.212 -0.294 -0.299 -0.299
 0.334  1.190  0.033 -0.210 -0.293 -0.298 -0.298
 0.336  1.191  0.035 -0.209 -0.291 -0.297 -0.297
 0.338  1.193  0.037 -0.207 -0.290 -0.296 -0.296
 0.340  1.195  0.039 -0.206 -0.289 -0.295 -0.295
 0.342  1.197  0.041 -0.204 -0.288 -0.294 -0.294
 0.344  1.199  0.043 -0.203 -0.287 -0.293 -0.293
 0.346  1.202  0.045 -0.201 -0.286 -0.292 -0.292
 0.348  1.204  0.047 -0.200 -0.284 -0.291 -0.291
 0.350  1.206  0.049 -0.198 -0.283 -0.290 -0.290
 0.352  1.208  0.051 -0.197 -0.282 -0.289 -0.289
 0.354  1.210  0.053 -0.195 -0.281 -0.288 -0.288
 0.356  1.212  0.055 -0.194 -0.280 -0.287 -0.287
 0.358  1.213  0.058 -0.193 -0.279 -0.286 -0.286
 0.360  1.215  0.060 -0.191 -0.278 -0.285 -0.285
 0.362  1.217  0.062 -0.190 -0.277 -0.284 -0.284
 0.364  1.220  0.064 -0.188 -0.275 -0.283 -0.283
 0.366  1.222  0.066 -0.187 -0.274 -0.283 -0.283
 0.368  1.224  0.068 -0.185 -0.273 -0.281 -0.281
 0.370  1.226  0.070 -0.184 -0.272 -0.280 -0.280
 0.372  1.228  0.072 -0.183 -0.271 -0.279 -0.279
 0.374  1.230  0.073 -0.181 -0.270 -0.278 -0.278
 0.376  1.232  0.075 -0.180 -0.269 -0.277 -0.277
 0.378  1.234  0.078 -0.179 -0.268 -0.276 -0.276
 0.380  1.235  0.080 -0.177 -0.266 -0.275 -0.275
 0.382  1.237  0.082 -0.176 -0.266 -0.274 -0.274
 0.384  1.240  0.083 -0.175 -0.265 -0.273 -0.273
 0.386  1.242  0.085 -0.173 -0.263 -0.272 -0.272
 0.388  1.244  0.087 -0.172 -0.262 -0.271 -0.271
 0.390  1.246  0.089 -0.171 -0.261 -0.270 -0.270
 0.392  1.248  0.091 -0.170 -0.260 -0.269 -0.269
 0.394  1.249  0.093 -0.168 -0.259 -0.268 -0.268
 0.396  1.251  0.095 -0.167 -0.258 -0.267 -0.267
 0.398  1.253  0.097 -0.166 -0.257 -0.266 -0.266
 0.400  1.255  0.098 -0.165 -0.256 -0.265 -0.265
 0.402  1.257  0.100 -0.164 -0.255 -0.264 -0.264
 0.404  1.259  0.102 -0.163 -0.254 -0.263 -0.263
 0.406  1.261  0.104 -0.161 -0.253 -0.262 -0.262
 0.408  1.263  0.106 -0.160 -0.252 -0.261 -0.261
 0.410  1.265  0.108 -0.159 -0.251 -0.261 -0.261
 0.412  1.266  0.109 -0.158 -0.250 -0.259 -0.259
 0.414  1.268  0.111 -0.156 -0.249 -0.259 -0.259
 0.416  1.270  0.113 -0.155 -0.248 -0.258 -0.258
 0.418  1.272  0.115 -0.154 -0.247 -0.257 -0.257
 0.420  1.273  0.117 -0.153 -0.246 -0.256 -0.256
 0.422  1.275  0.118 -0.152 -0.245 -0.255 -0.255
 0.424  1.277  0.120 -0.151 -0.245 -0.254 -0.254
 0.426  1.279  0.122 -0.150 -0.243 -0.253 -0.253
 0.428  1.280  0.123 -0.148 -0.243 -0.252 -0.252
 0.430  1.282  0.125 -0.147 -0.241 -0.251 -0.251
 0.432  1.284  0.126 -0.146 -0.241 -0.251 -0.251
 0.434  1.285  0.128 -0.145 -0.240 -0.249 -0.249
 0.436  1.287  0.129 -0.144 -0.239 -0.249 -0.249
 0.438  1.288  0.131 -0.143 -0.238 -0.248 -0.248
 0.440  1.290  0.133 -0.142 -0.237 -0.247 -0.247
 0.442  1.292  0.134 -0.141 -0.236 -0.246 -0.246
 0.444  1.294  0.135 -0.140 -0.236 -0.245 -0.245
 0.446  1.296  0.137 -0.139 -0.234 -0.244 -0.244
 0.448  1.297  0.138 -0.138 -0.234 -0.244 -0.244
 0.450  1.298  0.139 -0.137 -0.233 -0.243 -0.243
 0.452  1.300  0.141 -0.136 -0.232 -0.242 -0.242
 0.454  1.301  0.142 -0.134 -0.231 -0.241 -0.241
 0.456  1.303  0.144 -0.133 -0.230 -0.240 -0.240
 0.458  1.305  0.145 -0.132 -0.229 -0.239 -0.239
 0.460  1.306  0.146 -0.131 -0.229 -0.238 -0.238
 0.462  1.307  0.148 -0.130 -0.228 -0.238 -0.238
 0.464  1.308  0.148 -0.129 -0.227 -0.237 -0.237
 0.466  1.310  0.150 -0.128 -0.226 -0.236 -0.236
 0.468  1.311  0.151 -0.127 -0.225 -0.235 -0.235
 0.470  1.312  0.153 -0.126 -0.224 -0.234 -0.234
 0.472  1.314  0.153 -0.126 -0.224 -0.233 -0.233
 0.474  1.315  0.155 -0.125 -0.222 -0.233 -0.233
 0.476  1.316  0.155 -0.124 -0.222 -0.232 -0.232
 0.478  1.318  0.157 -0.123 -0.221 -0.231 -0.231
 0.480  1.319  0.157 -0.122 -0.220 -0.231 -0.231
 0.482  1.319  0.159 -0.121 -0.219 -0.229 -0.229
 0.484  1.321  0.159 -0.120 -0.218 -0.229 -0.229
 0.486  1.322  0.161 -0.119 -0.217 -0.228 -0.228
 0.488  1.323  0.162 -0.118 -0.217 -0.227 -0.227
 0.490  1.324  0.163 -0.118 -0.216 -0.226 -0.226
 0.492  1.325  0.164 -0.117 -0.215 -0.226 -0.226
 0.494  1.325  0.164 -0.116 -0.214 -0.225 -0.225
 0.496  1.327  0.166 -0.115 -0.213 -0.224 -0.224
 0.498  1.327  0.166 -0.114 -0.212 -0.223 -0.223
 0.500  1.328  0.167 -0.113 -0.211 -0.223 -0.223
 0.502  1.329  0.168 -0.112 -0.211 -0.222 -0.222
 0.504  1.330  0.168 -0.111 -0.210 -0.221 -0.221
 0.506  1.330  0.170 -0.110 -0.209 -0.220 -0.220
 0.508  1.331  0.170 -0.110 -0.208 -0.220 -0.220
 0.510  1.332  0.171 -0.109 -0.207 -0.219 -0.219
 0.512  1.332  0.172 -0.108 -0.206 -0.218 -0.218
 0.514  1.333  0.173 -0.107 -0.206 -0.218 -0.218
 0.516  1.334  0.173 -0.106 -0.205 -0.217 -0.217
 0.518  1.334  0.174 -0.105 -0.204 -0.216 -0.216
 0.520  1.335  0.175 -0.105 -0.203 -0.215 -0.215
 0.522  1.336  0.175 -0.104 -0.202 -0.215 -0.215
 0.524  1.336  0.176 -0.103 -0.201 -0.214 -0.214
 0.526  1.337  0.177 -0.102 -0.201 -0.213 -0.213
 0.528  1.337  0.177 -0.102 -0.200 -0.213 -0.213
 0.530  1.338  0.178 -0.101 -0.199 -0.212 -0.212
 0.532  1.338  0.179 -0.100 -0.198 -0.211 -0.211
 0.534  1.339  0.179 -0.100 -0.198 -0.210 -0.210
 0.536  1.340  0.180 -0.099 -0.197 -0.210 -0.210
 0.538  1.340  0.180 -0.098 -0.196 -0.209 -0.209
 0.540  1.341  0.181 -0.098 -0.195 -0.209 -0.209
 0.542  1.341  0.182 -0.097 -0.195 -0.208 -0.208
 0.544  1.341  0.182 -0.097 -0.194 -0.207 -0.207
 0.546  1.342  0.182 -0.096 -0.194 -0.207 -0.207
 0.548  1.343  0.183 -0.096 -0.193 -0.206 -0.206
 0.550  1.343  0.184 -0.095 -0.192 -0.206 -0.206
 0.552  1.343  0.184 -0.095 -0.192 -0.205 -0.205
 0.554  1.344  0.184 -0.094 -0.191 -0.205 -0.205
 0.556  1.345  0.185 -0.094 -0.191 -0.204 -0.204
 0.558  1.345  0.185 -0.093 -0.190 -0.203 -0.203
 0.560  1.345  0.186 -0.093 -0.190 -0.203 -0.203
 0.562  1.346  0.186 -0.092 -0.189 -0.202 -0.202
 0.564  1.347  0.186 -0.092 -0.189 -0.202 -0.202
 0.566  1.347  0.186 -0.091 -0.188 -0.201 -0.201
 0.568  1.347  0.187 -0.091 -0.188 -0.201 -0.201
 0.570  1.348  0.187 -0.091 -0.187 -0.200 -0.200
 0.572  1.349  0.188 -0.090 -0.187 -0.200 -0.200
 0.574  1.349  0.188 -0.090 -0.186 -0.199 -0.199
 0.576  1.349  0.188 -0.090 -0.186 -0.199 -0.199
 0.578  1.350  0.188 -0.090 -0.186 -0.198 -0.198
 0.580  1.351  0.188 -0.089 -0.185 -0.198 -0.198
 0.582  1.351  0.189 -0.089 -0.185 -0.197 -0.197
 0.584  1.351  0.189 -0.089 -0.185 -0.197 -0.197
 0.586  1.352  0.189 -0.089 -0.184 -0.196 -0.196
 0.588  1.352  0.190 -0.088 -0.184 -0.196 -0.196
 0.590  1.352  0.190 -0.088 -0.183 -0.195 -0.195
 0.592  1.353  0.190 -0.088 -0.183 -0.195 -0.195
 0.594  1.353  0.190 -0.088 -0.183 -0.194 -0.194
 0.596  1.354  0.190 -0.087 -0.182 -0.194 -0.194
 0.598  1.354  0.190 -0.087 -0.182 -0.193 -0.193
 0.600  1.354  0.190 -0.087 -0.181 -0.193 -0.193
 0.602  1.355  0.190 -0.087 -0.181 -0.193 -0.193
 0.604  1.355  0.190 -0.086 -0.181 -0.192 -0.192
 0.606  1.356  0.191 -0.086 -0.180 -0.192 -0.192
 0.608  1.356  0.191 -0.086 -0.180 -0.191 -0.191
 0.610  1.356  0.191 -0.086 -0.179 -0.191 -0.191
 0.612  1.356  0.191 -0.085 -0.179 -0.190 -0.190
 0.614  1.357  0.191 -0.085 -0.178 -0.190 -0.190
 0.616  1.357  0.191 -0.085 -0.177 -0.189 -0.189
 0.618  1.358  0.191 -0.084 -0.177 -0.189 -0.189
 0.620  1.358  0.191 -0.084 -0.177 -0.188 -0.188
 0.622  1.358  0.191 -0.084 -0.176 -0.188 -0.188
 0.624  1.358  0.191 -0.084 -0.176 -0.187 -0.187
 0.626  1.358  0.191 -0.083 -0.175 -0.187 -0.187
 0.628  1.358  0.191 -0.083 -0.174 -0.186 -0.186
 0.630  1.359  0.191 -0.083 -0.174 -0.186 -0.186
 0.632  1.359  0.191 -0.082 -0.173 -0.186 -0.186
 0.634  1.359  0.191 -0.082 -0.172 -0.185 -0.185
 0.636  1.359  0.191 -0.082 -0.172 -0.184 -0.184
 0.638  1.360  0.192 -0.081 -0.171 -0.184 -0.184
 0.640  1.360  0.192 -0.081 -0.170 -0.184 -0.184
 0.642  1.360  0.192 -0.081 -0.170 -0.183 -0.183
 0.644  1.360  0.192 -0.080 -0.169 -0.183 -0.183
 0.646  1.360  0.193 -0.080 -0.169 -0.182 -0.182
 0.648  1.360  0.193 -0.080 -0.168 -0.182 -0.182
 0.650  1.360  0.193 -0.079 -0.167 -0.181 -0.181
 0.652  1.360  0.193 -0.079 -0.167 -0.181 -0.181
 0.654  1.360  0.194 -0.079 -0.166 -0.180 -0.180
 0.656  1.360  0.194 -0.078 -0.165 -0.180 -0.180
 0.658  1.360  0.195 -0.078 -0.164 -0.179 -0.179
 0.660  1.360  0.195 -0.077 -0.163 -0.179 -0.179
 0.662  1.360  0.195 -0.077 -0.162 -0.178 -0.178
 0.664  1.361  0.196 -0.076 -0.161 -0.178 -0.178
 0.666  1.361  0.197 -0.075 -0.161 -0.177 -0.177
 0.668  1.361  0.197 -0.075 -0.160 -0.177 -0.177
 0.670  1.361  0.198 -0.074 -0.159 -0.176 -0.176
 0.672  1.361  0.199 -0.073 -0.158 -0.176 -0.176
 0.674  1.361  0.199 -0.072 -0.156 -0.175 -0.175
 0.676  1.361  0.200 -0.071 -0.155 -0.174 -0.174
 0.678  1.362  0.201 -0.070 -0.154 -0.174 -0.174
 0.680  1.362  0.201 -0.069 -0.153 -0.173 -0.173
 0.682  1.363  0.202 -0.068 -0.152 -0.173 -0.173
 0.684  1.363  0.204 -0.067 -0.150 -0.172 -0.172
 0.686  1.363  0.204 -0.065 -0.149 -0.171 -0.171
 0.688  1.363  0.205 -0.064 -0.147 -0.171 -0.171
 0.690  1.364  0.206 -0.062 -0.146 -0.170 -0.170
 0.692  1.365  0.207 -0.061 -0.145 -0.169 -0.169
 0.694  1.365  0.208 -0.059 -0.143 -0.169 -0.169
 0.696  1.365  0.209 -0.058 -0.142 -0.168 -0.168
 0.698  1.366  0.210 -0.056 -0.140 -0.167 -0.167
 0.700  1.367  0.211 -0.054 -0.138 -0.167 -0.167
 0.702  1.367  0.213 -0.052 -0.137 -0.166 -0.166
 0.704  1.367  0.213 -0.051 -0.135 -0.165 -0.165
 0.706  1.368  0.215 -0.049 -0.133 -0.165 -0.165
 0.708  1.369  0.216 -0.047 -0.132 -0.164 -0.164
 0.710  1.369  0.217 -0.044 -0.130 -0.163 -0.163
 0.712  1.370  0.219 -0.042 -0.128 -0.163 -0.163
 0.714  1.371  0.220 -0.040 -0.126 -0.162 -0.162
 0.716  1.372  0.221 -0.037 -0.124 -0.161 -0.161
 0.718  1.372  0.223 -0.035 -0.122 -0.160 -0.160
 0.720  1.373  0.224 -0.032 -0.120 -0.160 -0.160
 0.722  1.374  0.226 -0.030 -0.117 -0.159 -0.159
 0.724  1.375  0.228 -0.027 -0.115 -0.158 -0.158
 0.726  1.376  0.229 -0.025 -0.113 -0.157 -0.157
 0.728  1.377  0.230 -0.022 -0.111 -0.156 -0.156
 0.730  1.378  0.232 -0.020 -0.109 -0.156 -0.156
 0.732  1.378  0.234 -0.018 -0.107 -0.154 -0.154
 0.734  1.380  0.235 -0.016 -0.105 -0.154 -0.154
 0.736  1.380  0.237 -0.014 -0.103 -0.153 -0.153
 0.738  1.381  0.239 -0.012 -0.102 -0.151 -0.151
 0.740  1.382  0.240 -0.010 -0.100 -0.151 -0.151
 0.742  1.383  0.242 -0.009 -0.098 -0.150 -0.150
 0.744  1.383  0.244 -0.007 -0.097 -0.148 -0.148
 0.746  1.384  0.246 -0.006 -0.096 -0.147 -0.147
 0.748  1.385  0.248 -0.004 -0.094 -0.146 -0.146
 0.750  1.385  0.249 -0.003 -0.093 -0.145 -0.145
 0.752  1.386  0.251 -0.002 -0.092 -0.144 -0.144
 0.754  1.387  0.254 -0.001 -0.091 -0.142 -0.142
 0.756  1.387  0.256 -0.001 -0.090 -0.141 -0.141
 0.758  1.388  0.258 -0.000 -0.090 -0.140 -0.140
 0.760  1.389  0.260  0.000 -0.089 -0.138 -0.138
 0.762  1.389  0.262  0.000 -0.089 -0.137 -0.137
 0.764  1.389  0.265  0.000 -0.089 -0.135 -0.135
 0.766  1.390  0.267  0.000 -0.088 -0.134 -0.134
 0.768  1.391  0.268 -0.000 -0.088 -0.132 -0.132
 0.770  1.391  0.270 -0.000 -0.088 -0.131 -0.131
 0.772  1.391  0.272 -0.001 -0.088 -0.129 -0.129
 0.774  1.391  0.274 -0.002 -0.089 -0.127 -0.127
 0.776  1.391  0.275 -0.002 -0.089 -0.125 -0.125
 0.778  1.392  0.277 -0.003 -0.089 -0.124 -0.124
 0.780  1.392  0.277 -0.004 -0.090 -0.122 -0.122
 0.782  1.392  0.278 -0.006 -0.090 -0.120 -0.120
 0.784  1.393  0.279 -0.007 -0.091 -0.118 -0.118
 0.786  1.393  0.279 -0.008 -0.092 -0.117 -0.117
 0.788  1.393  0.279 -0.010 -0.093 -0.114 -0.114
 0.790  1.393  0.278 -0.012 -0.094 -0.112 -0.112
 0.792  1.393  0.277 -0.014 -0.095 -0.111 -0.111
 0.794  1.393  0.276 -0.016 -0.096 -0.108 -0.108
 0.796  1.393  0.275 -0.018 -0.097 -0.106 -0.106
 0.798  1.393  0.273 -0.020 -0.099 -0.105 -0.105
 0.800  1.393  0.271 -0.022 -0.101 -0.103 -0.103
 0.802  1.393  0.268 -0.025 -0.102 -0.101 -0.101
 0.804  1.393  0.266 -0.028 -0.104 -0.099 -0.099
 0.806  1.392  0.263 -0.031 -0.106 -0.098 -0.098
 0.808  1.391  0.259 -0.034 -0.108 -0.096 -0.096
