# IsPeriodic    : True
# Period        : 0.606209 days
# Normalization : <g_mag>=0
# 
# Phase u_mag  g_mag  r_mag  i_mag  z_mag  y_mag
 0.000  0.420 -0.750 -0.676 -0.551 -0.434 -0.434
 0.002  0.420 -0.750 -0.676 -0.551 -0.434 -0.434
 0.004  0.421 -0.750 -0.675 -0.551 -0.434 -0.434
 0.006  0.422 -0.749 -0.674 -0.551 -0.433 -0.433
 0.008  0.423 -0.747 -0.672 -0.550 -0.432 -0.432
 0.010  0.425 -0.744 -0.669 -0.549 -0.431 -0.431
 0.012  0.427 -0.743 -0.666 -0.548 -0.430 -0.430
 0.014  0.430 -0.740 -0.663 -0.547 -0.429 -0.429
 0.016  0.433 -0.737 -0.660 -0.545 -0.427 -0.427
 0.018  0.435 -0.734 -0.656 -0.543 -0.426 -0.426
 0.020  0.438 -0.731 -0.653 -0.542 -0.424 -0.424
 0.022  0.442 -0.727 -0.649 -0.540 -0.422 -0.422
 0.024  0.446 -0.724 -0.644 -0.539 -0.421 -0.421
 0.026  0.449 -0.720 -0.641 -0.537 -0.419 -0.419
 0.028  0.453 -0.715 -0.637 -0.535 -0.417 -0.417
 0.030  0.457 -0.712 -0.633 -0.532 -0.416 -0.416
 0.032  0.462 -0.707 -0.629 -0.530 -0.414 -0.414
 0.034  0.466 -0.704 -0.626 -0.528 -0.413 -0.413
 0.036  0.470 -0.699 -0.622 -0.526 -0.412 -0.412
 0.038  0.476 -0.695 -0.618 -0.524 -0.410 -0.410
 0.040  0.480 -0.690 -0.615 -0.522 -0.408 -0.408
 0.042  0.486 -0.685 -0.611 -0.520 -0.407 -0.407
 0.044  0.492 -0.680 -0.607 -0.518 -0.406 -0.406
 0.046  0.497 -0.675 -0.603 -0.515 -0.405 -0.405
 0.048  0.503 -0.669 -0.599 -0.512 -0.403 -0.403
 0.050  0.509 -0.663 -0.594 -0.510 -0.402 -0.402
 0.052  0.516 -0.658 -0.590 -0.507 -0.400 -0.400
 0.054  0.523 -0.652 -0.586 -0.504 -0.399 -0.399
 0.056  0.529 -0.645 -0.581 -0.502 -0.397 -0.397
 0.058  0.536 -0.639 -0.577 -0.498 -0.396 -0.396
 0.060  0.544 -0.632 -0.572 -0.495 -0.395 -0.395
 0.062  0.550 -0.625 -0.567 -0.492 -0.394 -0.394
 0.064  0.558 -0.618 -0.563 -0.489 -0.392 -0.392
 0.066  0.566 -0.611 -0.558 -0.485 -0.390 -0.390
 0.068  0.575 -0.603 -0.553 -0.482 -0.389 -0.389
 0.070  0.582 -0.596 -0.548 -0.479 -0.388 -0.388
 0.072  0.591 -0.588 -0.544 -0.475 -0.387 -0.387
 0.074  0.599 -0.581 -0.539 -0.471 -0.386 -0.386
 0.076  0.608 -0.573 -0.533 -0.468 -0.385 -0.385
 0.078  0.616 -0.565 -0.528 -0.464 -0.383 -0.383
 0.080  0.624 -0.558 -0.524 -0.460 -0.382 -0.382
 0.082  0.633 -0.550 -0.519 -0.457 -0.381 -0.381
 0.084  0.641 -0.542 -0.514 -0.454 -0.379 -0.379
 0.086  0.649 -0.535 -0.509 -0.450 -0.378 -0.378
 0.088  0.656 -0.528 -0.505 -0.446 -0.377 -0.377
 0.090  0.664 -0.520 -0.500 -0.443 -0.376 -0.376
 0.092  0.672 -0.513 -0.495 -0.440 -0.374 -0.374
 0.094  0.680 -0.506 -0.490 -0.437 -0.373 -0.373
 0.096  0.686 -0.499 -0.485 -0.433 -0.371 -0.371
 0.098  0.694 -0.492 -0.481 -0.430 -0.370 -0.370
 0.100  0.701 -0.486 -0.476 -0.427 -0.369 -0.369
 0.102  0.707 -0.480 -0.472 -0.424 -0.367 -0.367
 0.104  0.714 -0.473 -0.467 -0.421 -0.366 -0.366
 0.106  0.721 -0.467 -0.462 -0.419 -0.364 -0.364
 0.108  0.727 -0.460 -0.458 -0.415 -0.362 -0.362
 0.110  0.733 -0.454 -0.454 -0.413 -0.361 -0.361
 0.112  0.739 -0.449 -0.450 -0.410 -0.359 -0.359
 0.114  0.745 -0.442 -0.445 -0.407 -0.358 -0.358
 0.116  0.752 -0.436 -0.441 -0.404 -0.356 -0.356
 0.118  0.757 -0.430 -0.437 -0.402 -0.354 -0.354
 0.120  0.763 -0.424 -0.433 -0.400 -0.352 -0.352
 0.122  0.768 -0.420 -0.429 -0.397 -0.351 -0.351
 0.124  0.774 -0.414 -0.425 -0.394 -0.349 -0.349
 0.126  0.779 -0.408 -0.421 -0.392 -0.347 -0.347
 0.128  0.784 -0.403 -0.417 -0.390 -0.345 -0.345
 0.130  0.789 -0.398 -0.413 -0.388 -0.343 -0.343
 0.132  0.794 -0.393 -0.410 -0.386 -0.341 -0.341
 0.134  0.798 -0.388 -0.406 -0.384 -0.339 -0.339
 0.136  0.803 -0.384 -0.402 -0.382 -0.337 -0.337
 0.138  0.807 -0.379 -0.399 -0.380 -0.335 -0.335
 0.140  0.811 -0.375 -0.395 -0.378 -0.333 -0.333
 0.142  0.816 -0.370 -0.392 -0.376 -0.331 -0.331
 0.144  0.819 -0.365 -0.389 -0.374 -0.329 -0.329
 0.146  0.824 -0.361 -0.385 -0.372 -0.326 -0.326
 0.148  0.828 -0.357 -0.382 -0.370 -0.324 -0.324
 0.150  0.831 -0.353 -0.378 -0.368 -0.322 -0.322
 0.152  0.836 -0.348 -0.375 -0.366 -0.320 -0.320
 0.154  0.839 -0.343 -0.372 -0.365 -0.317 -0.317
 0.156  0.844 -0.340 -0.368 -0.363 -0.315 -0.315
 0.158  0.847 -0.335 -0.365 -0.361 -0.313 -0.313
 0.160  0.851 -0.331 -0.362 -0.359 -0.311 -0.311
 0.162  0.855 -0.327 -0.359 -0.357 -0.308 -0.308
 0.164  0.859 -0.323 -0.356 -0.356 -0.306 -0.306
 0.166  0.862 -0.318 -0.352 -0.354 -0.304 -0.304
 0.168  0.867 -0.313 -0.350 -0.353 -0.302 -0.302
 0.170  0.871 -0.310 -0.346 -0.351 -0.299 -0.299
 0.172  0.875 -0.305 -0.343 -0.349 -0.297 -0.297
 0.174  0.879 -0.301 -0.340 -0.347 -0.295 -0.295
 0.176  0.883 -0.296 -0.337 -0.345 -0.294 -0.294
 0.178  0.887 -0.291 -0.334 -0.343 -0.291 -0.291
 0.180  0.891 -0.287 -0.331 -0.341 -0.289 -0.289
 0.182  0.896 -0.282 -0.328 -0.339 -0.288 -0.288
 0.184  0.899 -0.278 -0.325 -0.338 -0.286 -0.286
 0.186  0.903 -0.273 -0.322 -0.336 -0.284 -0.284
 0.188  0.908 -0.268 -0.319 -0.334 -0.282 -0.282
 0.190  0.912 -0.264 -0.316 -0.332 -0.280 -0.280
 0.192  0.916 -0.259 -0.313 -0.330 -0.279 -0.279
 0.194  0.920 -0.254 -0.310 -0.328 -0.277 -0.277
 0.196  0.924 -0.250 -0.307 -0.326 -0.276 -0.276
 0.198  0.929 -0.245 -0.304 -0.324 -0.274 -0.274
 0.200  0.932 -0.241 -0.301 -0.323 -0.272 -0.272
 0.202  0.937 -0.236 -0.298 -0.321 -0.271 -0.271
 0.204  0.941 -0.231 -0.295 -0.319 -0.269 -0.269
 0.206  0.945 -0.226 -0.293 -0.317 -0.268 -0.268
 0.208  0.950 -0.221 -0.290 -0.315 -0.266 -0.266
 0.210  0.953 -0.216 -0.287 -0.314 -0.265 -0.265
 0.212  0.958 -0.212 -0.284 -0.312 -0.263 -0.263
 0.214  0.962 -0.207 -0.281 -0.310 -0.262 -0.262
 0.216  0.966 -0.201 -0.279 -0.307 -0.261 -0.261
 0.218  0.971 -0.197 -0.276 -0.305 -0.260 -0.260
 0.220  0.975 -0.192 -0.273 -0.303 -0.259 -0.259
 0.222  0.980 -0.187 -0.270 -0.301 -0.258 -0.258
 0.224  0.983 -0.183 -0.268 -0.300 -0.256 -0.256
 0.226  0.987 -0.177 -0.265 -0.298 -0.255 -0.255
 0.228  0.992 -0.172 -0.262 -0.296 -0.254 -0.254
 0.230  0.996 -0.168 -0.259 -0.294 -0.253 -0.253
 0.232  1.000 -0.163 -0.257 -0.292 -0.252 -0.252
 0.234  1.004 -0.159 -0.254 -0.290 -0.251 -0.251
 0.236  1.007 -0.154 -0.251 -0.289 -0.249 -0.249
 0.238  1.012 -0.150 -0.249 -0.287 -0.248 -0.248
 0.240  1.016 -0.146 -0.246 -0.285 -0.247 -0.247
 0.242  1.020 -0.141 -0.244 -0.283 -0.246 -0.246
 0.244  1.024 -0.137 -0.241 -0.281 -0.244 -0.244
 0.246  1.027 -0.132 -0.239 -0.279 -0.243 -0.243
 0.248  1.031 -0.128 -0.236 -0.277 -0.242 -0.242
 0.250  1.035 -0.124 -0.234 -0.275 -0.241 -0.241
 0.252  1.038 -0.120 -0.231 -0.274 -0.240 -0.240
 0.254  1.043 -0.116 -0.229 -0.272 -0.238 -0.238
 0.256  1.046 -0.111 -0.226 -0.270 -0.236 -0.236
 0.258  1.049 -0.108 -0.224 -0.268 -0.235 -0.235
 0.260  1.053 -0.103 -0.221 -0.266 -0.234 -0.234
 0.262  1.057 -0.100 -0.219 -0.264 -0.232 -0.232
 0.264  1.061 -0.096 -0.217 -0.262 -0.231 -0.231
 0.266  1.064 -0.092 -0.214 -0.261 -0.230 -0.230
 0.268  1.067 -0.088 -0.212 -0.259 -0.228 -0.228
 0.270  1.070 -0.085 -0.210 -0.258 -0.226 -0.226
 0.272  1.074 -0.081 -0.207 -0.256 -0.225 -0.225
 0.274  1.077 -0.078 -0.205 -0.254 -0.223 -0.223
 0.276  1.080 -0.073 -0.203 -0.252 -0.222 -0.222
 0.278  1.084 -0.070 -0.201 -0.250 -0.220 -0.220
 0.280  1.087 -0.066 -0.198 -0.248 -0.218 -0.218
 0.282  1.090 -0.063 -0.196 -0.247 -0.217 -0.217
 0.284  1.094 -0.059 -0.194 -0.245 -0.215 -0.215
 0.286  1.097 -0.057 -0.192 -0.243 -0.213 -0.213
 0.288  1.100 -0.053 -0.190 -0.241 -0.212 -0.212
 0.290  1.104 -0.050 -0.188 -0.240 -0.210 -0.210
 0.292  1.106 -0.046 -0.185 -0.238 -0.208 -0.208
 0.294  1.109 -0.043 -0.184 -0.236 -0.206 -0.206
 0.296  1.113 -0.040 -0.181 -0.235 -0.204 -0.204
 0.298  1.116 -0.036 -0.179 -0.233 -0.203 -0.203
 0.300  1.119 -0.034 -0.177 -0.231 -0.201 -0.201
 0.302  1.121 -0.030 -0.175 -0.229 -0.199 -0.199
 0.304  1.125 -0.027 -0.173 -0.228 -0.197 -0.197
 0.306  1.128 -0.023 -0.171 -0.226 -0.195 -0.195
 0.308  1.131 -0.020 -0.168 -0.224 -0.194 -0.194
 0.310  1.135 -0.016 -0.167 -0.223 -0.192 -0.192
 0.312  1.137 -0.014 -0.164 -0.221 -0.190 -0.190
 0.314  1.140 -0.011 -0.162 -0.219 -0.188 -0.188
 0.316  1.144 -0.007 -0.160 -0.217 -0.187 -0.187
 0.318  1.147 -0.004 -0.157 -0.216 -0.185 -0.185
 0.320  1.150 -0.000 -0.156 -0.214 -0.184 -0.184
 0.322  1.152  0.003 -0.153 -0.212 -0.182 -0.182
 0.324  1.156  0.007 -0.151 -0.210 -0.180 -0.180
 0.326  1.159  0.009 -0.149 -0.208 -0.179 -0.179
 0.328  1.162  0.012 -0.146 -0.207 -0.177 -0.177
 0.330  1.165  0.016 -0.144 -0.205 -0.176 -0.176
 0.332  1.168  0.019 -0.142 -0.203 -0.174 -0.174
 0.334  1.171  0.023 -0.140 -0.202 -0.172 -0.172
 0.336  1.175  0.026 -0.137 -0.200 -0.171 -0.171
 0.338  1.177  0.030 -0.135 -0.198 -0.169 -0.169
 0.340  1.180  0.033 -0.133 -0.196 -0.168 -0.168
 0.342  1.183  0.036 -0.130 -0.194 -0.167 -0.167
 0.344  1.187  0.039 -0.128 -0.193 -0.165 -0.165
 0.346  1.190  0.043 -0.125 -0.191 -0.164 -0.164
 0.348  1.192  0.046 -0.123 -0.189 -0.162 -0.162
 0.350  1.196  0.049 -0.121 -0.188 -0.161 -0.161
 0.352  1.199  0.053 -0.118 -0.186 -0.160 -0.160
 0.354  1.202  0.056 -0.116 -0.184 -0.159 -0.159
 0.356  1.204  0.060 -0.113 -0.182 -0.157 -0.157
 0.358  1.208  0.063 -0.111 -0.180 -0.156 -0.156
 0.360  1.211  0.066 -0.108 -0.178 -0.155 -0.155
 0.362  1.213  0.069 -0.106 -0.177 -0.153 -0.153
 0.364  1.217  0.073 -0.103 -0.175 -0.152 -0.152
 0.366  1.220  0.076 -0.102 -0.173 -0.151 -0.151
 0.368  1.223  0.080 -0.099 -0.171 -0.150 -0.150
 0.370  1.225  0.083 -0.096 -0.169 -0.149 -0.149
 0.372  1.229  0.086 -0.094 -0.168 -0.148 -0.148
 0.374  1.232  0.090 -0.091 -0.166 -0.146 -0.146
 0.376  1.234  0.092 -0.089 -0.164 -0.145 -0.145
 0.378  1.238  0.096 -0.086 -0.163 -0.144 -0.144
 0.380  1.241  0.099 -0.085 -0.161 -0.143 -0.143
 0.382  1.243  0.103 -0.082 -0.159 -0.142 -0.142
 0.384  1.246  0.106 -0.080 -0.157 -0.141 -0.141
 0.386  1.249  0.110 -0.077 -0.155 -0.139 -0.139
 0.388  1.252  0.112 -0.075 -0.153 -0.138 -0.138
 0.390  1.255  0.115 -0.073 -0.152 -0.137 -0.137
 0.392  1.258  0.119 -0.070 -0.150 -0.135 -0.135
 0.394  1.261  0.122 -0.068 -0.148 -0.134 -0.134
 0.396  1.263  0.125 -0.066 -0.146 -0.133 -0.133
 0.398  1.266  0.128 -0.063 -0.144 -0.132 -0.132
 0.400  1.269  0.132 -0.062 -0.142 -0.130 -0.130
 0.402  1.272  0.135 -0.059 -0.141 -0.128 -0.128
 0.404  1.274  0.137 -0.057 -0.139 -0.127 -0.127
 0.406  1.277  0.141 -0.055 -0.137 -0.126 -0.126
 0.408  1.280  0.144 -0.052 -0.136 -0.124 -0.124
 0.410  1.283  0.147 -0.051 -0.134 -0.123 -0.123
 0.412  1.285  0.150 -0.048 -0.132 -0.122 -0.122
 0.414  1.289  0.153 -0.047 -0.130 -0.120 -0.120
 0.416  1.291  0.157 -0.044 -0.128 -0.119 -0.119
 0.418  1.294  0.159 -0.042 -0.126 -0.117 -0.117
 0.420  1.296  0.163 -0.041 -0.125 -0.116 -0.116
 0.422  1.300  0.166 -0.038 -0.123 -0.114 -0.114
 0.424  1.302  0.168 -0.036 -0.121 -0.113 -0.113
 0.426  1.304  0.172 -0.034 -0.120 -0.111 -0.111
 0.428  1.307  0.174 -0.032 -0.117 -0.109 -0.109
 0.430  1.310  0.178 -0.030 -0.115 -0.108 -0.108
 0.432  1.312  0.181 -0.028 -0.114 -0.106 -0.106
 0.434  1.315  0.184 -0.026 -0.112 -0.105 -0.105
 0.436  1.317  0.187 -0.024 -0.110 -0.103 -0.103
 0.438  1.320  0.189 -0.023 -0.109 -0.101 -0.101
 0.440  1.323  0.193 -0.020 -0.107 -0.100 -0.100
 0.442  1.325  0.195 -0.019 -0.105 -0.098 -0.098
 0.444  1.327  0.199 -0.017 -0.103 -0.097 -0.097
 0.446  1.330  0.201 -0.015 -0.102 -0.095 -0.095
 0.448  1.332  0.203 -0.013 -0.100 -0.094 -0.094
 0.450  1.335  0.207 -0.011 -0.099 -0.092 -0.092
 0.452  1.337  0.209 -0.009 -0.097 -0.090 -0.090
 0.454  1.339  0.211 -0.008 -0.095 -0.089 -0.089
 0.456  1.342  0.214 -0.006 -0.094 -0.087 -0.087
 0.458  1.344  0.216 -0.004 -0.093 -0.086 -0.086
 0.460  1.346  0.218 -0.002 -0.091 -0.085 -0.085
 0.462  1.348  0.220 -0.001 -0.090 -0.083 -0.083
 0.464  1.351  0.223  0.001 -0.088 -0.081 -0.081
 0.466  1.353  0.225  0.003 -0.087 -0.080 -0.080
 0.468  1.355  0.227  0.004 -0.085 -0.079 -0.079
 0.470  1.357  0.230  0.006 -0.084 -0.077 -0.077
 0.472  1.359  0.232  0.008 -0.082 -0.076 -0.076
 0.474  1.362  0.234  0.009 -0.081 -0.075 -0.075
 0.476  1.363  0.237  0.011 -0.080 -0.073 -0.073
 0.478  1.365  0.238  0.013 -0.079 -0.072 -0.072
 0.480  1.367  0.240  0.014 -0.078 -0.071 -0.071
 0.482  1.369  0.242  0.015 -0.076 -0.070 -0.070
 0.484  1.370  0.244  0.017 -0.075 -0.068 -0.068
 0.486  1.373  0.246  0.019 -0.074 -0.067 -0.067
 0.488  1.375  0.248  0.020 -0.073 -0.066 -0.066
 0.490  1.377  0.249  0.022 -0.072 -0.065 -0.065
 0.492  1.378  0.252  0.023 -0.071 -0.064 -0.064
 0.494  1.380  0.253  0.025 -0.070 -0.062 -0.062
 0.496  1.383  0.254  0.026 -0.069 -0.061 -0.061
 0.498  1.384  0.256  0.028 -0.068 -0.060 -0.060
 0.500  1.386  0.257  0.029 -0.067 -0.059 -0.059
 0.502  1.387  0.259  0.031 -0.066 -0.058 -0.058
 0.504  1.389  0.261  0.032 -0.065 -0.058 -0.058
 0.506  1.390  0.262  0.033 -0.064 -0.057 -0.057
 0.508  1.393  0.263  0.035 -0.063 -0.055 -0.055
 0.510  1.394  0.264  0.036 -0.062 -0.054 -0.054
 0.512  1.395  0.267  0.037 -0.061 -0.053 -0.053
 0.514  1.397  0.268  0.039 -0.060 -0.052 -0.052
 0.516  1.398  0.269  0.040 -0.060 -0.052 -0.052
 0.518  1.399  0.270  0.042 -0.058 -0.051 -0.051
 0.520  1.400  0.271  0.042 -0.058 -0.050 -0.050
 0.522  1.401  0.272  0.044 -0.057 -0.049 -0.049
 0.524  1.403  0.274  0.045 -0.056 -0.048 -0.048
 0.526  1.404  0.275  0.046 -0.056 -0.047 -0.047
 0.528  1.405  0.276  0.047 -0.054 -0.046 -0.046
 0.530  1.406  0.277  0.048 -0.053 -0.045 -0.045
 0.532  1.407  0.278  0.049 -0.053 -0.044 -0.044
 0.534  1.408  0.279  0.051 -0.052 -0.044 -0.044
 0.536  1.409  0.281  0.052 -0.051 -0.043 -0.043
 0.538  1.410  0.282  0.053 -0.051 -0.042 -0.042
 0.540  1.410  0.283  0.053 -0.049 -0.041 -0.041
 0.542  1.411  0.284  0.055 -0.049 -0.040 -0.040
 0.544  1.413  0.284  0.056 -0.048 -0.040 -0.040
 0.546  1.413  0.285  0.057 -0.047 -0.039 -0.039
 0.548  1.414  0.286  0.058 -0.047 -0.038 -0.038
 0.550  1.414  0.288  0.059 -0.046 -0.037 -0.037
 0.552  1.415  0.289  0.059 -0.045 -0.036 -0.036
 0.554  1.415  0.289  0.060 -0.045 -0.035 -0.035
 0.556  1.416  0.290  0.061 -0.044 -0.034 -0.034
 0.558  1.416  0.291  0.062 -0.043 -0.034 -0.034
 0.560  1.416  0.291  0.063 -0.043 -0.033 -0.033
 0.562  1.417  0.292  0.064 -0.042 -0.032 -0.032
 0.564  1.417  0.293  0.064 -0.041 -0.032 -0.032
 0.566  1.417  0.293  0.064 -0.041 -0.031 -0.031
 0.568  1.417  0.294  0.065 -0.040 -0.030 -0.030
 0.570  1.417  0.294  0.066 -0.040 -0.029 -0.029
 0.572  1.417  0.296  0.067 -0.039 -0.028 -0.028
 0.574  1.417  0.296  0.067 -0.039 -0.027 -0.027
 0.576  1.417  0.297  0.068 -0.038 -0.027 -0.027
 0.578  1.417  0.297  0.069 -0.037 -0.026 -0.026
 0.580  1.417  0.298  0.069 -0.037 -0.025 -0.025
 0.582  1.417  0.298  0.070 -0.036 -0.025 -0.025
 0.584  1.417  0.299  0.070 -0.035 -0.024 -0.024
 0.586  1.417  0.299  0.070 -0.035 -0.023 -0.023
 0.588  1.417  0.299  0.071 -0.035 -0.023 -0.023
 0.590  1.417  0.300  0.071 -0.034 -0.022 -0.022
 0.592  1.417  0.300  0.072 -0.033 -0.021 -0.021
 0.594  1.417  0.301  0.072 -0.033 -0.021 -0.021
 0.596  1.417  0.301  0.073 -0.032 -0.019 -0.019
 0.598  1.417  0.301  0.073 -0.031 -0.019 -0.019
 0.600  1.417  0.303  0.074 -0.031 -0.018 -0.018
 0.602  1.417  0.303  0.074 -0.030 -0.017 -0.017
 0.604  1.417  0.303  0.075 -0.030 -0.017 -0.017
 0.606  1.417  0.303  0.075 -0.029 -0.016 -0.016
 0.608  1.417  0.304  0.075 -0.029 -0.015 -0.015
 0.610  1.417  0.304  0.075 -0.028 -0.015 -0.015
 0.612  1.417  0.304  0.075 -0.027 -0.014 -0.014
 0.614  1.416  0.304  0.076 -0.027 -0.013 -0.013
 0.616  1.416  0.305  0.076 -0.026 -0.012 -0.012
 0.618  1.416  0.305  0.076 -0.025 -0.012 -0.012
 0.620  1.416  0.305  0.077 -0.025 -0.010 -0.010
 0.622  1.416  0.305  0.077 -0.024 -0.010 -0.010
 0.624  1.416  0.305  0.077 -0.023 -0.009 -0.009
 0.626  1.416  0.305  0.078 -0.023 -0.008 -0.008
 0.628  1.416  0.306  0.078 -0.022 -0.008 -0.008
 0.630  1.416  0.306  0.078 -0.021 -0.007 -0.007
 0.632  1.416  0.306  0.078 -0.020 -0.006 -0.006
 0.634  1.416  0.306  0.078 -0.020 -0.005 -0.005
 0.636  1.416  0.306  0.079 -0.019 -0.005 -0.005
 0.638  1.416  0.306  0.079 -0.018 -0.004 -0.004
 0.640  1.416  0.306  0.079 -0.018 -0.003 -0.003
 0.642  1.416  0.306  0.079 -0.017 -0.003 -0.003
 0.644  1.416  0.306  0.079 -0.016 -0.001 -0.001
 0.646  1.416  0.306  0.079 -0.016 -0.001 -0.001
 0.648  1.415  0.306  0.079 -0.015  0.000  0.000
 0.650  1.415  0.306  0.079 -0.014  0.001  0.001
 0.652  1.415  0.306  0.079 -0.014  0.002  0.002
 0.654  1.415  0.306  0.080 -0.013  0.002  0.002
 0.656  1.415  0.306  0.080 -0.012  0.003  0.003
 0.658  1.415  0.305  0.080 -0.012  0.004  0.004
 0.660  1.415  0.305  0.080 -0.012  0.005  0.005
 0.662  1.415  0.305  0.079 -0.011  0.005  0.005
 0.664  1.414  0.305  0.079 -0.010  0.006  0.006
 0.666  1.414  0.304  0.079 -0.010  0.007  0.007
 0.668  1.414  0.304  0.079 -0.010  0.008  0.008
 0.670  1.414  0.304  0.079 -0.009  0.009  0.009
 0.672  1.414  0.303  0.079 -0.009  0.010  0.010
 0.674  1.413  0.303  0.079 -0.008  0.011  0.011
 0.676  1.413  0.301  0.079 -0.008  0.011  0.011
 0.678  1.413  0.301  0.078 -0.008  0.012  0.012
 0.680  1.413  0.300  0.078 -0.008  0.013  0.013
 0.682  1.411  0.300  0.078 -0.007  0.014  0.014
 0.684  1.411  0.299  0.078 -0.007  0.015  0.015
 0.686  1.411  0.299  0.077 -0.007  0.015  0.015
 0.688  1.411  0.298  0.077 -0.006  0.017  0.017
 0.690  1.410  0.297  0.077 -0.006  0.018  0.018
 0.692  1.410  0.297  0.076 -0.006  0.018  0.018
 0.694  1.410  0.296  0.076 -0.006  0.019  0.019
 0.696  1.409  0.294  0.076 -0.006  0.020  0.020
 0.698  1.409  0.293  0.075 -0.006  0.021  0.021
 0.700  1.408  0.292  0.075 -0.006  0.022  0.022
 0.702  1.408  0.292  0.075 -0.006  0.023  0.023
 0.704  1.408  0.291  0.075 -0.006  0.024  0.024
 0.706  1.407  0.290  0.075 -0.006  0.024  0.024
 0.708  1.407  0.289  0.074 -0.006  0.025  0.025
 0.710  1.406  0.288  0.073 -0.006  0.027  0.027
 0.712  1.406  0.286  0.073 -0.006  0.028  0.028
 0.714  1.405  0.285  0.072 -0.006  0.028  0.028
 0.716  1.405  0.284  0.072 -0.006  0.029  0.029
 0.718  1.405  0.283  0.071 -0.006  0.030  0.030
 0.720  1.404  0.282  0.070 -0.006  0.031  0.031
 0.722  1.404  0.281  0.070 -0.006  0.032  0.032
 0.724  1.403  0.279  0.070 -0.006  0.033  0.033
 0.726  1.403  0.278  0.070 -0.006  0.034  0.034
 0.728  1.403  0.278  0.069 -0.006  0.035  0.035
 0.730  1.403  0.277  0.069 -0.006  0.036  0.036
 0.732  1.403  0.277  0.069 -0.006  0.037  0.037
 0.734  1.403  0.277  0.069 -0.005  0.038  0.038
 0.736  1.403  0.277  0.069 -0.004  0.040  0.040
 0.738  1.403  0.277  0.069 -0.004  0.041  0.041
 0.740  1.403  0.277  0.069 -0.003  0.042  0.042
 0.742  1.403  0.278  0.069 -0.002  0.043  0.043
 0.744  1.403  0.279  0.070 -0.001  0.044  0.044
 0.746  1.403  0.279  0.070 -0.000  0.046  0.046
 0.748  1.404  0.281  0.070  0.001  0.047  0.047
 0.750  1.404  0.282  0.071  0.002  0.048  0.048
 0.752  1.404  0.283  0.071  0.004  0.049  0.049
 0.754  1.405  0.285  0.072  0.005  0.051  0.051
 0.756  1.405  0.286  0.073  0.006  0.052  0.052
 0.758  1.406  0.288  0.074  0.008  0.054  0.054
 0.760  1.406  0.290  0.075  0.010  0.055  0.055
 0.762  1.407  0.292  0.076  0.012  0.057  0.057
 0.764  1.408  0.293  0.077  0.013  0.058  0.058
 0.766  1.409  0.296  0.079  0.015  0.059  0.059
 0.768  1.409  0.299  0.080  0.018  0.061  0.061
 0.770  1.410  0.301  0.081  0.020  0.063  0.063
 0.772  1.411  0.305  0.083  0.022  0.064  0.064
 0.774  1.413  0.307  0.085  0.025  0.066  0.066
 0.776  1.414  0.311  0.086  0.027  0.068  0.068
 0.778  1.415  0.314  0.088  0.030  0.069  0.069
 0.780  1.416  0.318  0.091  0.033  0.071  0.071
 0.782  1.417  0.322  0.092  0.035  0.073  0.073
 0.784  1.419  0.326  0.095  0.038  0.075  0.075
 0.786  1.420  0.329  0.097  0.041  0.076  0.076
 0.788  1.421  0.334  0.099  0.044  0.078  0.078
 0.790  1.424  0.337  0.101  0.048  0.080  0.080
 0.792  1.425  0.341  0.103  0.050  0.082  0.082
 0.794  1.426  0.345  0.106  0.053  0.084  0.084
 0.796  1.428  0.349  0.108  0.056  0.086  0.086
 0.798  1.430  0.352  0.110  0.059  0.087  0.087
 0.800  1.431  0.356  0.113  0.062  0.090  0.090
 0.802  1.434  0.360  0.115  0.065  0.091  0.091
 0.804  1.436  0.363  0.118  0.068  0.092  0.092
 0.806  1.438  0.366  0.120  0.070  0.093  0.093
 0.808  1.440  0.370  0.122  0.073  0.094  0.094
