# IsPeriodic    : True
# Period        : 0.599831 days
# Normalization : <g_mag>=0
# 
# Phase u_mag  g_mag  r_mag  i_mag  z_mag  y_mag
 0.000  0.685 -0.492 -0.514 -0.495 -0.433 -0.433
 0.002  0.685 -0.492 -0.514 -0.495 -0.433 -0.433
 0.004  0.685 -0.492 -0.513 -0.495 -0.433 -0.433
 0.006  0.686 -0.491 -0.513 -0.494 -0.433 -0.433
 0.008  0.687 -0.489 -0.513 -0.494 -0.432 -0.432
 0.010  0.688 -0.487 -0.512 -0.493 -0.432 -0.432
 0.012  0.689 -0.485 -0.512 -0.492 -0.431 -0.431
 0.014  0.690 -0.481 -0.511 -0.491 -0.430 -0.430
 0.016  0.691 -0.478 -0.510 -0.490 -0.429 -0.429
 0.018  0.693 -0.475 -0.510 -0.489 -0.429 -0.429
 0.020  0.694 -0.471 -0.509 -0.488 -0.427 -0.427
 0.022  0.696 -0.468 -0.508 -0.486 -0.426 -0.426
 0.024  0.698 -0.464 -0.507 -0.485 -0.425 -0.425
 0.026  0.699 -0.460 -0.506 -0.484 -0.424 -0.424
 0.028  0.702 -0.456 -0.505 -0.483 -0.423 -0.423
 0.030  0.703 -0.452 -0.504 -0.481 -0.422 -0.422
 0.032  0.705 -0.448 -0.502 -0.480 -0.421 -0.421
 0.034  0.707 -0.444 -0.501 -0.479 -0.420 -0.420
 0.036  0.709 -0.440 -0.499 -0.478 -0.418 -0.418
 0.038  0.711 -0.436 -0.498 -0.477 -0.417 -0.417
 0.040  0.713 -0.431 -0.496 -0.476 -0.416 -0.416
 0.042  0.715 -0.428 -0.494 -0.474 -0.415 -0.415
 0.044  0.718 -0.424 -0.492 -0.473 -0.414 -0.414
 0.046  0.721 -0.420 -0.490 -0.472 -0.412 -0.412
 0.048  0.723 -0.416 -0.488 -0.471 -0.411 -0.411
 0.050  0.725 -0.411 -0.486 -0.469 -0.410 -0.410
 0.052  0.728 -0.407 -0.483 -0.468 -0.409 -0.409
 0.054  0.731 -0.403 -0.481 -0.466 -0.408 -0.408
 0.056  0.734 -0.400 -0.478 -0.465 -0.407 -0.407
 0.058  0.737 -0.395 -0.476 -0.464 -0.406 -0.406
 0.060  0.740 -0.391 -0.473 -0.462 -0.405 -0.405
 0.062  0.743 -0.387 -0.471 -0.460 -0.404 -0.404
 0.064  0.745 -0.383 -0.468 -0.459 -0.403 -0.403
 0.066  0.749 -0.378 -0.465 -0.458 -0.402 -0.402
 0.068  0.752 -0.375 -0.463 -0.456 -0.400 -0.400
 0.070  0.756 -0.371 -0.460 -0.455 -0.399 -0.399
 0.072  0.759 -0.366 -0.458 -0.453 -0.399 -0.399
 0.074  0.762 -0.362 -0.455 -0.451 -0.397 -0.397
 0.076  0.766 -0.357 -0.452 -0.450 -0.396 -0.396
 0.078  0.770 -0.354 -0.449 -0.449 -0.395 -0.395
 0.080  0.773 -0.350 -0.446 -0.447 -0.394 -0.394
 0.082  0.777 -0.345 -0.444 -0.445 -0.393 -0.393
 0.084  0.781 -0.341 -0.441 -0.443 -0.392 -0.392
 0.086  0.784 -0.336 -0.438 -0.442 -0.391 -0.391
 0.088  0.787 -0.332 -0.436 -0.440 -0.390 -0.390
 0.090  0.791 -0.328 -0.433 -0.439 -0.389 -0.389
 0.092  0.794 -0.324 -0.431 -0.437 -0.388 -0.388
 0.094  0.798 -0.320 -0.428 -0.436 -0.387 -0.387
 0.096  0.802 -0.315 -0.426 -0.434 -0.386 -0.386
 0.098  0.805 -0.311 -0.424 -0.433 -0.385 -0.385
 0.100  0.809 -0.308 -0.421 -0.431 -0.384 -0.384
 0.102  0.812 -0.303 -0.419 -0.430 -0.383 -0.383
 0.104  0.816 -0.299 -0.417 -0.428 -0.382 -0.382
 0.106  0.819 -0.295 -0.414 -0.426 -0.381 -0.381
 0.108  0.823 -0.291 -0.412 -0.425 -0.381 -0.381
 0.110  0.827 -0.287 -0.410 -0.424 -0.379 -0.379
 0.112  0.830 -0.283 -0.408 -0.422 -0.379 -0.379
 0.114  0.833 -0.279 -0.406 -0.420 -0.378 -0.378
 0.116  0.837 -0.276 -0.404 -0.419 -0.377 -0.377
 0.118  0.841 -0.272 -0.401 -0.418 -0.376 -0.376
 0.120  0.843 -0.269 -0.400 -0.416 -0.375 -0.375
 0.122  0.847 -0.265 -0.397 -0.415 -0.374 -0.374
 0.124  0.851 -0.261 -0.395 -0.413 -0.373 -0.373
 0.126  0.854 -0.258 -0.394 -0.412 -0.372 -0.372
 0.128  0.857 -0.254 -0.392 -0.410 -0.371 -0.371
 0.130  0.861 -0.250 -0.390 -0.409 -0.370 -0.370
 0.132  0.865 -0.247 -0.388 -0.408 -0.369 -0.369
 0.134  0.868 -0.243 -0.386 -0.406 -0.369 -0.369
 0.136  0.871 -0.240 -0.384 -0.405 -0.367 -0.367
 0.138  0.875 -0.236 -0.382 -0.403 -0.367 -0.367
 0.140  0.879 -0.233 -0.381 -0.402 -0.366 -0.366
 0.142  0.882 -0.230 -0.379 -0.401 -0.365 -0.365
 0.144  0.885 -0.226 -0.377 -0.399 -0.364 -0.364
 0.146  0.889 -0.223 -0.376 -0.398 -0.363 -0.363
 0.148  0.892 -0.219 -0.374 -0.396 -0.362 -0.362
 0.150  0.895 -0.216 -0.372 -0.395 -0.361 -0.361
 0.152  0.898 -0.213 -0.370 -0.394 -0.360 -0.360
 0.154  0.902 -0.210 -0.368 -0.392 -0.360 -0.360
 0.156  0.906 -0.207 -0.367 -0.391 -0.359 -0.359
 0.158  0.909 -0.204 -0.365 -0.390 -0.358 -0.358
 0.160  0.912 -0.201 -0.363 -0.388 -0.357 -0.357
 0.162  0.915 -0.198 -0.361 -0.387 -0.356 -0.356
 0.164  0.919 -0.195 -0.359 -0.385 -0.355 -0.355
 0.166  0.922 -0.192 -0.358 -0.384 -0.355 -0.355
 0.168  0.925 -0.189 -0.356 -0.383 -0.354 -0.354
 0.170  0.928 -0.186 -0.354 -0.382 -0.353 -0.353
 0.172  0.932 -0.184 -0.352 -0.380 -0.352 -0.352
 0.174  0.935 -0.180 -0.350 -0.379 -0.351 -0.351
 0.176  0.939 -0.177 -0.349 -0.378 -0.351 -0.351
 0.178  0.942 -0.174 -0.347 -0.376 -0.349 -0.349
 0.180  0.944 -0.171 -0.345 -0.375 -0.349 -0.349
 0.182  0.948 -0.168 -0.343 -0.374 -0.348 -0.348
 0.184  0.951 -0.165 -0.341 -0.373 -0.347 -0.347
 0.186  0.955 -0.162 -0.340 -0.371 -0.346 -0.346
 0.188  0.958 -0.159 -0.338 -0.370 -0.345 -0.345
 0.190  0.961 -0.156 -0.336 -0.369 -0.345 -0.345
 0.192  0.963 -0.153 -0.334 -0.367 -0.344 -0.344
 0.194  0.967 -0.150 -0.332 -0.366 -0.343 -0.343
 0.196  0.970 -0.147 -0.331 -0.365 -0.342 -0.342
 0.198  0.973 -0.144 -0.329 -0.364 -0.341 -0.341
 0.200  0.976 -0.141 -0.327 -0.362 -0.340 -0.340
 0.202  0.980 -0.138 -0.325 -0.361 -0.340 -0.340
 0.204  0.983 -0.134 -0.323 -0.360 -0.339 -0.339
 0.206  0.985 -0.131 -0.322 -0.359 -0.338 -0.338
 0.208  0.988 -0.128 -0.320 -0.358 -0.337 -0.337
 0.210  0.991 -0.125 -0.318 -0.356 -0.337 -0.337
 0.212  0.995 -0.122 -0.316 -0.355 -0.336 -0.336
 0.214  0.998 -0.119 -0.314 -0.354 -0.335 -0.335
 0.216  1.001 -0.116 -0.313 -0.353 -0.334 -0.334
 0.218  1.004 -0.113 -0.311 -0.352 -0.333 -0.333
 0.220  1.007 -0.109 -0.309 -0.350 -0.333 -0.333
 0.222  1.010 -0.106 -0.307 -0.349 -0.332 -0.332
 0.224  1.013 -0.103 -0.305 -0.348 -0.331 -0.331
 0.226  1.015 -0.100 -0.304 -0.347 -0.330 -0.330
 0.228  1.018 -0.096 -0.301 -0.346 -0.329 -0.329
 0.230  1.021 -0.093 -0.300 -0.344 -0.328 -0.328
 0.232  1.024 -0.090 -0.298 -0.344 -0.328 -0.328
 0.234  1.027 -0.087 -0.296 -0.342 -0.327 -0.327
 0.236  1.030 -0.084 -0.294 -0.341 -0.326 -0.326
 0.238  1.032 -0.081 -0.292 -0.340 -0.325 -0.325
 0.240  1.035 -0.077 -0.291 -0.338 -0.325 -0.325
 0.242  1.038 -0.074 -0.289 -0.338 -0.324 -0.324
 0.244  1.041 -0.071 -0.287 -0.336 -0.323 -0.323
 0.246  1.044 -0.068 -0.285 -0.335 -0.322 -0.322
 0.248  1.046 -0.065 -0.283 -0.334 -0.321 -0.321
 0.250  1.049 -0.063 -0.282 -0.332 -0.321 -0.321
 0.252  1.052 -0.060 -0.279 -0.331 -0.319 -0.319
 0.254  1.054 -0.056 -0.278 -0.330 -0.319 -0.319
 0.256  1.057 -0.054 -0.276 -0.329 -0.318 -0.318
 0.258  1.060 -0.051 -0.274 -0.327 -0.317 -0.317
 0.260  1.062 -0.048 -0.272 -0.326 -0.316 -0.316
 0.262  1.065 -0.046 -0.270 -0.325 -0.315 -0.315
 0.264  1.067 -0.042 -0.269 -0.324 -0.314 -0.314
 0.266  1.070 -0.040 -0.267 -0.323 -0.313 -0.313
 0.268  1.073 -0.037 -0.265 -0.321 -0.312 -0.312
 0.270  1.075 -0.035 -0.263 -0.320 -0.312 -0.312
 0.272  1.078 -0.032 -0.261 -0.319 -0.310 -0.310
 0.274  1.081 -0.029 -0.259 -0.318 -0.310 -0.310
 0.276  1.083 -0.027 -0.257 -0.316 -0.309 -0.309
 0.278  1.086 -0.024 -0.256 -0.315 -0.307 -0.307
 0.280  1.088 -0.022 -0.254 -0.314 -0.307 -0.307
 0.282  1.090 -0.020 -0.252 -0.313 -0.306 -0.306
 0.284  1.093 -0.017 -0.250 -0.311 -0.304 -0.304
 0.286  1.095 -0.014 -0.248 -0.310 -0.304 -0.304
 0.288  1.097 -0.012 -0.247 -0.309 -0.303 -0.303
 0.290  1.100 -0.010 -0.245 -0.308 -0.301 -0.301
 0.292  1.102 -0.008 -0.243 -0.306 -0.300 -0.300
 0.294  1.105 -0.006 -0.241 -0.305 -0.299 -0.299
 0.296  1.107 -0.003 -0.240 -0.304 -0.298 -0.298
 0.298  1.110 -0.001 -0.237 -0.303 -0.297 -0.297
 0.300  1.112  0.001 -0.236 -0.302 -0.296 -0.296
 0.302  1.114  0.003 -0.234 -0.300 -0.295 -0.295
 0.304  1.116  0.005 -0.232 -0.299 -0.294 -0.294
 0.306  1.119  0.008 -0.231 -0.297 -0.293 -0.293
 0.308  1.122  0.010 -0.229 -0.297 -0.292 -0.292
 0.310  1.124  0.011 -0.227 -0.295 -0.291 -0.291
 0.312  1.126  0.014 -0.225 -0.294 -0.289 -0.289
 0.314  1.128  0.016 -0.223 -0.293 -0.288 -0.288
 0.316  1.131  0.018 -0.222 -0.291 -0.287 -0.287
 0.318  1.133  0.020 -0.220 -0.291 -0.286 -0.286
 0.320  1.135  0.022 -0.218 -0.289 -0.285 -0.285
 0.322  1.138  0.025 -0.216 -0.288 -0.284 -0.284
 0.324  1.140  0.026 -0.215 -0.287 -0.283 -0.283
 0.326  1.143  0.029 -0.213 -0.285 -0.282 -0.282
 0.328  1.145  0.031 -0.211 -0.285 -0.280 -0.280
 0.330  1.147  0.033 -0.210 -0.283 -0.280 -0.280
 0.332  1.149  0.036 -0.208 -0.282 -0.279 -0.279
 0.334  1.152  0.037 -0.206 -0.281 -0.277 -0.277
 0.336  1.154  0.039 -0.205 -0.280 -0.276 -0.276
 0.338  1.157  0.042 -0.203 -0.279 -0.276 -0.276
 0.340  1.159  0.044 -0.201 -0.278 -0.274 -0.274
 0.342  1.161  0.047 -0.200 -0.276 -0.273 -0.273
 0.344  1.163  0.049 -0.198 -0.275 -0.273 -0.273
 0.346  1.165  0.051 -0.196 -0.274 -0.271 -0.271
 0.348  1.168  0.054 -0.195 -0.273 -0.271 -0.271
 0.350  1.171  0.056 -0.193 -0.272 -0.270 -0.270
 0.352  1.173  0.058 -0.191 -0.271 -0.268 -0.268
 0.354  1.175  0.061 -0.189 -0.270 -0.268 -0.268
 0.356  1.177  0.063 -0.188 -0.268 -0.267 -0.267
 0.358  1.179  0.065 -0.186 -0.268 -0.266 -0.266
 0.360  1.182  0.068 -0.184 -0.266 -0.265 -0.265
 0.362  1.184  0.070 -0.183 -0.265 -0.264 -0.264
 0.364  1.187  0.072 -0.182 -0.264 -0.263 -0.263
 0.366  1.189  0.075 -0.180 -0.263 -0.262 -0.262
 0.368  1.191  0.077 -0.178 -0.262 -0.261 -0.261
 0.370  1.193  0.079 -0.177 -0.261 -0.260 -0.260
 0.372  1.195  0.082 -0.175 -0.260 -0.259 -0.259
 0.374  1.198  0.084 -0.174 -0.259 -0.259 -0.259
 0.376  1.199  0.086 -0.173 -0.257 -0.258 -0.258
 0.378  1.201  0.089 -0.171 -0.256 -0.257 -0.257
 0.380  1.203  0.091 -0.170 -0.256 -0.256 -0.256
 0.382  1.206  0.093 -0.168 -0.254 -0.255 -0.255
 0.384  1.208  0.096 -0.167 -0.253 -0.254 -0.254
 0.386  1.209  0.098 -0.165 -0.252 -0.253 -0.253
 0.388  1.212  0.100 -0.164 -0.251 -0.253 -0.253
 0.390  1.214  0.103 -0.162 -0.250 -0.252 -0.252
 0.392  1.215  0.105 -0.161 -0.249 -0.251 -0.251
 0.394  1.217  0.107 -0.160 -0.248 -0.250 -0.250
 0.396  1.219  0.110 -0.159 -0.247 -0.249 -0.249
 0.398  1.221  0.111 -0.157 -0.245 -0.248 -0.248
 0.400  1.222  0.114 -0.156 -0.244 -0.247 -0.247
 0.402  1.225  0.116 -0.155 -0.243 -0.246 -0.246
 0.404  1.226  0.117 -0.154 -0.242 -0.245 -0.245
 0.406  1.228  0.120 -0.152 -0.241 -0.244 -0.244
 0.408  1.230  0.121 -0.151 -0.240 -0.243 -0.243
 0.410  1.231  0.124 -0.150 -0.239 -0.242 -0.242
 0.412  1.233  0.125 -0.148 -0.238 -0.241 -0.241
 0.414  1.235  0.128 -0.147 -0.237 -0.240 -0.240
 0.416  1.236  0.129 -0.146 -0.235 -0.239 -0.239
 0.418  1.238  0.132 -0.145 -0.234 -0.238 -0.238
 0.420  1.239  0.133 -0.144 -0.233 -0.237 -0.237
 0.422  1.241  0.135 -0.143 -0.232 -0.236 -0.236
 0.424  1.242  0.136 -0.142 -0.231 -0.235 -0.235
 0.426  1.244  0.139 -0.141 -0.230 -0.234 -0.234
 0.428  1.245  0.140 -0.139 -0.229 -0.233 -0.233
 0.430  1.247  0.142 -0.138 -0.227 -0.232 -0.232
 0.432  1.248  0.143 -0.137 -0.227 -0.231 -0.231
 0.434  1.250  0.145 -0.136 -0.225 -0.229 -0.229
 0.436  1.251  0.146 -0.135 -0.224 -0.228 -0.228
 0.438  1.252  0.148 -0.134 -0.223 -0.227 -0.227
 0.440  1.254  0.149 -0.133 -0.222 -0.226 -0.226
 0.442  1.255  0.151 -0.132 -0.221 -0.225 -0.225
 0.444  1.257  0.153 -0.130 -0.220 -0.223 -0.223
 0.446  1.258  0.154 -0.129 -0.219 -0.222 -0.222
 0.448  1.260  0.156 -0.128 -0.217 -0.221 -0.221
 0.450  1.261  0.156 -0.127 -0.216 -0.220 -0.220
 0.452  1.263  0.158 -0.126 -0.215 -0.219 -0.219
 0.454  1.264  0.160 -0.125 -0.215 -0.217 -0.217
 0.456  1.266  0.160 -0.124 -0.213 -0.216 -0.216
 0.458  1.267  0.162 -0.123 -0.212 -0.215 -0.215
 0.460  1.269  0.163 -0.122 -0.211 -0.214 -0.214
 0.462  1.270  0.164 -0.121 -0.210 -0.213 -0.213
 0.464  1.271  0.166 -0.120 -0.209 -0.212 -0.212
 0.466  1.273  0.167 -0.119 -0.209 -0.211 -0.211
 0.468  1.275  0.168 -0.118 -0.208 -0.210 -0.210
 0.470  1.277  0.169 -0.116 -0.207 -0.208 -0.208
 0.472  1.278  0.170 -0.115 -0.205 -0.208 -0.208
 0.474  1.280  0.171 -0.114 -0.204 -0.207 -0.207
 0.476  1.281  0.173 -0.113 -0.203 -0.205 -0.205
 0.478  1.282  0.174 -0.112 -0.203 -0.205 -0.205
 0.480  1.285  0.175 -0.111 -0.202 -0.204 -0.204
 0.482  1.286  0.176 -0.110 -0.201 -0.203 -0.203
 0.484  1.288  0.177 -0.109 -0.200 -0.202 -0.202
 0.486  1.289  0.178 -0.107 -0.199 -0.201 -0.201
 0.488  1.291  0.179 -0.106 -0.198 -0.200 -0.200
 0.490  1.293  0.180 -0.106 -0.197 -0.199 -0.199
 0.492  1.294  0.181 -0.105 -0.197 -0.198 -0.198
 0.494  1.296  0.181 -0.103 -0.196 -0.198 -0.198
 0.496  1.298  0.182 -0.102 -0.195 -0.197 -0.197
 0.498  1.300  0.183 -0.101 -0.194 -0.196 -0.196
 0.500  1.301  0.184 -0.100 -0.194 -0.195 -0.195
 0.502  1.304  0.185 -0.099 -0.193 -0.195 -0.195
 0.504  1.305  0.186 -0.098 -0.192 -0.194 -0.194
 0.506  1.307  0.187 -0.097 -0.192 -0.193 -0.193
 0.508  1.309  0.188 -0.096 -0.191 -0.192 -0.192
 0.510  1.310  0.188 -0.095 -0.190 -0.192 -0.192
 0.512  1.312  0.188 -0.094 -0.189 -0.191 -0.191
 0.514  1.313  0.189 -0.093 -0.188 -0.190 -0.190
 0.516  1.315  0.190 -0.092 -0.187 -0.190 -0.190
 0.518  1.316  0.191 -0.091 -0.187 -0.189 -0.189
 0.520  1.318  0.192 -0.091 -0.186 -0.189 -0.189
 0.522  1.319  0.192 -0.089 -0.186 -0.188 -0.188
 0.524  1.320  0.192 -0.088 -0.185 -0.188 -0.188
 0.526  1.321  0.193 -0.088 -0.184 -0.187 -0.187
 0.528  1.322  0.194 -0.087 -0.183 -0.187 -0.187
 0.530  1.323  0.194 -0.086 -0.182 -0.186 -0.186
 0.532  1.324  0.195 -0.085 -0.182 -0.186 -0.186
 0.534  1.326  0.195 -0.084 -0.181 -0.185 -0.185
 0.536  1.326  0.195 -0.083 -0.180 -0.184 -0.184
 0.538  1.327  0.196 -0.083 -0.180 -0.184 -0.184
 0.540  1.328  0.196 -0.082 -0.179 -0.183 -0.183
 0.542  1.329  0.197 -0.081 -0.178 -0.183 -0.183
 0.544  1.329  0.197 -0.080 -0.177 -0.182 -0.182
 0.546  1.330  0.198 -0.079 -0.177 -0.182 -0.182
 0.548  1.330  0.198 -0.079 -0.176 -0.181 -0.181
 0.550  1.331  0.199 -0.078 -0.175 -0.181 -0.181
 0.552  1.331  0.199 -0.077 -0.174 -0.180 -0.180
 0.554  1.331  0.199 -0.076 -0.174 -0.180 -0.180
 0.556  1.331  0.199 -0.076 -0.173 -0.179 -0.179
 0.558  1.332  0.199 -0.075 -0.172 -0.178 -0.178
 0.560  1.332  0.200 -0.074 -0.172 -0.178 -0.178
 0.562  1.332  0.200 -0.074 -0.171 -0.177 -0.177
 0.564  1.332  0.200 -0.073 -0.170 -0.177 -0.177
 0.566  1.332  0.200 -0.073 -0.169 -0.176 -0.176
 0.568  1.332  0.201 -0.072 -0.168 -0.175 -0.175
 0.570  1.332  0.201 -0.071 -0.168 -0.175 -0.175
 0.572  1.331  0.201 -0.071 -0.167 -0.174 -0.174
 0.574  1.331  0.201 -0.070 -0.167 -0.174 -0.174
 0.576  1.331  0.201 -0.070 -0.166 -0.173 -0.173
 0.578  1.331  0.201 -0.069 -0.165 -0.173 -0.173
 0.580  1.331  0.201 -0.069 -0.164 -0.172 -0.172
 0.582  1.331  0.201 -0.068 -0.164 -0.172 -0.172
 0.584  1.330  0.201 -0.067 -0.163 -0.171 -0.171
 0.586  1.330  0.201 -0.067 -0.162 -0.171 -0.171
 0.588  1.330  0.201 -0.067 -0.162 -0.170 -0.170
 0.590  1.329  0.201 -0.066 -0.161 -0.169 -0.169
 0.592  1.329  0.201 -0.066 -0.161 -0.169 -0.169
 0.594  1.329  0.201 -0.066 -0.160 -0.168 -0.168
 0.596  1.329  0.201 -0.065 -0.159 -0.168 -0.168
 0.598  1.329  0.201 -0.065 -0.159 -0.167 -0.167
 0.600  1.329  0.201 -0.065 -0.158 -0.166 -0.166
 0.602  1.329  0.201 -0.064 -0.158 -0.166 -0.166
 0.604  1.329  0.201 -0.064 -0.157 -0.165 -0.165
 0.606  1.329  0.201 -0.064 -0.157 -0.165 -0.165
 0.608  1.328  0.201 -0.064 -0.157 -0.164 -0.164
 0.610  1.328  0.200 -0.064 -0.156 -0.163 -0.163
 0.612  1.328  0.200 -0.063 -0.156 -0.163 -0.163
 0.614  1.328  0.200 -0.063 -0.155 -0.162 -0.162
 0.616  1.328  0.200 -0.063 -0.155 -0.161 -0.161
 0.618  1.328  0.200 -0.062 -0.154 -0.160 -0.160
 0.620  1.328  0.200 -0.062 -0.154 -0.160 -0.160
 0.622  1.328  0.200 -0.062 -0.154 -0.159 -0.159
 0.624  1.328  0.200 -0.062 -0.153 -0.159 -0.159
 0.626  1.328  0.200 -0.062 -0.153 -0.158 -0.158
 0.628  1.328  0.200 -0.062 -0.153 -0.157 -0.157
 0.630  1.328  0.199 -0.062 -0.152 -0.156 -0.156
 0.632  1.328  0.199 -0.062 -0.152 -0.156 -0.156
 0.634  1.328  0.199 -0.062 -0.152 -0.155 -0.155
 0.636  1.329  0.199 -0.062 -0.152 -0.154 -0.154
 0.638  1.329  0.199 -0.062 -0.152 -0.153 -0.153
 0.640  1.329  0.199 -0.062 -0.152 -0.152 -0.152
 0.642  1.329  0.199 -0.062 -0.151 -0.151 -0.151
 0.644  1.329  0.199 -0.062 -0.151 -0.151 -0.151
 0.646  1.329  0.199 -0.062 -0.151 -0.150 -0.150
 0.648  1.329  0.199 -0.062 -0.151 -0.149 -0.149
 0.650  1.329  0.199 -0.062 -0.151 -0.148 -0.148
 0.652  1.330  0.199 -0.062 -0.151 -0.147 -0.147
 0.654  1.330  0.199 -0.061 -0.151 -0.146 -0.146
 0.656  1.330  0.199 -0.061 -0.151 -0.145 -0.145
 0.658  1.331  0.198 -0.061 -0.151 -0.145 -0.145
 0.660  1.331  0.198 -0.060 -0.150 -0.144 -0.144
 0.662  1.331  0.198 -0.060 -0.150 -0.143 -0.143
 0.664  1.331  0.198 -0.060 -0.150 -0.142 -0.142
 0.666  1.331  0.198 -0.059 -0.149 -0.141 -0.141
 0.668  1.331  0.198 -0.059 -0.149 -0.140 -0.140
 0.670  1.332  0.198 -0.058 -0.149 -0.139 -0.139
 0.672  1.332  0.198 -0.057 -0.148 -0.138 -0.138
 0.674  1.333  0.198 -0.057 -0.148 -0.137 -0.137
 0.676  1.333  0.198 -0.056 -0.147 -0.136 -0.136
 0.678  1.333  0.198 -0.055 -0.147 -0.135 -0.135
 0.680  1.334  0.199 -0.055 -0.146 -0.133 -0.133
 0.682  1.334  0.199 -0.053 -0.146 -0.132 -0.132
 0.684  1.334  0.199 -0.053 -0.145 -0.131 -0.131
 0.686  1.334  0.199 -0.052 -0.145 -0.129 -0.129
 0.688  1.335  0.199 -0.051 -0.144 -0.128 -0.128
 0.690  1.335  0.200 -0.050 -0.143 -0.127 -0.127
 0.692  1.336  0.200 -0.049 -0.143 -0.126 -0.126
 0.694  1.336  0.201 -0.048 -0.142 -0.124 -0.124
 0.696  1.337  0.202 -0.047 -0.141 -0.123 -0.123
 0.698  1.337  0.202 -0.046 -0.140 -0.121 -0.121
 0.700  1.337  0.202 -0.045 -0.139 -0.120 -0.120
 0.702  1.338  0.203 -0.044 -0.139 -0.118 -0.118
 0.704  1.338  0.204 -0.042 -0.138 -0.117 -0.117
 0.706  1.339  0.205 -0.041 -0.137 -0.115 -0.115
 0.708  1.340  0.206 -0.040 -0.136 -0.113 -0.113
 0.710  1.340  0.206 -0.039 -0.135 -0.111 -0.111
 0.712  1.340  0.207 -0.037 -0.134 -0.110 -0.110
 0.714  1.340  0.208 -0.036 -0.133 -0.108 -0.108
 0.716  1.341  0.209 -0.034 -0.132 -0.106 -0.106
 0.718  1.342  0.209 -0.033 -0.131 -0.104 -0.104
 0.720  1.342  0.211 -0.032 -0.130 -0.102 -0.102
 0.722  1.342  0.212 -0.030 -0.128 -0.100 -0.100
 0.724  1.343  0.213 -0.028 -0.127 -0.098 -0.098
 0.726  1.344  0.214 -0.026 -0.126 -0.096 -0.096
 0.728  1.345  0.215 -0.025 -0.125 -0.094 -0.094
 0.730  1.345  0.216 -0.023 -0.123 -0.092 -0.092
 0.732  1.347  0.217 -0.021 -0.122 -0.090 -0.090
 0.734  1.348  0.219 -0.019 -0.121 -0.088 -0.088
 0.736  1.349  0.220 -0.017 -0.119 -0.086 -0.086
 0.738  1.350  0.221 -0.015 -0.117 -0.084 -0.084
 0.740  1.351  0.223 -0.014 -0.116 -0.082 -0.082
 0.742  1.353  0.224 -0.011 -0.114 -0.080 -0.080
 0.744  1.354  0.225 -0.010 -0.112 -0.078 -0.078
 0.746  1.356  0.227 -0.007 -0.110 -0.076 -0.076
 0.748  1.357  0.228 -0.005 -0.109 -0.075 -0.075
 0.750  1.359  0.230 -0.003 -0.107 -0.073 -0.073
 0.752  1.360  0.231 -0.001 -0.105 -0.071 -0.071
 0.754  1.361  0.233  0.002 -0.103 -0.070 -0.070
 0.756  1.363  0.234  0.004 -0.101 -0.068 -0.068
 0.758  1.364  0.236  0.006 -0.099 -0.067 -0.067
 0.760  1.367  0.238  0.008 -0.097 -0.066 -0.066
 0.762  1.368  0.240  0.011 -0.095 -0.065 -0.065
 0.764  1.370  0.241  0.013 -0.093 -0.064 -0.064
 0.766  1.372  0.243  0.016 -0.091 -0.063 -0.063
 0.768  1.375  0.245  0.019 -0.088 -0.062 -0.062
 0.770  1.377  0.247  0.021 -0.086 -0.061 -0.061
 0.772  1.379  0.248  0.024 -0.083 -0.061 -0.061
 0.774  1.382  0.250  0.027 -0.081 -0.060 -0.060
 0.776  1.384  0.252  0.030 -0.078 -0.060 -0.060
 0.778  1.387  0.254  0.033 -0.075 -0.059 -0.059
 0.780  1.390  0.255  0.035 -0.072 -0.059 -0.059
 0.782  1.393  0.257  0.038 -0.069 -0.058 -0.058
 0.784  1.395  0.259  0.040 -0.067 -0.058 -0.058
 0.786  1.398  0.261  0.042 -0.064 -0.058 -0.058
 0.788  1.400  0.263  0.044 -0.061 -0.058 -0.058
 0.790  1.403  0.266  0.045 -0.058 -0.058 -0.058
 0.792  1.405  0.268  0.047 -0.056 -0.058 -0.058
 0.794  1.408  0.270  0.048 -0.053 -0.058 -0.058
 0.796  1.410  0.273  0.048 -0.051 -0.058 -0.058
 0.798  1.411  0.275  0.048 -0.048 -0.059 -0.059
 0.800  1.413  0.277  0.048 -0.046 -0.060 -0.060
 0.802  1.414  0.280  0.048 -0.044 -0.060 -0.060
 0.804  1.415  0.282  0.047 -0.042 -0.061 -0.061
 0.806  1.416  0.284  0.046 -0.040 -0.061 -0.061
 0.808  1.416  0.285  0.045 -0.039 -0.062 -0.062
