# IsPeriodic    : True
# Period        : 0.480346 days
# Normalization : <g_mag>=0
# 
# Phase u_mag  g_mag  r_mag  i_mag  z_mag  y_mag
 0.000  0.402 -0.674 -0.682 -0.505 -0.373 -0.373
 0.002  0.402 -0.674 -0.682 -0.505 -0.373 -0.373
 0.004  0.403 -0.673 -0.680 -0.505 -0.372 -0.372
 0.006  0.404 -0.672 -0.678 -0.505 -0.372 -0.372
 0.008  0.405 -0.670 -0.675 -0.504 -0.370 -0.370
 0.010  0.407 -0.668 -0.672 -0.503 -0.369 -0.369
 0.012  0.410 -0.665 -0.668 -0.502 -0.368 -0.368
 0.014  0.412 -0.662 -0.663 -0.501 -0.366 -0.366
 0.016  0.415 -0.659 -0.659 -0.499 -0.365 -0.365
 0.018  0.418 -0.655 -0.654 -0.498 -0.363 -0.363
 0.020  0.421 -0.651 -0.650 -0.497 -0.361 -0.361
 0.022  0.424 -0.647 -0.644 -0.495 -0.359 -0.359
 0.024  0.429 -0.643 -0.639 -0.493 -0.358 -0.358
 0.026  0.432 -0.638 -0.634 -0.491 -0.356 -0.356
 0.028  0.436 -0.634 -0.629 -0.489 -0.354 -0.354
 0.030  0.440 -0.629 -0.625 -0.487 -0.353 -0.353
 0.032  0.445 -0.625 -0.620 -0.485 -0.351 -0.351
 0.034  0.449 -0.620 -0.616 -0.483 -0.349 -0.349
 0.036  0.454 -0.615 -0.611 -0.481 -0.348 -0.348
 0.038  0.459 -0.611 -0.606 -0.478 -0.346 -0.346
 0.040  0.464 -0.606 -0.602 -0.475 -0.345 -0.345
 0.042  0.470 -0.601 -0.598 -0.473 -0.343 -0.343
 0.044  0.475 -0.596 -0.593 -0.470 -0.342 -0.342
 0.046  0.481 -0.592 -0.589 -0.467 -0.340 -0.340
 0.048  0.487 -0.587 -0.584 -0.464 -0.339 -0.339
 0.050  0.493 -0.581 -0.580 -0.461 -0.337 -0.337
 0.052  0.500 -0.576 -0.575 -0.457 -0.336 -0.336
 0.054  0.507 -0.572 -0.569 -0.454 -0.334 -0.334
 0.056  0.514 -0.566 -0.565 -0.450 -0.332 -0.332
 0.058  0.521 -0.561 -0.560 -0.446 -0.331 -0.331
 0.060  0.528 -0.556 -0.555 -0.443 -0.330 -0.330
 0.062  0.535 -0.551 -0.550 -0.438 -0.328 -0.328
 0.064  0.543 -0.544 -0.546 -0.435 -0.327 -0.327
 0.066  0.551 -0.539 -0.540 -0.430 -0.325 -0.325
 0.068  0.560 -0.534 -0.535 -0.426 -0.324 -0.324
 0.070  0.568 -0.528 -0.531 -0.422 -0.323 -0.323
 0.072  0.577 -0.522 -0.526 -0.417 -0.321 -0.321
 0.074  0.585 -0.517 -0.522 -0.413 -0.320 -0.320
 0.076  0.594 -0.510 -0.516 -0.408 -0.319 -0.319
 0.078  0.602 -0.505 -0.511 -0.404 -0.317 -0.317
 0.080  0.611 -0.499 -0.507 -0.400 -0.316 -0.316
 0.082  0.620 -0.493 -0.502 -0.395 -0.315 -0.315
 0.084  0.628 -0.487 -0.498 -0.391 -0.313 -0.313
 0.086  0.636 -0.481 -0.493 -0.387 -0.312 -0.312
 0.088  0.644 -0.474 -0.488 -0.382 -0.310 -0.310
 0.090  0.652 -0.469 -0.483 -0.378 -0.309 -0.309
 0.092  0.660 -0.463 -0.478 -0.374 -0.307 -0.307
 0.094  0.668 -0.456 -0.474 -0.370 -0.306 -0.306
 0.096  0.674 -0.451 -0.469 -0.366 -0.304 -0.304
 0.098  0.682 -0.445 -0.464 -0.363 -0.303 -0.303
 0.100  0.689 -0.438 -0.460 -0.358 -0.301 -0.301
 0.102  0.696 -0.433 -0.455 -0.355 -0.300 -0.300
 0.104  0.703 -0.427 -0.451 -0.351 -0.298 -0.298
 0.106  0.709 -0.422 -0.446 -0.348 -0.296 -0.296
 0.108  0.716 -0.415 -0.441 -0.344 -0.295 -0.295
 0.110  0.722 -0.410 -0.437 -0.341 -0.293 -0.293
 0.112  0.729 -0.405 -0.433 -0.337 -0.291 -0.291
 0.114  0.734 -0.399 -0.428 -0.334 -0.289 -0.289
 0.116  0.741 -0.394 -0.424 -0.331 -0.288 -0.288
 0.118  0.747 -0.389 -0.419 -0.328 -0.285 -0.285
 0.120  0.752 -0.383 -0.416 -0.324 -0.284 -0.284
 0.122  0.758 -0.378 -0.411 -0.321 -0.282 -0.282
 0.124  0.764 -0.373 -0.406 -0.318 -0.280 -0.280
 0.126  0.769 -0.368 -0.403 -0.315 -0.278 -0.278
 0.128  0.774 -0.362 -0.398 -0.312 -0.276 -0.276
 0.130  0.780 -0.358 -0.394 -0.309 -0.273 -0.273
 0.132  0.784 -0.353 -0.390 -0.307 -0.272 -0.272
 0.134  0.789 -0.348 -0.386 -0.304 -0.269 -0.269
 0.136  0.793 -0.343 -0.381 -0.301 -0.267 -0.267
 0.138  0.798 -0.338 -0.378 -0.299 -0.265 -0.265
 0.140  0.802 -0.334 -0.374 -0.297 -0.262 -0.262
 0.142  0.807 -0.330 -0.370 -0.294 -0.260 -0.260
 0.144  0.810 -0.324 -0.366 -0.292 -0.258 -0.258
 0.146  0.815 -0.320 -0.361 -0.290 -0.255 -0.255
 0.148  0.819 -0.316 -0.358 -0.288 -0.253 -0.253
 0.150  0.823 -0.312 -0.354 -0.285 -0.251 -0.251
 0.152  0.827 -0.307 -0.350 -0.283 -0.248 -0.248
 0.154  0.830 -0.303 -0.346 -0.280 -0.246 -0.246
 0.156  0.835 -0.299 -0.342 -0.278 -0.243 -0.243
 0.158  0.838 -0.295 -0.338 -0.276 -0.240 -0.240
 0.160  0.843 -0.290 -0.334 -0.274 -0.238 -0.238
 0.162  0.846 -0.287 -0.331 -0.272 -0.236 -0.236
 0.164  0.851 -0.283 -0.327 -0.269 -0.233 -0.233
 0.166  0.854 -0.279 -0.323 -0.267 -0.231 -0.231
 0.168  0.859 -0.275 -0.320 -0.265 -0.228 -0.228
 0.170  0.863 -0.270 -0.316 -0.263 -0.226 -0.226
 0.172  0.867 -0.266 -0.312 -0.261 -0.224 -0.224
 0.174  0.871 -0.262 -0.309 -0.259 -0.222 -0.222
 0.176  0.876 -0.258 -0.306 -0.256 -0.220 -0.220
 0.178  0.879 -0.253 -0.302 -0.254 -0.218 -0.218
 0.180  0.884 -0.249 -0.299 -0.252 -0.215 -0.215
 0.182  0.888 -0.245 -0.295 -0.250 -0.213 -0.213
 0.184  0.892 -0.241 -0.291 -0.248 -0.211 -0.211
 0.186  0.896 -0.236 -0.288 -0.245 -0.209 -0.209
 0.188  0.901 -0.232 -0.285 -0.244 -0.208 -0.208
 0.190  0.905 -0.228 -0.281 -0.242 -0.205 -0.205
 0.192  0.909 -0.224 -0.278 -0.240 -0.204 -0.204
 0.194  0.913 -0.220 -0.275 -0.237 -0.202 -0.202
 0.196  0.918 -0.214 -0.271 -0.235 -0.200 -0.200
 0.198  0.922 -0.210 -0.268 -0.233 -0.199 -0.199
 0.200  0.926 -0.206 -0.264 -0.231 -0.197 -0.197
 0.202  0.930 -0.200 -0.262 -0.229 -0.195 -0.195
 0.204  0.935 -0.196 -0.258 -0.227 -0.193 -0.193
 0.206  0.939 -0.192 -0.255 -0.225 -0.192 -0.192
 0.208  0.944 -0.187 -0.252 -0.223 -0.190 -0.190
 0.210  0.947 -0.182 -0.249 -0.221 -0.189 -0.189
 0.212  0.952 -0.177 -0.246 -0.219 -0.187 -0.187
 0.214  0.956 -0.173 -0.242 -0.217 -0.186 -0.186
 0.216  0.961 -0.168 -0.240 -0.215 -0.184 -0.184
 0.218  0.965 -0.163 -0.237 -0.213 -0.183 -0.183
 0.220  0.970 -0.158 -0.234 -0.210 -0.182 -0.182
 0.222  0.974 -0.153 -0.230 -0.209 -0.181 -0.181
 0.224  0.978 -0.149 -0.228 -0.207 -0.179 -0.179
 0.226  0.982 -0.143 -0.225 -0.205 -0.178 -0.178
 0.228  0.987 -0.138 -0.222 -0.203 -0.177 -0.177
 0.230  0.991 -0.134 -0.219 -0.201 -0.176 -0.176
 0.232  0.995 -0.129 -0.217 -0.199 -0.174 -0.174
 0.234  0.999 -0.123 -0.214 -0.197 -0.173 -0.173
 0.236  1.002 -0.118 -0.211 -0.195 -0.172 -0.172
 0.238  1.007 -0.114 -0.208 -0.193 -0.170 -0.170
 0.240  1.011 -0.108 -0.205 -0.192 -0.169 -0.169
 0.242  1.015 -0.103 -0.203 -0.189 -0.168 -0.168
 0.244  1.019 -0.099 -0.200 -0.187 -0.166 -0.166
 0.246  1.023 -0.094 -0.197 -0.186 -0.165 -0.165
 0.248  1.026 -0.089 -0.194 -0.184 -0.164 -0.164
 0.250  1.031 -0.084 -0.192 -0.182 -0.162 -0.162
 0.252  1.034 -0.080 -0.189 -0.180 -0.161 -0.161
 0.254  1.039 -0.076 -0.186 -0.178 -0.159 -0.159
 0.256  1.042 -0.070 -0.183 -0.176 -0.158 -0.158
 0.258  1.045 -0.066 -0.182 -0.174 -0.157 -0.157
 0.260  1.049 -0.062 -0.179 -0.173 -0.155 -0.155
 0.262  1.053 -0.058 -0.176 -0.170 -0.153 -0.153
 0.264  1.057 -0.053 -0.173 -0.169 -0.151 -0.151
 0.266  1.060 -0.049 -0.170 -0.167 -0.150 -0.150
 0.268  1.064 -0.045 -0.169 -0.165 -0.149 -0.149
 0.270  1.067 -0.041 -0.166 -0.163 -0.147 -0.147
 0.272  1.070 -0.037 -0.163 -0.162 -0.145 -0.145
 0.274  1.074 -0.032 -0.161 -0.160 -0.143 -0.143
 0.276  1.077 -0.028 -0.158 -0.158 -0.142 -0.142
 0.278  1.080 -0.025 -0.156 -0.157 -0.140 -0.140
 0.280  1.084 -0.021 -0.154 -0.154 -0.138 -0.138
 0.282  1.087 -0.016 -0.151 -0.153 -0.136 -0.136
 0.284  1.091 -0.012 -0.149 -0.151 -0.134 -0.134
 0.286  1.094 -0.009 -0.147 -0.149 -0.132 -0.132
 0.288  1.097 -0.005 -0.145 -0.148 -0.131 -0.131
 0.290  1.101 -0.002 -0.142 -0.146 -0.129 -0.129
 0.292  1.103  0.002 -0.140 -0.144 -0.127 -0.127
 0.294  1.107  0.006 -0.137 -0.142 -0.125 -0.125
 0.296  1.110  0.009 -0.135 -0.141 -0.123 -0.123
 0.298  1.113  0.012 -0.134 -0.139 -0.121 -0.121
 0.300  1.117  0.016 -0.131 -0.137 -0.119 -0.119
 0.302  1.119  0.020 -0.129 -0.136 -0.117 -0.117
 0.304  1.122  0.023 -0.126 -0.133 -0.115 -0.115
 0.306  1.126  0.026 -0.124 -0.132 -0.113 -0.113
 0.308  1.129  0.029 -0.122 -0.130 -0.111 -0.111
 0.310  1.133  0.033 -0.120 -0.128 -0.109 -0.109
 0.312  1.135  0.036 -0.117 -0.127 -0.107 -0.107
 0.314  1.138  0.040 -0.115 -0.125 -0.105 -0.105
 0.316  1.142  0.043 -0.112 -0.123 -0.104 -0.104
 0.318  1.145  0.046 -0.111 -0.121 -0.102 -0.102
 0.320  1.148  0.049 -0.108 -0.120 -0.100 -0.100
 0.322  1.151  0.053 -0.106 -0.117 -0.099 -0.099
 0.324  1.154  0.057 -0.103 -0.116 -0.097 -0.097
 0.326  1.157  0.060 -0.101 -0.114 -0.095 -0.095
 0.328  1.161  0.063 -0.099 -0.112 -0.093 -0.093
 0.330  1.163  0.066 -0.097 -0.110 -0.092 -0.092
 0.332  1.166  0.070 -0.094 -0.109 -0.090 -0.090
 0.334  1.170  0.073 -0.091 -0.106 -0.088 -0.088
 0.336  1.173  0.077 -0.089 -0.105 -0.086 -0.086
 0.338  1.176  0.080 -0.087 -0.103 -0.085 -0.085
 0.340  1.179  0.083 -0.085 -0.101 -0.084 -0.084
 0.342  1.182  0.087 -0.082 -0.099 -0.082 -0.082
 0.344  1.186  0.090 -0.079 -0.097 -0.080 -0.080
 0.346  1.189  0.094 -0.077 -0.096 -0.079 -0.079
 0.348  1.191  0.098 -0.075 -0.093 -0.077 -0.077
 0.350  1.195  0.101 -0.073 -0.092 -0.076 -0.076
 0.352  1.198  0.104 -0.070 -0.090 -0.074 -0.074
 0.354  1.202  0.107 -0.067 -0.088 -0.073 -0.073
 0.356  1.204  0.112 -0.064 -0.086 -0.072 -0.072
 0.358  1.207  0.115 -0.063 -0.084 -0.070 -0.070
 0.360  1.211  0.118 -0.060 -0.082 -0.069 -0.069
 0.362  1.213  0.122 -0.057 -0.080 -0.068 -0.068
 0.364  1.216  0.125 -0.055 -0.079 -0.066 -0.066
 0.366  1.220  0.129 -0.053 -0.077 -0.065 -0.065
 0.368  1.223  0.132 -0.050 -0.074 -0.064 -0.064
 0.370  1.225  0.136 -0.048 -0.073 -0.062 -0.062
 0.372  1.229  0.139 -0.045 -0.071 -0.061 -0.061
 0.374  1.232  0.142 -0.042 -0.069 -0.060 -0.060
 0.376  1.234  0.146 -0.040 -0.067 -0.059 -0.059
 0.378  1.238  0.150 -0.038 -0.066 -0.057 -0.057
 0.380  1.241  0.153 -0.035 -0.063 -0.056 -0.056
 0.382  1.243  0.157 -0.032 -0.062 -0.055 -0.055
 0.384  1.247  0.160 -0.030 -0.060 -0.054 -0.054
 0.386  1.249  0.163 -0.028 -0.058 -0.052 -0.052
 0.388  1.252  0.167 -0.025 -0.056 -0.051 -0.051
 0.390  1.256  0.170 -0.023 -0.055 -0.050 -0.050
 0.392  1.258  0.173 -0.020 -0.053 -0.048 -0.048
 0.394  1.261  0.176 -0.017 -0.051 -0.047 -0.047
 0.396  1.264  0.179 -0.016 -0.050 -0.045 -0.045
 0.398  1.267  0.182 -0.013 -0.047 -0.044 -0.044
 0.400  1.269  0.186 -0.010 -0.046 -0.042 -0.042
 0.402  1.273  0.188 -0.008 -0.044 -0.041 -0.041
 0.404  1.275  0.191 -0.006 -0.042 -0.039 -0.039
 0.406  1.278  0.194 -0.003 -0.041 -0.038 -0.038
 0.408  1.281  0.196 -0.001 -0.039 -0.036 -0.036
 0.410  1.284  0.199  0.002 -0.037 -0.035 -0.035
 0.412  1.286  0.203  0.004 -0.036 -0.033 -0.033
 0.414  1.290  0.205  0.006 -0.034 -0.031 -0.031
 0.416  1.292  0.208  0.009 -0.032 -0.030 -0.030
 0.418  1.295  0.210  0.011 -0.031 -0.028 -0.028
 0.420  1.298  0.212  0.014 -0.029 -0.027 -0.027
 0.422  1.301  0.215  0.016 -0.027 -0.025 -0.025
 0.424  1.303  0.217  0.018 -0.026 -0.023 -0.023
 0.426  1.306  0.219  0.021 -0.024 -0.022 -0.022
 0.428  1.309  0.223  0.023 -0.022 -0.020 -0.020
 0.430  1.311  0.225  0.026 -0.021 -0.019 -0.019
 0.432  1.314  0.227  0.028 -0.019 -0.016 -0.016
 0.434  1.317  0.229  0.030 -0.018 -0.015 -0.015
 0.436  1.319  0.231  0.033 -0.016 -0.013 -0.013
 0.438  1.321  0.233  0.035 -0.014 -0.011 -0.011
 0.440  1.325  0.235  0.038 -0.013 -0.009 -0.009
 0.442  1.327  0.237  0.040 -0.011 -0.008 -0.008
 0.444  1.329  0.240  0.042 -0.010 -0.006 -0.006
 0.446  1.332  0.242  0.044 -0.007 -0.004 -0.004
 0.448  1.334  0.243  0.046 -0.006 -0.003 -0.003
 0.450  1.337  0.245  0.049 -0.005 -0.001 -0.001
 0.452  1.340  0.247  0.051 -0.003  0.001  0.001
 0.454  1.342  0.249  0.053 -0.002  0.003  0.003
 0.456  1.344  0.251  0.055  0.001  0.004  0.004
 0.458  1.346  0.252  0.057  0.002  0.005  0.005
 0.460  1.349  0.254  0.059  0.003  0.007  0.007
 0.462  1.351  0.256  0.061  0.005  0.009  0.009
 0.464  1.353  0.259  0.064  0.007  0.011  0.011
 0.466  1.355  0.260  0.065  0.009  0.012  0.012
 0.468  1.358  0.262  0.067  0.010  0.014  0.014
 0.470  1.360  0.264  0.069  0.011  0.015  0.015
 0.472  1.362  0.266  0.071  0.013  0.016  0.016
 0.474  1.364  0.267  0.073  0.015  0.018  0.018
 0.476  1.366  0.269  0.075  0.017  0.019  0.019
 0.478  1.368  0.271  0.076  0.018  0.021  0.021
 0.480  1.370  0.272  0.078  0.019  0.022  0.022
 0.482  1.372  0.274  0.080  0.021  0.023  0.023
 0.484  1.373  0.277  0.081  0.023  0.025  0.025
 0.486  1.376  0.279  0.083  0.025  0.026  0.026
 0.488  1.378  0.280  0.085  0.026  0.027  0.027
 0.490  1.380  0.282  0.087  0.027  0.028  0.028
 0.492  1.381  0.284  0.088  0.030  0.030  0.030
 0.494  1.384  0.285  0.089  0.031  0.031  0.031
 0.496  1.386  0.287  0.091  0.033  0.032  0.032
 0.498  1.387  0.289  0.093  0.034  0.034  0.034
 0.500  1.389  0.290  0.094  0.035  0.035  0.035
 0.502  1.390  0.292  0.096  0.038  0.036  0.036
 0.504  1.393  0.295  0.097  0.039  0.036  0.036
 0.506  1.394  0.296  0.099  0.041  0.038  0.038
 0.508  1.396  0.298  0.100  0.042  0.039  0.039
 0.510  1.397  0.300  0.101  0.044  0.040  0.040
 0.512  1.398  0.301  0.102  0.045  0.041  0.041
 0.514  1.401  0.303  0.103  0.046  0.042  0.042
 0.516  1.402  0.305  0.105  0.048  0.043  0.043
 0.518  1.403  0.306  0.106  0.049  0.044  0.044
 0.520  1.404  0.308  0.107  0.051  0.045  0.045
 0.522  1.405  0.309  0.108  0.052  0.046  0.046
 0.524  1.406  0.312  0.110  0.053  0.047  0.047
 0.526  1.407  0.313  0.111  0.054  0.048  0.048
 0.528  1.409  0.315  0.112  0.056  0.049  0.049
 0.530  1.410  0.316  0.112  0.057  0.050  0.050
 0.532  1.411  0.317  0.113  0.058  0.051  0.051
 0.534  1.412  0.318  0.114  0.059  0.051  0.051
 0.536  1.413  0.319  0.115  0.060  0.053  0.053
 0.538  1.414  0.320  0.116  0.061  0.053  0.053
 0.540  1.414  0.321  0.117  0.062  0.054  0.054
 0.542  1.415  0.322  0.118  0.063  0.055  0.055
 0.544  1.416  0.323  0.119  0.064  0.056  0.056
 0.546  1.416  0.323  0.119  0.065  0.057  0.057
 0.548  1.418  0.324  0.120  0.066  0.058  0.058
 0.550  1.418  0.325  0.121  0.067  0.059  0.059
 0.552  1.419  0.325  0.121  0.068  0.059  0.059
 0.554  1.419  0.325  0.122  0.068  0.061  0.061
 0.556  1.420  0.326  0.123  0.069  0.062  0.062
 0.558  1.420  0.326  0.123  0.070  0.062  0.062
 0.560  1.420  0.326  0.123  0.070  0.063  0.063
 0.562  1.421  0.327  0.123  0.071  0.064  0.064
 0.564  1.421  0.327  0.124  0.072  0.065  0.065
 0.566  1.421  0.327  0.124  0.073  0.066  0.066
 0.568  1.421  0.327  0.125  0.073  0.066  0.066
 0.570  1.421  0.327  0.125  0.073  0.068  0.068
 0.572  1.421  0.326  0.125  0.074  0.068  0.068
 0.574  1.421  0.326  0.126  0.075  0.069  0.069
 0.576  1.421  0.326  0.126  0.075  0.070  0.070
 0.578  1.421  0.325  0.126  0.076  0.070  0.070
 0.580  1.421  0.325  0.126  0.076  0.072  0.072
 0.582  1.421  0.324  0.126  0.076  0.072  0.072
 0.584  1.421  0.323  0.127  0.077  0.073  0.073
 0.586  1.421  0.323  0.127  0.077  0.074  0.074
 0.588  1.421  0.322  0.127  0.078  0.074  0.074
 0.590  1.421  0.322  0.127  0.078  0.076  0.076
 0.592  1.421  0.321  0.127  0.078  0.076  0.076
 0.594  1.421  0.320  0.127  0.078  0.077  0.077
 0.596  1.421  0.320  0.128  0.079  0.078  0.078
 0.598  1.421  0.319  0.128  0.079  0.078  0.078
 0.600  1.421  0.319  0.128  0.080  0.079  0.079
 0.602  1.421  0.318  0.128  0.080  0.080  0.080
 0.604  1.421  0.318  0.128  0.081  0.081  0.081
 0.606  1.421  0.317  0.129  0.081  0.082  0.082
 0.608  1.421  0.317  0.129  0.081  0.082  0.082
 0.610  1.421  0.317  0.129  0.081  0.083  0.083
 0.612  1.421  0.317  0.129  0.081  0.084  0.084
 0.614  1.420  0.317  0.130  0.082  0.085  0.085
 0.616  1.420  0.317  0.130  0.082  0.086  0.086
 0.618  1.420  0.317  0.130  0.082  0.086  0.086
 0.620  1.420  0.317  0.130  0.083  0.088  0.088
 0.622  1.420  0.317  0.131  0.083  0.088  0.088
 0.624  1.420  0.317  0.131  0.083  0.089  0.089
 0.626  1.420  0.318  0.131  0.084  0.090  0.090
 0.628  1.420  0.318  0.132  0.084  0.091  0.091
 0.630  1.420  0.319  0.132  0.084  0.092  0.092
 0.632  1.420  0.319  0.132  0.084  0.092  0.092
 0.634  1.420  0.320  0.133  0.084  0.093  0.093
 0.636  1.420  0.321  0.133  0.084  0.094  0.094
 0.638  1.420  0.321  0.133  0.084  0.095  0.095
 0.640  1.420  0.322  0.134  0.084  0.096  0.096
 0.642  1.420  0.323  0.134  0.084  0.096  0.096
 0.644  1.420  0.324  0.134  0.085  0.097  0.097
 0.646  1.420  0.325  0.135  0.085  0.098  0.098
 0.648  1.419  0.326  0.135  0.085  0.099  0.099
 0.650  1.419  0.327  0.135  0.085  0.100  0.100
 0.652  1.419  0.328  0.135  0.085  0.101  0.101
 0.654  1.419  0.331  0.135  0.085  0.101  0.101
 0.656  1.419  0.332  0.135  0.086  0.103  0.103
 0.658  1.419  0.333  0.136  0.086  0.103  0.103
 0.660  1.419  0.335  0.136  0.086  0.104  0.104
 0.662  1.419  0.336  0.136  0.086  0.105  0.105
 0.664  1.418  0.338  0.137  0.086  0.106  0.106
 0.666  1.418  0.339  0.137  0.086  0.107  0.107
 0.668  1.418  0.341  0.137  0.086  0.108  0.108
 0.670  1.418  0.342  0.138  0.086  0.108  0.108
 0.672  1.418  0.344  0.138  0.086  0.109  0.109
 0.674  1.416  0.345  0.138  0.086  0.111  0.111
 0.676  1.416  0.346  0.138  0.087  0.111  0.111
 0.678  1.416  0.349  0.138  0.087  0.112  0.112
 0.680  1.416  0.350  0.138  0.087  0.113  0.113
 0.682  1.415  0.352  0.138  0.087  0.114  0.114
 0.684  1.415  0.353  0.139  0.088  0.115  0.115
 0.686  1.415  0.354  0.139  0.088  0.116  0.116
 0.688  1.415  0.355  0.139  0.088  0.117  0.117
 0.690  1.414  0.357  0.139  0.088  0.118  0.118
 0.692  1.414  0.358  0.139  0.089  0.119  0.119
 0.694  1.414  0.359  0.139  0.089  0.120  0.120
 0.696  1.413  0.360  0.139  0.089  0.121  0.121
 0.698  1.413  0.361  0.139  0.089  0.122  0.122
 0.700  1.412  0.363  0.139  0.089  0.123  0.123
 0.702  1.412  0.364  0.139  0.089  0.124  0.124
 0.704  1.412  0.365  0.139  0.089  0.125  0.125
 0.706  1.411  0.367  0.139  0.090  0.126  0.126
 0.708  1.411  0.368  0.138  0.090  0.127  0.127
 0.710  1.410  0.369  0.138  0.090  0.128  0.128
 0.712  1.410  0.370  0.138  0.091  0.129  0.129
 0.714  1.409  0.371  0.138  0.091  0.130  0.130
 0.716  1.409  0.372  0.138  0.091  0.131  0.131
 0.718  1.409  0.373  0.137  0.092  0.132  0.132
 0.720  1.407  0.375  0.137  0.092  0.133  0.133
 0.722  1.407  0.376  0.137  0.092  0.134  0.134
 0.724  1.406  0.376  0.137  0.092  0.135  0.135
 0.726  1.406  0.377  0.136  0.092  0.136  0.136
 0.728  1.406  0.378  0.136  0.092  0.137  0.137
 0.730  1.406  0.379  0.136  0.093  0.138  0.138
 0.732  1.406  0.380  0.136  0.093  0.139  0.139
 0.734  1.406  0.381  0.137  0.093  0.141  0.141
 0.736  1.406  0.381  0.137  0.094  0.142  0.142
 0.738  1.406  0.382  0.137  0.094  0.143  0.143
 0.740  1.406  0.382  0.138  0.094  0.145  0.145
 0.742  1.406  0.383  0.139  0.094  0.146  0.146
 0.744  1.406  0.383  0.139  0.094  0.147  0.147
 0.746  1.406  0.383  0.140  0.094  0.149  0.149
 0.748  1.407  0.383  0.141  0.094  0.150  0.150
 0.750  1.407  0.383  0.142  0.095  0.151  0.151
 0.752  1.407  0.383  0.143  0.095  0.153  0.153
 0.754  1.409  0.382  0.145  0.095  0.154  0.154
 0.756  1.409  0.382  0.146  0.096  0.155  0.155
 0.758  1.410  0.381  0.147  0.096  0.157  0.157
 0.760  1.410  0.380  0.148  0.096  0.159  0.159
 0.762  1.411  0.380  0.150  0.097  0.161  0.161
 0.764  1.412  0.379  0.152  0.097  0.162  0.162
 0.766  1.413  0.377  0.153  0.097  0.163  0.163
 0.768  1.413  0.376  0.155  0.097  0.165  0.165
 0.770  1.414  0.375  0.158  0.097  0.167  0.167
 0.772  1.415  0.373  0.159  0.097  0.169  0.169
 0.774  1.416  0.372  0.161  0.097  0.170  0.170
 0.776  1.418  0.370  0.164  0.098  0.173  0.173
 0.778  1.419  0.368  0.167  0.098  0.174  0.174
 0.780  1.420  0.365  0.169  0.098  0.176  0.176
 0.782  1.421  0.363  0.171  0.098  0.178  0.178
 0.784  1.423  0.361  0.174  0.098  0.180  0.180
 0.786  1.424  0.358  0.177  0.099  0.182  0.182
 0.788  1.426  0.356  0.180  0.099  0.184  0.184
 0.790  1.428  0.353  0.183  0.100  0.186  0.186
 0.792  1.429  0.351  0.186  0.100  0.188  0.188
 0.794  1.430  0.347  0.189  0.101  0.190  0.190
 0.796  1.432  0.344  0.192  0.102  0.192  0.192
 0.798  1.435  0.341  0.194  0.102  0.194  0.194
 0.800  1.436  0.338  0.198  0.103  0.196  0.196
 0.802  1.438  0.335  0.201  0.105  0.198  0.198
 0.804  1.440  0.331  0.204  0.106  0.199  0.199
 0.806  1.442  0.326  0.206  0.107  0.200  0.200
 0.808  1.445  0.322  0.209  0.109  0.201  0.201
