# IsPeriodic    : True
# Period        : 0.545697 days
# Normalization : <g_mag>=0
# 
# Phase u_mag  g_mag  r_mag  i_mag  z_mag  y_mag
 0.000  0.408 -0.711 -0.670 -0.572 -0.527 -0.527
 0.002  0.408 -0.711 -0.670 -0.572 -0.527 -0.527
 0.004  0.410 -0.709 -0.670 -0.572 -0.526 -0.526
 0.006  0.412 -0.708 -0.669 -0.572 -0.525 -0.525
 0.008  0.416 -0.707 -0.667 -0.571 -0.525 -0.525
 0.010  0.420 -0.706 -0.665 -0.570 -0.523 -0.523
 0.012  0.425 -0.705 -0.664 -0.569 -0.522 -0.522
 0.014  0.432 -0.703 -0.661 -0.568 -0.520 -0.520
 0.016  0.437 -0.702 -0.659 -0.566 -0.519 -0.519
 0.018  0.445 -0.699 -0.656 -0.564 -0.517 -0.517
 0.020  0.452 -0.697 -0.653 -0.563 -0.516 -0.516
 0.022  0.460 -0.694 -0.650 -0.561 -0.514 -0.514
 0.024  0.467 -0.691 -0.647 -0.560 -0.512 -0.512
 0.026  0.475 -0.688 -0.644 -0.558 -0.510 -0.510
 0.028  0.483 -0.685 -0.641 -0.556 -0.508 -0.508
 0.030  0.490 -0.680 -0.638 -0.554 -0.506 -0.506
 0.032  0.498 -0.677 -0.635 -0.552 -0.505 -0.505
 0.034  0.505 -0.672 -0.632 -0.550 -0.503 -0.503
 0.036  0.512 -0.668 -0.630 -0.548 -0.501 -0.501
 0.038  0.518 -0.662 -0.626 -0.546 -0.499 -0.499
 0.040  0.525 -0.657 -0.623 -0.544 -0.497 -0.497
 0.042  0.533 -0.651 -0.620 -0.541 -0.495 -0.495
 0.044  0.540 -0.646 -0.616 -0.539 -0.493 -0.493
 0.046  0.547 -0.640 -0.613 -0.537 -0.490 -0.490
 0.048  0.554 -0.633 -0.609 -0.534 -0.489 -0.489
 0.050  0.561 -0.627 -0.606 -0.531 -0.486 -0.486
 0.052  0.568 -0.619 -0.602 -0.529 -0.484 -0.484
 0.054  0.574 -0.612 -0.598 -0.526 -0.482 -0.482
 0.056  0.582 -0.604 -0.594 -0.523 -0.479 -0.479
 0.058  0.589 -0.597 -0.590 -0.520 -0.476 -0.476
 0.060  0.596 -0.590 -0.586 -0.518 -0.474 -0.474
 0.062  0.603 -0.582 -0.582 -0.514 -0.471 -0.471
 0.064  0.610 -0.574 -0.577 -0.511 -0.469 -0.469
 0.066  0.617 -0.566 -0.573 -0.508 -0.466 -0.466
 0.068  0.624 -0.558 -0.569 -0.504 -0.463 -0.463
 0.070  0.630 -0.550 -0.564 -0.501 -0.460 -0.460
 0.072  0.637 -0.544 -0.559 -0.497 -0.457 -0.457
 0.074  0.644 -0.536 -0.555 -0.494 -0.454 -0.454
 0.076  0.651 -0.528 -0.550 -0.491 -0.452 -0.452
 0.078  0.658 -0.521 -0.546 -0.487 -0.449 -0.449
 0.080  0.665 -0.513 -0.541 -0.483 -0.446 -0.446
 0.082  0.671 -0.507 -0.536 -0.480 -0.443 -0.443
 0.084  0.677 -0.500 -0.532 -0.477 -0.440 -0.440
 0.086  0.684 -0.492 -0.527 -0.473 -0.437 -0.437
 0.088  0.691 -0.485 -0.523 -0.469 -0.435 -0.435
 0.090  0.697 -0.479 -0.518 -0.466 -0.432 -0.432
 0.092  0.704 -0.472 -0.514 -0.463 -0.429 -0.429
 0.094  0.711 -0.466 -0.509 -0.460 -0.427 -0.427
 0.096  0.716 -0.460 -0.505 -0.457 -0.424 -0.424
 0.098  0.723 -0.453 -0.501 -0.454 -0.421 -0.421
 0.100  0.729 -0.446 -0.497 -0.451 -0.419 -0.419
 0.102  0.736 -0.441 -0.493 -0.448 -0.417 -0.417
 0.104  0.741 -0.435 -0.489 -0.445 -0.414 -0.414
 0.106  0.747 -0.428 -0.485 -0.442 -0.412 -0.412
 0.108  0.754 -0.423 -0.481 -0.439 -0.410 -0.410
 0.110  0.760 -0.417 -0.477 -0.436 -0.407 -0.407
 0.112  0.765 -0.411 -0.473 -0.434 -0.405 -0.405
 0.114  0.771 -0.406 -0.469 -0.431 -0.403 -0.403
 0.116  0.777 -0.400 -0.465 -0.429 -0.401 -0.401
 0.118  0.783 -0.395 -0.461 -0.426 -0.399 -0.399
 0.120  0.788 -0.389 -0.458 -0.424 -0.397 -0.397
 0.122  0.794 -0.383 -0.454 -0.421 -0.394 -0.394
 0.124  0.799 -0.378 -0.451 -0.419 -0.393 -0.393
 0.126  0.804 -0.373 -0.447 -0.417 -0.390 -0.390
 0.128  0.810 -0.368 -0.443 -0.414 -0.389 -0.389
 0.130  0.815 -0.363 -0.440 -0.412 -0.387 -0.387
 0.132  0.820 -0.358 -0.437 -0.410 -0.385 -0.385
 0.134  0.825 -0.353 -0.434 -0.408 -0.383 -0.383
 0.136  0.831 -0.349 -0.430 -0.406 -0.381 -0.381
 0.138  0.835 -0.344 -0.427 -0.404 -0.380 -0.380
 0.140  0.841 -0.339 -0.424 -0.402 -0.378 -0.378
 0.142  0.845 -0.334 -0.420 -0.400 -0.376 -0.376
 0.144  0.850 -0.330 -0.418 -0.398 -0.374 -0.374
 0.146  0.855 -0.325 -0.415 -0.397 -0.373 -0.373
 0.148  0.859 -0.321 -0.411 -0.395 -0.371 -0.371
 0.150  0.864 -0.316 -0.409 -0.393 -0.370 -0.370
 0.152  0.868 -0.311 -0.406 -0.391 -0.368 -0.368
 0.154  0.873 -0.306 -0.402 -0.390 -0.367 -0.367
 0.156  0.877 -0.302 -0.400 -0.388 -0.365 -0.365
 0.158  0.882 -0.297 -0.397 -0.386 -0.364 -0.364
 0.160  0.887 -0.293 -0.394 -0.384 -0.362 -0.362
 0.162  0.890 -0.288 -0.392 -0.382 -0.361 -0.361
 0.164  0.895 -0.284 -0.389 -0.381 -0.359 -0.359
 0.166  0.899 -0.279 -0.386 -0.379 -0.357 -0.357
 0.168  0.904 -0.275 -0.383 -0.378 -0.356 -0.356
 0.170  0.907 -0.270 -0.380 -0.376 -0.354 -0.354
 0.172  0.912 -0.266 -0.377 -0.374 -0.353 -0.353
 0.174  0.916 -0.261 -0.375 -0.372 -0.351 -0.351
 0.176  0.921 -0.257 -0.372 -0.371 -0.350 -0.350
 0.178  0.924 -0.252 -0.369 -0.369 -0.348 -0.348
 0.180  0.929 -0.248 -0.367 -0.367 -0.347 -0.347
 0.182  0.933 -0.245 -0.364 -0.365 -0.346 -0.346
 0.184  0.937 -0.240 -0.361 -0.363 -0.344 -0.344
 0.186  0.941 -0.236 -0.358 -0.361 -0.342 -0.342
 0.188  0.946 -0.231 -0.356 -0.359 -0.341 -0.341
 0.190  0.949 -0.227 -0.353 -0.357 -0.339 -0.339
 0.192  0.954 -0.223 -0.350 -0.356 -0.338 -0.338
 0.194  0.957 -0.219 -0.348 -0.354 -0.336 -0.336
 0.196  0.962 -0.214 -0.345 -0.352 -0.334 -0.334
 0.198  0.967 -0.211 -0.342 -0.350 -0.333 -0.333
 0.200  0.970 -0.207 -0.340 -0.349 -0.331 -0.331
 0.202  0.975 -0.202 -0.337 -0.347 -0.330 -0.330
 0.204  0.978 -0.199 -0.335 -0.345 -0.328 -0.328
 0.206  0.983 -0.194 -0.332 -0.343 -0.327 -0.327
 0.208  0.987 -0.190 -0.330 -0.341 -0.325 -0.325
 0.210  0.991 -0.186 -0.327 -0.340 -0.324 -0.324
 0.212  0.995 -0.182 -0.324 -0.338 -0.323 -0.323
 0.214  0.999 -0.179 -0.322 -0.336 -0.321 -0.321
 0.216  1.003 -0.174 -0.319 -0.334 -0.319 -0.319
 0.218  1.007 -0.170 -0.317 -0.332 -0.318 -0.318
 0.220  1.011 -0.166 -0.314 -0.330 -0.316 -0.316
 0.222  1.015 -0.162 -0.312 -0.328 -0.315 -0.315
 0.224  1.019 -0.158 -0.309 -0.326 -0.313 -0.313
 0.226  1.023 -0.154 -0.307 -0.324 -0.311 -0.311
 0.228  1.027 -0.151 -0.304 -0.323 -0.310 -0.310
 0.230  1.031 -0.146 -0.302 -0.321 -0.308 -0.308
 0.232  1.035 -0.143 -0.300 -0.319 -0.307 -0.307
 0.234  1.039 -0.138 -0.297 -0.317 -0.305 -0.305
 0.236  1.042 -0.135 -0.295 -0.315 -0.304 -0.304
 0.238  1.047 -0.130 -0.292 -0.313 -0.303 -0.303
 0.240  1.050 -0.127 -0.290 -0.311 -0.301 -0.301
 0.242  1.053 -0.124 -0.287 -0.309 -0.300 -0.300
 0.244  1.058 -0.119 -0.285 -0.308 -0.298 -0.298
 0.246  1.061 -0.116 -0.282 -0.306 -0.297 -0.297
 0.248  1.065 -0.111 -0.280 -0.304 -0.295 -0.295
 0.250  1.068 -0.108 -0.278 -0.302 -0.294 -0.294
 0.252  1.072 -0.103 -0.275 -0.301 -0.292 -0.292
 0.254  1.075 -0.100 -0.273 -0.299 -0.291 -0.291
 0.256  1.079 -0.097 -0.270 -0.297 -0.289 -0.289
 0.258  1.082 -0.092 -0.268 -0.296 -0.288 -0.288
 0.260  1.085 -0.089 -0.265 -0.294 -0.286 -0.286
 0.262  1.089 -0.086 -0.263 -0.292 -0.285 -0.285
 0.264  1.092 -0.081 -0.260 -0.290 -0.283 -0.283
 0.266  1.096 -0.078 -0.258 -0.288 -0.282 -0.282
 0.268  1.099 -0.074 -0.255 -0.286 -0.280 -0.280
 0.270  1.101 -0.070 -0.254 -0.285 -0.279 -0.279
 0.272  1.105 -0.067 -0.251 -0.283 -0.277 -0.277
 0.274  1.108 -0.063 -0.249 -0.281 -0.276 -0.276
 0.276  1.112 -0.060 -0.246 -0.280 -0.275 -0.275
 0.278  1.114 -0.055 -0.244 -0.278 -0.273 -0.273
 0.280  1.117 -0.052 -0.242 -0.276 -0.272 -0.272
 0.282  1.120 -0.049 -0.239 -0.274 -0.270 -0.270
 0.284  1.123 -0.045 -0.237 -0.272 -0.269 -0.269
 0.286  1.127 -0.041 -0.235 -0.271 -0.267 -0.267
 0.288  1.129 -0.037 -0.233 -0.269 -0.266 -0.266
 0.290  1.131 -0.034 -0.230 -0.268 -0.264 -0.264
 0.292  1.135 -0.031 -0.228 -0.266 -0.263 -0.263
 0.294  1.137 -0.027 -0.225 -0.264 -0.262 -0.262
 0.296  1.139 -0.024 -0.223 -0.263 -0.260 -0.260
 0.298  1.143 -0.021 -0.220 -0.261 -0.259 -0.259
 0.300  1.145 -0.016 -0.219 -0.259 -0.257 -0.257
 0.302  1.147 -0.013 -0.216 -0.257 -0.256 -0.256
 0.304  1.151 -0.009 -0.214 -0.256 -0.254 -0.254
 0.306  1.153 -0.006 -0.211 -0.254 -0.253 -0.253
 0.308  1.155 -0.003 -0.209 -0.252 -0.252 -0.252
 0.310  1.157  0.001 -0.207 -0.251 -0.250 -0.250
 0.312  1.161  0.004 -0.205 -0.249 -0.249 -0.249
 0.314  1.163  0.007 -0.202 -0.247 -0.247 -0.247
 0.316  1.165  0.011 -0.200 -0.245 -0.246 -0.246
 0.318  1.169  0.014 -0.198 -0.244 -0.244 -0.244
 0.320  1.171  0.016 -0.196 -0.242 -0.243 -0.243
 0.322  1.173  0.020 -0.193 -0.240 -0.242 -0.242
 0.324  1.177  0.023 -0.191 -0.239 -0.240 -0.240
 0.326  1.179  0.026 -0.189 -0.237 -0.239 -0.239
 0.328  1.183  0.030 -0.186 -0.236 -0.237 -0.237
 0.330  1.185  0.033 -0.184 -0.234 -0.236 -0.236
 0.332  1.188  0.037 -0.182 -0.232 -0.235 -0.235
 0.334  1.191  0.039 -0.180 -0.230 -0.233 -0.233
 0.336  1.193  0.042 -0.177 -0.228 -0.232 -0.232
 0.338  1.196  0.045 -0.175 -0.226 -0.231 -0.231
 0.340  1.200  0.049 -0.173 -0.225 -0.229 -0.229
 0.342  1.202  0.051 -0.171 -0.223 -0.228 -0.228
 0.344  1.205  0.054 -0.168 -0.222 -0.226 -0.226
 0.346  1.208  0.058 -0.166 -0.220 -0.225 -0.225
 0.348  1.211  0.061 -0.164 -0.218 -0.224 -0.224
 0.350  1.213  0.063 -0.162 -0.216 -0.222 -0.222
 0.352  1.217  0.067 -0.160 -0.214 -0.221 -0.221
 0.354  1.220  0.070 -0.157 -0.213 -0.219 -0.219
 0.356  1.223  0.073 -0.155 -0.211 -0.218 -0.218
 0.358  1.226  0.076 -0.153 -0.209 -0.217 -0.217
 0.360  1.229  0.079 -0.151 -0.207 -0.215 -0.215
 0.362  1.233  0.082 -0.149 -0.206 -0.214 -0.214
 0.364  1.235  0.086 -0.146 -0.204 -0.212 -0.212
 0.366  1.239  0.088 -0.144 -0.203 -0.211 -0.211
 0.368  1.242  0.091 -0.142 -0.201 -0.209 -0.209
 0.370  1.245  0.095 -0.140 -0.199 -0.208 -0.208
 0.372  1.248  0.098 -0.138 -0.197 -0.207 -0.207
 0.374  1.251  0.100 -0.135 -0.195 -0.205 -0.205
 0.376  1.255  0.104 -0.133 -0.193 -0.204 -0.204
 0.378  1.258  0.107 -0.131 -0.192 -0.202 -0.202
 0.380  1.261  0.110 -0.129 -0.190 -0.201 -0.201
 0.382  1.264  0.114 -0.126 -0.188 -0.199 -0.199
 0.384  1.267  0.117 -0.125 -0.187 -0.198 -0.198
 0.386  1.271  0.119 -0.122 -0.185 -0.197 -0.197
 0.388  1.273  0.123 -0.120 -0.183 -0.195 -0.195
 0.390  1.276  0.126 -0.118 -0.182 -0.194 -0.194
 0.392  1.280  0.129 -0.116 -0.180 -0.192 -0.192
 0.394  1.282  0.133 -0.113 -0.178 -0.191 -0.191
 0.396  1.285  0.136 -0.112 -0.176 -0.189 -0.189
 0.398  1.288  0.140 -0.109 -0.174 -0.188 -0.188
 0.400  1.291  0.143 -0.108 -0.172 -0.187 -0.187
 0.402  1.293  0.145 -0.105 -0.171 -0.185 -0.185
 0.404  1.297  0.149 -0.103 -0.169 -0.184 -0.184
 0.406  1.299  0.152 -0.101 -0.167 -0.182 -0.182
 0.408  1.303  0.155 -0.099 -0.166 -0.181 -0.181
 0.410  1.305  0.159 -0.097 -0.164 -0.179 -0.179
 0.412  1.308  0.162 -0.095 -0.162 -0.178 -0.178
 0.414  1.311  0.165 -0.093 -0.160 -0.176 -0.176
 0.416  1.313  0.169 -0.091 -0.158 -0.175 -0.175
 0.418  1.316  0.172 -0.088 -0.157 -0.173 -0.173
 0.420  1.319  0.175 -0.086 -0.155 -0.172 -0.172
 0.422  1.321  0.178 -0.084 -0.153 -0.170 -0.170
 0.424  1.323  0.181 -0.082 -0.151 -0.169 -0.169
 0.426  1.327  0.184 -0.080 -0.150 -0.167 -0.167
 0.428  1.329  0.188 -0.078 -0.148 -0.166 -0.166
 0.430  1.331  0.190 -0.076 -0.146 -0.164 -0.164
 0.432  1.333  0.193 -0.074 -0.145 -0.163 -0.163
 0.434  1.336  0.196 -0.072 -0.143 -0.161 -0.161
 0.436  1.338  0.199 -0.070 -0.141 -0.159 -0.159
 0.438  1.340  0.201 -0.068 -0.139 -0.158 -0.158
 0.440  1.343  0.203 -0.066 -0.137 -0.156 -0.156
 0.442  1.345  0.207 -0.064 -0.136 -0.155 -0.155
 0.444  1.347  0.209 -0.062 -0.134 -0.154 -0.154
 0.446  1.349  0.211 -0.059 -0.133 -0.152 -0.152
 0.448  1.352  0.213 -0.058 -0.131 -0.151 -0.151
 0.450  1.354  0.216 -0.056 -0.130 -0.149 -0.149
 0.452  1.356  0.218 -0.054 -0.128 -0.148 -0.148
 0.454  1.359  0.220 -0.052 -0.126 -0.146 -0.146
 0.456  1.361  0.222 -0.051 -0.125 -0.145 -0.145
 0.458  1.363  0.225 -0.049 -0.124 -0.144 -0.144
 0.460  1.365  0.227 -0.047 -0.122 -0.142 -0.142
 0.462  1.368  0.228 -0.046 -0.121 -0.141 -0.141
 0.464  1.369  0.230 -0.043 -0.119 -0.139 -0.139
 0.466  1.371  0.233 -0.042 -0.118 -0.138 -0.138
 0.468  1.373  0.234 -0.040 -0.116 -0.136 -0.136
 0.470  1.376  0.236 -0.038 -0.115 -0.135 -0.135
 0.472  1.377  0.237 -0.037 -0.114 -0.134 -0.134
 0.474  1.379  0.238 -0.035 -0.112 -0.133 -0.133
 0.476  1.381  0.240 -0.033 -0.112 -0.131 -0.131
 0.478  1.384  0.241 -0.032 -0.110 -0.130 -0.130
 0.480  1.385  0.243 -0.031 -0.109 -0.129 -0.129
 0.482  1.387  0.244 -0.029 -0.108 -0.128 -0.128
 0.484  1.389  0.245 -0.028 -0.106 -0.126 -0.126
 0.486  1.391  0.246 -0.026 -0.106 -0.125 -0.125
 0.488  1.393  0.247 -0.024 -0.104 -0.124 -0.124
 0.490  1.394  0.248 -0.024 -0.103 -0.122 -0.122
 0.492  1.396  0.249 -0.022 -0.103 -0.121 -0.121
 0.494  1.397  0.250 -0.020 -0.101 -0.120 -0.120
 0.496  1.400  0.252 -0.019 -0.101 -0.118 -0.118
 0.498  1.402  0.253 -0.018 -0.099 -0.117 -0.117
 0.500  1.403  0.254 -0.016 -0.099 -0.116 -0.116
 0.502  1.405  0.255 -0.015 -0.097 -0.115 -0.115
 0.504  1.407  0.256 -0.014 -0.097 -0.113 -0.113
 0.506  1.408  0.257 -0.013 -0.095 -0.112 -0.112
 0.508  1.410  0.257 -0.011 -0.095 -0.111 -0.111
 0.510  1.411  0.258 -0.010 -0.094 -0.110 -0.110
 0.512  1.413  0.259 -0.009 -0.093 -0.109 -0.109
 0.514  1.415  0.261 -0.008 -0.092 -0.108 -0.108
 0.516  1.416  0.262 -0.007 -0.091 -0.106 -0.106
 0.518  1.418  0.263 -0.006 -0.090 -0.105 -0.105
 0.520  1.419  0.264 -0.005 -0.089 -0.105 -0.105
 0.522  1.420  0.264 -0.003 -0.089 -0.103 -0.103
 0.524  1.421  0.265 -0.002 -0.088 -0.102 -0.102
 0.526  1.424  0.266 -0.002 -0.087 -0.101 -0.101
 0.528  1.425  0.267 -0.001 -0.086 -0.100 -0.100
 0.530  1.426  0.268  0.001 -0.085 -0.099 -0.099
 0.532  1.427  0.268  0.002 -0.085 -0.098 -0.098
 0.534  1.428  0.269  0.003 -0.084 -0.097 -0.097
 0.536  1.428  0.271  0.004 -0.083 -0.096 -0.096
 0.538  1.429  0.272  0.005 -0.083 -0.095 -0.095
 0.540  1.431  0.273  0.006 -0.081 -0.095 -0.095
 0.542  1.432  0.273  0.007 -0.081 -0.093 -0.093
 0.544  1.432  0.274  0.007 -0.080 -0.093 -0.093
 0.546  1.433  0.275  0.009 -0.079 -0.092 -0.092
 0.548  1.434  0.276  0.010 -0.079 -0.091 -0.091
 0.550  1.434  0.276  0.011 -0.078 -0.090 -0.090
 0.552  1.435  0.277  0.012 -0.077 -0.089 -0.089
 0.554  1.435  0.278  0.012 -0.077 -0.088 -0.088
 0.556  1.435  0.278  0.013 -0.076 -0.088 -0.088
 0.558  1.436  0.280  0.014 -0.075 -0.087 -0.087
 0.560  1.436  0.281  0.015 -0.075 -0.086 -0.086
 0.562  1.436  0.282  0.016 -0.074 -0.085 -0.085
 0.564  1.437  0.282  0.016 -0.074 -0.085 -0.085
 0.566  1.437  0.283  0.017 -0.073 -0.084 -0.084
 0.568  1.437  0.283  0.018 -0.072 -0.083 -0.083
 0.570  1.437  0.284  0.019 -0.072 -0.083 -0.083
 0.572  1.437  0.285  0.020 -0.072 -0.082 -0.082
 0.574  1.437  0.285  0.021 -0.071 -0.081 -0.081
 0.576  1.437  0.286  0.021 -0.070 -0.081 -0.081
 0.578  1.436  0.286  0.022 -0.070 -0.080 -0.080
 0.580  1.436  0.286  0.023 -0.069 -0.079 -0.079
 0.582  1.436  0.287  0.024 -0.068 -0.079 -0.079
 0.584  1.436  0.287  0.025 -0.068 -0.078 -0.078
 0.586  1.435  0.289  0.025 -0.068 -0.078 -0.078
 0.588  1.435  0.289  0.025 -0.067 -0.077 -0.077
 0.590  1.435  0.289  0.026 -0.066 -0.076 -0.076
 0.592  1.434  0.290  0.027 -0.066 -0.076 -0.076
 0.594  1.434  0.290  0.027 -0.065 -0.075 -0.075
 0.596  1.434  0.290  0.028 -0.064 -0.075 -0.075
 0.598  1.433  0.290  0.029 -0.064 -0.074 -0.074
 0.600  1.433  0.290  0.029 -0.063 -0.073 -0.073
 0.602  1.433  0.291  0.030 -0.062 -0.072 -0.072
 0.604  1.432  0.291  0.030 -0.062 -0.072 -0.072
 0.606  1.432  0.291  0.030 -0.062 -0.071 -0.071
 0.608  1.432  0.291  0.031 -0.061 -0.071 -0.071
 0.610  1.431  0.291  0.031 -0.060 -0.070 -0.070
 0.612  1.431  0.291  0.032 -0.060 -0.069 -0.069
 0.614  1.431  0.291  0.032 -0.059 -0.069 -0.069
 0.616  1.431  0.291  0.033 -0.058 -0.068 -0.068
 0.618  1.429  0.291  0.033 -0.058 -0.068 -0.068
 0.620  1.429  0.291  0.034 -0.057 -0.066 -0.066
 0.622  1.429  0.291  0.034 -0.056 -0.066 -0.066
 0.624  1.429  0.290  0.034 -0.056 -0.065 -0.065
 0.626  1.429  0.290  0.034 -0.055 -0.065 -0.065
 0.628  1.428  0.290  0.034 -0.054 -0.064 -0.064
 0.630  1.428  0.290  0.034 -0.054 -0.063 -0.063
 0.632  1.428  0.290  0.035 -0.053 -0.063 -0.063
 0.634  1.428  0.289  0.035 -0.052 -0.062 -0.062
 0.636  1.428  0.289  0.035 -0.052 -0.061 -0.061
 0.638  1.428  0.289  0.035 -0.051 -0.060 -0.060
 0.640  1.428  0.289  0.035 -0.050 -0.060 -0.060
 0.642  1.428  0.287  0.036 -0.050 -0.059 -0.059
 0.644  1.428  0.287  0.036 -0.049 -0.059 -0.059
 0.646  1.427  0.287  0.036 -0.048 -0.058 -0.058
 0.648  1.427  0.286  0.036 -0.048 -0.057 -0.057
 0.650  1.427  0.286  0.036 -0.047 -0.056 -0.056
 0.652  1.427  0.285  0.036 -0.047 -0.056 -0.056
 0.654  1.427  0.285  0.036 -0.046 -0.055 -0.055
 0.656  1.427  0.285  0.036 -0.045 -0.055 -0.055
 0.658  1.427  0.284  0.036 -0.045 -0.054 -0.054
 0.660  1.427  0.284  0.036 -0.045 -0.053 -0.053
 0.662  1.427  0.283  0.036 -0.044 -0.053 -0.053
 0.664  1.428  0.283  0.036 -0.043 -0.053 -0.053
 0.666  1.428  0.283  0.036 -0.043 -0.052 -0.052
 0.668  1.428  0.282  0.035 -0.043 -0.052 -0.052
 0.670  1.427  0.282  0.035 -0.042 -0.051 -0.051
 0.672  1.427  0.281  0.035 -0.042 -0.051 -0.051
 0.674  1.427  0.281  0.035 -0.041 -0.050 -0.050
 0.676  1.427  0.280  0.034 -0.041 -0.050 -0.050
 0.678  1.427  0.280  0.034 -0.041 -0.050 -0.050
 0.680  1.427  0.278  0.034 -0.041 -0.049 -0.049
 0.682  1.427  0.278  0.034 -0.040 -0.049 -0.049
 0.684  1.427  0.277  0.034 -0.040 -0.049 -0.049
 0.686  1.427  0.277  0.033 -0.040 -0.049 -0.049
 0.688  1.426  0.276  0.033 -0.039 -0.048 -0.048
 0.690  1.426  0.275  0.032 -0.039 -0.048 -0.048
 0.692  1.426  0.275  0.032 -0.039 -0.048 -0.048
 0.694  1.426  0.274  0.031 -0.039 -0.048 -0.048
 0.696  1.426  0.273  0.031 -0.039 -0.048 -0.048
 0.698  1.426  0.273  0.030 -0.039 -0.048 -0.048
 0.700  1.425  0.272  0.030 -0.039 -0.048 -0.048
 0.702  1.425  0.271  0.030 -0.039 -0.048 -0.048
 0.704  1.425  0.271  0.029 -0.039 -0.047 -0.047
 0.706  1.425  0.269  0.029 -0.039 -0.047 -0.047
 0.708  1.424  0.269  0.028 -0.039 -0.047 -0.047
 0.710  1.424  0.268  0.027 -0.039 -0.047 -0.047
 0.712  1.424  0.268  0.026 -0.039 -0.047 -0.047
 0.714  1.423  0.268  0.025 -0.039 -0.048 -0.048
 0.716  1.423  0.268  0.025 -0.039 -0.048 -0.048
 0.718  1.421  0.268  0.024 -0.039 -0.048 -0.048
 0.720  1.421  0.268  0.024 -0.039 -0.048 -0.048
 0.722  1.421  0.268  0.023 -0.039 -0.048 -0.048
 0.724  1.420  0.269  0.022 -0.039 -0.048 -0.048
 0.726  1.420  0.269  0.021 -0.039 -0.047 -0.047
 0.728  1.420  0.271  0.021 -0.039 -0.047 -0.047
 0.730  1.419  0.271  0.021 -0.039 -0.047 -0.047
 0.732  1.419  0.272  0.021 -0.039 -0.046 -0.046
 0.734  1.419  0.273  0.021 -0.038 -0.046 -0.046
 0.736  1.419  0.274  0.021 -0.037 -0.045 -0.045
 0.738  1.419  0.275  0.022 -0.037 -0.045 -0.045
 0.740  1.419  0.276  0.022 -0.036 -0.044 -0.044
 0.742  1.419  0.277  0.023 -0.035 -0.043 -0.043
 0.744  1.420  0.278  0.024 -0.034 -0.042 -0.042
 0.746  1.421  0.281  0.025 -0.033 -0.041 -0.041
 0.748  1.421  0.282  0.026 -0.032 -0.040 -0.040
 0.750  1.423  0.284  0.027 -0.031 -0.039 -0.039
 0.752  1.424  0.286  0.029 -0.029 -0.038 -0.038
 0.754  1.426  0.289  0.030 -0.028 -0.036 -0.036
 0.756  1.427  0.290  0.031 -0.027 -0.035 -0.035
 0.758  1.429  0.293  0.033 -0.025 -0.033 -0.033
 0.760  1.432  0.295  0.035 -0.023 -0.032 -0.032
 0.762  1.434  0.297  0.037 -0.021 -0.030 -0.030
 0.764  1.436  0.300  0.039 -0.020 -0.029 -0.029
 0.766  1.439  0.303  0.041 -0.018 -0.027 -0.027
 0.768  1.442  0.305  0.043 -0.016 -0.025 -0.025
 0.770  1.445  0.309  0.047 -0.014 -0.023 -0.023
 0.772  1.448  0.311  0.049 -0.012 -0.021 -0.021
 0.774  1.451  0.314  0.052 -0.009 -0.019 -0.019
 0.776  1.455  0.318  0.055 -0.006 -0.016 -0.016
 0.778  1.458  0.320  0.059 -0.004 -0.014 -0.014
 0.780  1.461  0.323  0.062 -0.001 -0.012 -0.012
 0.782  1.466  0.327  0.065  0.002 -0.009 -0.009
 0.784  1.471  0.329  0.069  0.004 -0.007 -0.007
 0.786  1.474  0.332  0.073  0.008 -0.004 -0.004
 0.788  1.479  0.336  0.076  0.010 -0.002 -0.002
 0.790  1.484  0.339  0.080  0.013  0.001  0.001
 0.792  1.489  0.341  0.084  0.016  0.004  0.004
 0.794  1.495  0.345  0.088  0.019  0.007  0.007
 0.796  1.500  0.348  0.092  0.022  0.009  0.009
 0.798  1.506  0.350  0.095  0.025  0.011  0.011
 0.800  1.511  0.353  0.099  0.028  0.014  0.014
 0.802  1.516  0.356  0.102  0.031  0.017  0.017
 0.804  1.522  0.359  0.105  0.033  0.019  0.019
 0.806  1.527  0.361  0.110  0.036  0.021  0.021
 0.808  1.531  0.365  0.113  0.038  0.024  0.024
