# IsPeriodic    : True
# Period        : 0.460119 days
# Normalization : <g_mag>=0
# 
# Phase u_mag  g_mag  r_mag  i_mag  z_mag  y_mag
 0.000  0.161 -1.026 -0.821 -0.660 -0.548 -0.548
 0.002  0.161 -1.026 -0.821 -0.660 -0.548 -0.548
 0.004  0.161 -1.024 -0.821 -0.660 -0.548 -0.548
 0.006  0.162 -1.023 -0.820 -0.659 -0.547 -0.547
 0.008  0.164 -1.020 -0.819 -0.658 -0.546 -0.546
 0.010  0.167 -1.017 -0.816 -0.657 -0.544 -0.544
 0.012  0.168 -1.012 -0.814 -0.656 -0.543 -0.543
 0.014  0.171 -1.008 -0.812 -0.654 -0.541 -0.541
 0.016  0.175 -1.003 -0.809 -0.652 -0.539 -0.539
 0.018  0.179 -0.997 -0.807 -0.650 -0.538 -0.538
 0.020  0.184 -0.991 -0.804 -0.649 -0.535 -0.535
 0.022  0.187 -0.985 -0.801 -0.647 -0.533 -0.533
 0.024  0.192 -0.979 -0.798 -0.644 -0.531 -0.531
 0.026  0.198 -0.973 -0.794 -0.642 -0.528 -0.528
 0.028  0.202 -0.967 -0.791 -0.639 -0.525 -0.525
 0.030  0.207 -0.959 -0.788 -0.636 -0.523 -0.523
 0.032  0.213 -0.953 -0.783 -0.634 -0.521 -0.521
 0.034  0.219 -0.947 -0.780 -0.631 -0.518 -0.518
 0.036  0.226 -0.940 -0.775 -0.628 -0.516 -0.516
 0.038  0.232 -0.934 -0.770 -0.624 -0.513 -0.513
 0.040  0.238 -0.926 -0.767 -0.622 -0.511 -0.511
 0.042  0.246 -0.919 -0.761 -0.618 -0.508 -0.508
 0.044  0.254 -0.911 -0.757 -0.614 -0.504 -0.504
 0.046  0.261 -0.904 -0.752 -0.610 -0.502 -0.502
 0.048  0.269 -0.896 -0.746 -0.607 -0.499 -0.499
 0.050  0.277 -0.889 -0.741 -0.603 -0.496 -0.496
 0.052  0.286 -0.880 -0.735 -0.598 -0.492 -0.492
 0.054  0.295 -0.871 -0.729 -0.594 -0.489 -0.489
 0.056  0.305 -0.862 -0.722 -0.589 -0.485 -0.485
 0.058  0.314 -0.853 -0.717 -0.584 -0.482 -0.482
 0.060  0.323 -0.844 -0.710 -0.580 -0.478 -0.478
 0.062  0.334 -0.833 -0.703 -0.574 -0.474 -0.474
 0.064  0.345 -0.824 -0.696 -0.569 -0.471 -0.471
 0.066  0.354 -0.813 -0.689 -0.564 -0.467 -0.467
 0.068  0.366 -0.803 -0.682 -0.558 -0.463 -0.463
 0.070  0.377 -0.792 -0.674 -0.552 -0.459 -0.459
 0.072  0.388 -0.782 -0.667 -0.547 -0.454 -0.454
 0.074  0.401 -0.771 -0.659 -0.541 -0.451 -0.451
 0.076  0.411 -0.761 -0.652 -0.536 -0.447 -0.447
 0.078  0.424 -0.750 -0.644 -0.530 -0.442 -0.442
 0.080  0.435 -0.740 -0.637 -0.524 -0.438 -0.438
 0.082  0.447 -0.729 -0.629 -0.519 -0.434 -0.434
 0.084  0.458 -0.719 -0.621 -0.513 -0.430 -0.430
 0.086  0.469 -0.708 -0.614 -0.508 -0.426 -0.426
 0.088  0.479 -0.698 -0.608 -0.502 -0.422 -0.422
 0.090  0.490 -0.687 -0.601 -0.496 -0.418 -0.418
 0.092  0.501 -0.677 -0.594 -0.492 -0.414 -0.414
 0.094  0.512 -0.666 -0.587 -0.486 -0.411 -0.411
 0.096  0.521 -0.657 -0.580 -0.481 -0.407 -0.407
 0.098  0.532 -0.646 -0.573 -0.477 -0.403 -0.403
 0.100  0.541 -0.637 -0.566 -0.471 -0.400 -0.400
 0.102  0.551 -0.627 -0.561 -0.467 -0.396 -0.396
 0.104  0.560 -0.618 -0.554 -0.462 -0.393 -0.393
 0.106  0.569 -0.609 -0.548 -0.458 -0.389 -0.389
 0.108  0.578 -0.600 -0.542 -0.453 -0.386 -0.386
 0.110  0.588 -0.591 -0.535 -0.449 -0.382 -0.382
 0.112  0.597 -0.582 -0.530 -0.444 -0.379 -0.379
 0.114  0.605 -0.574 -0.524 -0.440 -0.376 -0.376
 0.116  0.614 -0.565 -0.518 -0.436 -0.373 -0.373
 0.118  0.622 -0.558 -0.512 -0.432 -0.370 -0.370
 0.120  0.631 -0.549 -0.507 -0.427 -0.367 -0.367
 0.122  0.639 -0.541 -0.501 -0.424 -0.364 -0.364
 0.124  0.647 -0.534 -0.495 -0.420 -0.361 -0.361
 0.126  0.654 -0.526 -0.491 -0.416 -0.357 -0.357
 0.128  0.662 -0.519 -0.485 -0.412 -0.355 -0.355
 0.130  0.670 -0.511 -0.480 -0.409 -0.352 -0.352
 0.132  0.676 -0.503 -0.476 -0.406 -0.349 -0.349
 0.134  0.684 -0.496 -0.471 -0.402 -0.347 -0.347
 0.136  0.690 -0.490 -0.465 -0.398 -0.344 -0.344
 0.138  0.698 -0.482 -0.461 -0.396 -0.341 -0.341
 0.140  0.704 -0.476 -0.456 -0.393 -0.339 -0.339
 0.142  0.710 -0.470 -0.453 -0.389 -0.337 -0.337
 0.144  0.716 -0.463 -0.448 -0.386 -0.334 -0.334
 0.146  0.722 -0.457 -0.444 -0.383 -0.332 -0.332
 0.148  0.729 -0.451 -0.439 -0.381 -0.330 -0.330
 0.150  0.735 -0.445 -0.434 -0.377 -0.327 -0.327
 0.152  0.741 -0.439 -0.431 -0.374 -0.325 -0.325
 0.154  0.747 -0.433 -0.426 -0.371 -0.323 -0.323
 0.156  0.753 -0.427 -0.422 -0.369 -0.321 -0.321
 0.158  0.760 -0.421 -0.418 -0.366 -0.318 -0.318
 0.160  0.766 -0.416 -0.414 -0.363 -0.316 -0.316
 0.162  0.770 -0.410 -0.409 -0.360 -0.314 -0.314
 0.164  0.777 -0.404 -0.406 -0.357 -0.311 -0.311
 0.166  0.783 -0.398 -0.401 -0.355 -0.309 -0.309
 0.168  0.789 -0.392 -0.398 -0.352 -0.307 -0.307
 0.170  0.795 -0.386 -0.393 -0.349 -0.304 -0.304
 0.172  0.801 -0.380 -0.389 -0.346 -0.302 -0.302
 0.174  0.807 -0.374 -0.385 -0.343 -0.300 -0.300
 0.176  0.812 -0.368 -0.381 -0.341 -0.297 -0.297
 0.178  0.818 -0.362 -0.377 -0.338 -0.295 -0.295
 0.180  0.825 -0.356 -0.372 -0.335 -0.293 -0.293
 0.182  0.831 -0.350 -0.368 -0.332 -0.291 -0.291
 0.184  0.837 -0.344 -0.364 -0.329 -0.288 -0.288
 0.186  0.843 -0.338 -0.360 -0.327 -0.286 -0.286
 0.188  0.849 -0.330 -0.356 -0.325 -0.284 -0.284
 0.190  0.854 -0.324 -0.352 -0.322 -0.281 -0.281
 0.192  0.860 -0.318 -0.348 -0.319 -0.280 -0.280
 0.194  0.866 -0.312 -0.344 -0.316 -0.277 -0.277
 0.196  0.872 -0.306 -0.340 -0.313 -0.275 -0.275
 0.198  0.879 -0.300 -0.337 -0.311 -0.273 -0.273
 0.200  0.885 -0.294 -0.332 -0.308 -0.271 -0.271
 0.202  0.890 -0.288 -0.329 -0.306 -0.268 -0.268
 0.204  0.896 -0.282 -0.324 -0.303 -0.266 -0.266
 0.206  0.902 -0.275 -0.321 -0.300 -0.264 -0.264
 0.208  0.908 -0.269 -0.317 -0.298 -0.261 -0.261
 0.210  0.913 -0.263 -0.313 -0.295 -0.259 -0.259
 0.212  0.919 -0.257 -0.309 -0.293 -0.257 -0.257
 0.214  0.925 -0.249 -0.305 -0.290 -0.254 -0.254
 0.216  0.931 -0.243 -0.301 -0.287 -0.252 -0.252
 0.218  0.937 -0.237 -0.298 -0.285 -0.250 -0.250
 0.220  0.942 -0.231 -0.293 -0.282 -0.247 -0.247
 0.222  0.948 -0.224 -0.290 -0.280 -0.245 -0.245
 0.224  0.954 -0.218 -0.286 -0.277 -0.243 -0.243
 0.226  0.959 -0.212 -0.283 -0.274 -0.240 -0.240
 0.228  0.965 -0.206 -0.278 -0.272 -0.239 -0.239
 0.230  0.972 -0.200 -0.275 -0.270 -0.237 -0.237
 0.232  0.976 -0.194 -0.272 -0.267 -0.234 -0.234
 0.234  0.982 -0.188 -0.268 -0.265 -0.232 -0.232
 0.236  0.987 -0.181 -0.265 -0.262 -0.230 -0.230
 0.238  0.993 -0.175 -0.261 -0.259 -0.227 -0.227
 0.240  0.998 -0.169 -0.258 -0.257 -0.226 -0.226
 0.242  1.004 -0.163 -0.253 -0.255 -0.224 -0.224
 0.244  1.009 -0.157 -0.250 -0.252 -0.221 -0.221
 0.246  1.013 -0.151 -0.246 -0.250 -0.219 -0.219
 0.248  1.019 -0.147 -0.243 -0.247 -0.217 -0.217
 0.250  1.024 -0.141 -0.239 -0.245 -0.215 -0.215
 0.252  1.029 -0.135 -0.236 -0.242 -0.213 -0.213
 0.254  1.035 -0.130 -0.233 -0.241 -0.211 -0.211
 0.256  1.040 -0.124 -0.230 -0.238 -0.209 -0.209
 0.258  1.044 -0.118 -0.227 -0.235 -0.207 -0.207
 0.260  1.049 -0.114 -0.223 -0.233 -0.205 -0.205
 0.262  1.054 -0.108 -0.220 -0.230 -0.203 -0.203
 0.264  1.060 -0.103 -0.217 -0.228 -0.201 -0.201
 0.266  1.064 -0.099 -0.213 -0.226 -0.199 -0.199
 0.268  1.069 -0.093 -0.210 -0.224 -0.197 -0.197
 0.270  1.074 -0.088 -0.207 -0.221 -0.195 -0.195
 0.272  1.078 -0.084 -0.204 -0.219 -0.194 -0.194
 0.274  1.083 -0.078 -0.200 -0.217 -0.191 -0.191
 0.276  1.088 -0.073 -0.197 -0.214 -0.190 -0.190
 0.278  1.092 -0.069 -0.195 -0.213 -0.187 -0.187
 0.280  1.097 -0.064 -0.191 -0.210 -0.186 -0.186
 0.282  1.102 -0.060 -0.188 -0.208 -0.184 -0.184
 0.284  1.105 -0.055 -0.186 -0.205 -0.182 -0.182
 0.286  1.109 -0.051 -0.182 -0.203 -0.180 -0.180
 0.288  1.114 -0.046 -0.179 -0.201 -0.178 -0.178
 0.290  1.119 -0.042 -0.176 -0.199 -0.177 -0.177
 0.292  1.123 -0.037 -0.173 -0.197 -0.174 -0.174
 0.294  1.128 -0.033 -0.171 -0.194 -0.173 -0.173
 0.296  1.131 -0.028 -0.167 -0.192 -0.171 -0.171
 0.298  1.136 -0.023 -0.165 -0.190 -0.169 -0.169
 0.300  1.140 -0.019 -0.161 -0.187 -0.167 -0.167
 0.302  1.145 -0.014 -0.158 -0.186 -0.166 -0.166
 0.304  1.148 -0.011 -0.156 -0.183 -0.164 -0.164
 0.306  1.153 -0.007 -0.152 -0.181 -0.162 -0.162
 0.308  1.157 -0.002 -0.150 -0.179 -0.160 -0.160
 0.310  1.162  0.002 -0.147 -0.176 -0.158 -0.158
 0.312  1.165  0.007 -0.144 -0.174 -0.157 -0.157
 0.314  1.170  0.010 -0.141 -0.172 -0.155 -0.155
 0.316  1.174  0.014 -0.137 -0.170 -0.153 -0.153
 0.318  1.179  0.019 -0.135 -0.167 -0.151 -0.151
 0.320  1.182  0.023 -0.132 -0.165 -0.150 -0.150
 0.322  1.187  0.028 -0.129 -0.162 -0.147 -0.147
 0.324  1.191  0.032 -0.126 -0.160 -0.146 -0.146
 0.326  1.194  0.035 -0.123 -0.158 -0.144 -0.144
 0.328  1.199  0.040 -0.120 -0.156 -0.142 -0.142
 0.330  1.204  0.044 -0.117 -0.153 -0.140 -0.140
 0.332  1.208  0.049 -0.114 -0.151 -0.139 -0.139
 0.334  1.211  0.052 -0.111 -0.148 -0.137 -0.137
 0.336  1.216  0.056 -0.109 -0.146 -0.135 -0.135
 0.338  1.221  0.061 -0.105 -0.144 -0.134 -0.134
 0.340  1.224  0.065 -0.103 -0.142 -0.132 -0.132
 0.342  1.228  0.070 -0.100 -0.139 -0.130 -0.130
 0.344  1.231  0.073 -0.096 -0.136 -0.128 -0.128
 0.346  1.236  0.077 -0.094 -0.134 -0.127 -0.127
 0.348  1.241  0.082 -0.090 -0.131 -0.124 -0.124
 0.350  1.244  0.085 -0.088 -0.130 -0.123 -0.123
 0.352  1.249  0.089 -0.085 -0.127 -0.121 -0.121
 0.354  1.253  0.094 -0.082 -0.125 -0.119 -0.119
 0.356  1.256  0.098 -0.079 -0.122 -0.117 -0.117
 0.358  1.261  0.101 -0.075 -0.119 -0.116 -0.116
 0.360  1.264  0.106 -0.073 -0.117 -0.114 -0.114
 0.362  1.269  0.110 -0.070 -0.115 -0.112 -0.112
 0.364  1.273  0.113 -0.067 -0.113 -0.110 -0.110
 0.366  1.276  0.118 -0.064 -0.110 -0.109 -0.109
 0.368  1.281  0.122 -0.062 -0.107 -0.107 -0.107
 0.370  1.284  0.127 -0.058 -0.105 -0.105 -0.105
 0.372  1.289  0.130 -0.056 -0.102 -0.104 -0.104
 0.374  1.292  0.134 -0.053 -0.101 -0.101 -0.101
 0.376  1.296  0.139 -0.050 -0.098 -0.100 -0.100
 0.378  1.300  0.142 -0.047 -0.096 -0.097 -0.097
 0.380  1.304  0.147 -0.045 -0.093 -0.096 -0.096
 0.382  1.307  0.151 -0.041 -0.091 -0.094 -0.094
 0.384  1.312  0.156 -0.039 -0.088 -0.092 -0.092
 0.386  1.315  0.159 -0.035 -0.087 -0.090 -0.090
 0.388  1.320  0.163 -0.033 -0.084 -0.088 -0.088
 0.390  1.323  0.168 -0.030 -0.082 -0.087 -0.087
 0.392  1.327  0.172 -0.027 -0.079 -0.084 -0.084
 0.394  1.331  0.175 -0.024 -0.077 -0.083 -0.083
 0.396  1.335  0.180 -0.022 -0.075 -0.080 -0.080
 0.398  1.338  0.184 -0.018 -0.073 -0.079 -0.079
 0.400  1.343  0.187 -0.016 -0.071 -0.077 -0.077
 0.402  1.346  0.192 -0.012 -0.068 -0.075 -0.075
 0.404  1.351  0.196 -0.010 -0.066 -0.073 -0.073
 0.406  1.354  0.201 -0.007 -0.064 -0.071 -0.071
 0.408  1.357  0.204 -0.004 -0.061 -0.069 -0.069
 0.410  1.361  0.208 -0.001 -0.060 -0.067 -0.067
 0.412  1.365  0.213  0.001 -0.058 -0.065 -0.065
 0.414  1.368  0.217  0.005 -0.055 -0.063 -0.063
 0.416  1.372  0.220  0.007 -0.053 -0.061 -0.061
 0.418  1.375  0.225  0.009 -0.051 -0.059 -0.059
 0.420  1.380  0.229  0.013 -0.048 -0.057 -0.057
 0.422  1.383  0.234  0.015 -0.046 -0.055 -0.055
 0.424  1.386  0.238  0.019 -0.045 -0.053 -0.053
 0.426  1.391  0.241  0.021 -0.043 -0.050 -0.050
 0.428  1.394  0.246  0.024 -0.040 -0.049 -0.049
 0.430  1.397  0.250  0.027 -0.038 -0.047 -0.047
 0.432  1.400  0.255  0.029 -0.036 -0.044 -0.044
 0.434  1.405  0.258  0.032 -0.034 -0.043 -0.043
 0.436  1.408  0.262  0.035 -0.032 -0.040 -0.040
 0.438  1.411  0.267  0.038 -0.030 -0.038 -0.038
 0.440  1.414  0.271  0.040 -0.028 -0.037 -0.037
 0.442  1.419  0.274  0.043 -0.026 -0.034 -0.034
 0.444  1.422  0.279  0.046 -0.024 -0.032 -0.032
 0.446  1.425  0.282  0.048 -0.021 -0.030 -0.030
 0.448  1.428  0.286  0.051 -0.019 -0.028 -0.028
 0.450  1.431  0.289  0.053 -0.018 -0.027 -0.027
 0.452  1.434  0.294  0.056 -0.016 -0.024 -0.024
 0.454  1.437  0.297  0.059 -0.014 -0.023 -0.023
 0.456  1.440  0.300  0.061 -0.011 -0.020 -0.020
 0.458  1.443  0.305  0.063 -0.009 -0.019 -0.019
 0.460  1.447  0.308  0.067 -0.007 -0.017 -0.017
 0.462  1.450  0.311  0.069 -0.005 -0.015 -0.015
 0.464  1.453  0.314  0.071 -0.003 -0.013 -0.013
 0.466  1.456  0.317  0.074 -0.001 -0.011 -0.011
 0.468  1.459  0.320  0.076  0.001 -0.010 -0.010
 0.470  1.462  0.323  0.078  0.003 -0.008 -0.008
 0.472  1.465  0.326  0.082  0.005 -0.006 -0.006
 0.474  1.468  0.329  0.084  0.008 -0.004 -0.004
 0.476  1.471  0.332  0.086  0.010 -0.003 -0.003
 0.478  1.473  0.335  0.088  0.011 -0.001 -0.001
 0.480  1.476  0.336  0.091  0.013  0.001  0.001
 0.482  1.479  0.339  0.093  0.015  0.003  0.003
 0.484  1.482  0.342  0.095  0.018  0.004  0.004
 0.486  1.484  0.344  0.098  0.020  0.006  0.006
 0.488  1.487  0.347  0.100  0.022  0.007  0.007
 0.490  1.490  0.348  0.102  0.024  0.009  0.009
 0.492  1.491  0.351  0.105  0.026  0.010  0.010
 0.494  1.495  0.353  0.107  0.028  0.012  0.012
 0.496  1.498  0.354  0.109  0.030  0.013  0.013
 0.498  1.499  0.357  0.111  0.032  0.015  0.015
 0.500  1.502  0.359  0.114  0.034  0.017  0.017
 0.502  1.504  0.360  0.116  0.037  0.018  0.018
 0.504  1.507  0.362  0.118  0.039  0.020  0.020
 0.506  1.508  0.363  0.121  0.040  0.021  0.021
 0.508  1.512  0.365  0.122  0.042  0.023  0.023
 0.510  1.513  0.366  0.124  0.044  0.023  0.023
 0.512  1.516  0.368  0.126  0.046  0.025  0.025
 0.514  1.518  0.369  0.129  0.048  0.027  0.027
 0.516  1.519  0.371  0.130  0.050  0.028  0.028
 0.518  1.521  0.372  0.132  0.052  0.030  0.030
 0.520  1.524  0.374  0.134  0.053  0.030  0.030
 0.522  1.525  0.375  0.136  0.055  0.032  0.032
 0.524  1.527  0.377  0.138  0.056  0.033  0.033
 0.526  1.529  0.378  0.139  0.058  0.034  0.034
 0.528  1.530  0.380  0.141  0.060  0.036  0.036
 0.530  1.532  0.380  0.142  0.061  0.037  0.037
 0.532  1.533  0.381  0.145  0.063  0.038  0.038
 0.534  1.535  0.383  0.146  0.064  0.040  0.040
 0.536  1.536  0.384  0.148  0.066  0.040  0.040
 0.538  1.538  0.384  0.149  0.067  0.042  0.042
 0.540  1.539  0.386  0.150  0.068  0.043  0.043
 0.542  1.541  0.387  0.153  0.069  0.044  0.044
 0.544  1.543  0.387  0.154  0.070  0.045  0.045
 0.546  1.544  0.389  0.155  0.072  0.046  0.046
 0.548  1.546  0.389  0.156  0.073  0.047  0.047
 0.550  1.546  0.390  0.157  0.074  0.048  0.048
 0.552  1.547  0.390  0.160  0.075  0.050  0.050
 0.554  1.549  0.392  0.161  0.076  0.050  0.050
 0.556  1.549  0.392  0.162  0.077  0.051  0.051
 0.558  1.550  0.393  0.163  0.078  0.052  0.052
 0.560  1.550  0.393  0.164  0.079  0.053  0.053
 0.562  1.552  0.393  0.165  0.080  0.054  0.054
 0.564  1.552  0.395  0.166  0.081  0.055  0.055
 0.566  1.553  0.395  0.168  0.081  0.056  0.056
 0.568  1.553  0.395  0.169  0.082  0.057  0.057
 0.570  1.555  0.396  0.169  0.082  0.058  0.058
 0.572  1.555  0.396  0.170  0.083  0.059  0.059
 0.574  1.555  0.396  0.171  0.084  0.060  0.060
 0.576  1.556  0.396  0.172  0.084  0.060  0.060
 0.578  1.556  0.396  0.172  0.085  0.061  0.061
 0.580  1.556  0.398  0.173  0.086  0.062  0.062
 0.582  1.556  0.398  0.174  0.086  0.063  0.063
 0.584  1.558  0.398  0.174  0.087  0.063  0.063
 0.586  1.558  0.398  0.176  0.087  0.064  0.064
 0.588  1.558  0.398  0.176  0.088  0.065  0.065
 0.590  1.558  0.398  0.177  0.088  0.066  0.066
 0.592  1.558  0.398  0.177  0.089  0.067  0.067
 0.594  1.560  0.398  0.178  0.089  0.067  0.067
 0.596  1.560  0.398  0.178  0.090  0.067  0.067
 0.598  1.560  0.398  0.179  0.090  0.068  0.068
 0.600  1.560  0.398  0.179  0.091  0.069  0.069
 0.602  1.560  0.398  0.179  0.091  0.070  0.070
 0.604  1.560  0.398  0.179  0.092  0.070  0.070
 0.606  1.560  0.398  0.180  0.092  0.071  0.071
 0.608  1.560  0.398  0.180  0.093  0.071  0.071
 0.610  1.560  0.398  0.180  0.093  0.072  0.072
 0.612  1.560  0.398  0.180  0.093  0.073  0.073
 0.614  1.560  0.398  0.180  0.094  0.073  0.073
 0.616  1.560  0.398  0.180  0.094  0.073  0.073
 0.618  1.560  0.398  0.180  0.094  0.074  0.074
 0.620  1.560  0.398  0.180  0.095  0.075  0.075
 0.622  1.560  0.398  0.180  0.095  0.076  0.076
 0.624  1.560  0.398  0.180  0.095  0.076  0.076
 0.626  1.558  0.398  0.180  0.095  0.077  0.077
 0.628  1.558  0.398  0.179  0.095  0.077  0.077
 0.630  1.558  0.398  0.179  0.095  0.077  0.077
 0.632  1.558  0.398  0.179  0.095  0.078  0.078
 0.634  1.558  0.396  0.178  0.096  0.078  0.078
 0.636  1.556  0.396  0.178  0.096  0.079  0.079
 0.638  1.556  0.396  0.178  0.096  0.079  0.079
 0.640  1.556  0.396  0.177  0.096  0.080  0.080
 0.642  1.556  0.396  0.177  0.096  0.080  0.080
 0.644  1.555  0.396  0.176  0.097  0.080  0.080
 0.646  1.555  0.395  0.176  0.097  0.080  0.080
 0.648  1.555  0.395  0.174  0.097  0.081  0.081
 0.650  1.553  0.395  0.174  0.097  0.081  0.081
 0.652  1.553  0.395  0.173  0.097  0.082  0.082
 0.654  1.553  0.393  0.173  0.097  0.082  0.082
 0.656  1.553  0.393  0.172  0.098  0.082  0.082
 0.658  1.552  0.393  0.172  0.098  0.083  0.083
 0.660  1.552  0.393  0.172  0.098  0.083  0.083
 0.662  1.552  0.392  0.171  0.098  0.084  0.084
 0.664  1.550  0.392  0.171  0.098  0.084  0.084
 0.666  1.550  0.392  0.170  0.099  0.084  0.084
 0.668  1.550  0.390  0.170  0.099  0.084  0.084
 0.670  1.549  0.390  0.169  0.099  0.084  0.084
 0.672  1.549  0.390  0.169  0.099  0.085  0.085
 0.674  1.549  0.389  0.169  0.099  0.085  0.085
 0.676  1.547  0.389  0.168  0.100  0.086  0.086
 0.678  1.547  0.389  0.168  0.100  0.086  0.086
 0.680  1.547  0.387  0.168  0.100  0.087  0.087
 0.682  1.547  0.387  0.166  0.100  0.087  0.087
 0.684  1.546  0.386  0.166  0.101  0.087  0.087
 0.686  1.546  0.386  0.166  0.101  0.087  0.087
 0.688  1.546  0.386  0.166  0.101  0.087  0.087
 0.690  1.544  0.384  0.165  0.101  0.088  0.088
 0.692  1.544  0.384  0.165  0.102  0.088  0.088
 0.694  1.544  0.383  0.165  0.102  0.089  0.089
 0.696  1.543  0.383  0.165  0.102  0.089  0.089
 0.698  1.543  0.381  0.165  0.103  0.090  0.090
 0.700  1.543  0.381  0.164  0.103  0.090  0.090
 0.702  1.541  0.380  0.164  0.103  0.090  0.090
 0.704  1.541  0.380  0.164  0.103  0.090  0.090
 0.706  1.541  0.378  0.164  0.104  0.090  0.090
 0.708  1.541  0.378  0.164  0.104  0.091  0.091
 0.710  1.539  0.377  0.164  0.104  0.091  0.091
 0.712  1.539  0.377  0.164  0.105  0.092  0.092
 0.714  1.539  0.375  0.163  0.105  0.092  0.092
 0.716  1.538  0.375  0.163  0.105  0.092  0.092
 0.718  1.538  0.374  0.163  0.106  0.093  0.093
 0.720  1.538  0.372  0.163  0.106  0.093  0.093
 0.722  1.538  0.372  0.163  0.106  0.094  0.094
 0.724  1.536  0.371  0.163  0.107  0.094  0.094
 0.726  1.536  0.371  0.163  0.107  0.094  0.094
 0.728  1.536  0.369  0.163  0.107  0.095  0.095
 0.730  1.536  0.369  0.163  0.108  0.095  0.095
 0.732  1.535  0.369  0.163  0.108  0.096  0.096
 0.734  1.535  0.369  0.163  0.108  0.097  0.097
 0.736  1.535  0.368  0.163  0.109  0.097  0.097
 0.738  1.535  0.368  0.163  0.109  0.098  0.098
 0.740  1.533  0.368  0.163  0.109  0.099  0.099
 0.742  1.533  0.368  0.162  0.109  0.100  0.100
 0.744  1.533  0.368  0.162  0.109  0.101  0.101
 0.746  1.533  0.368  0.162  0.109  0.102  0.102
 0.748  1.533  0.368  0.162  0.109  0.103  0.103
 0.750  1.533  0.369  0.162  0.110  0.104  0.104
 0.752  1.532  0.369  0.162  0.110  0.105  0.105
 0.754  1.532  0.369  0.162  0.110  0.107  0.107
 0.756  1.532  0.369  0.162  0.111  0.107  0.107
 0.758  1.532  0.371  0.162  0.111  0.109  0.109
 0.760  1.532  0.371  0.162  0.111  0.110  0.110
 0.762  1.532  0.372  0.162  0.112  0.111  0.111
 0.764  1.532  0.372  0.162  0.112  0.113  0.113
 0.766  1.532  0.374  0.162  0.112  0.114  0.114
 0.768  1.532  0.375  0.162  0.113  0.116  0.116
 0.770  1.532  0.375  0.162  0.113  0.117  0.117
 0.772  1.532  0.377  0.162  0.113  0.119  0.119
 0.774  1.532  0.378  0.162  0.113  0.120  0.120
 0.776  1.530  0.380  0.162  0.114  0.122  0.122
 0.778  1.530  0.381  0.162  0.114  0.124  0.124
 0.780  1.530  0.383  0.161  0.114  0.126  0.126
 0.782  1.530  0.384  0.161  0.114  0.128  0.128
 0.784  1.530  0.386  0.161  0.114  0.130  0.130
 0.786  1.530  0.389  0.162  0.115  0.132  0.132
 0.788  1.530  0.390  0.162  0.115  0.134  0.134
 0.790  1.532  0.392  0.162  0.116  0.136  0.136
 0.792  1.532  0.393  0.162  0.117  0.137  0.137
 0.794  1.533  0.396  0.163  0.118  0.140  0.140
 0.796  1.533  0.398  0.164  0.119  0.142  0.142
 0.798  1.535  0.399  0.164  0.120  0.144  0.144
 0.800  1.536  0.402  0.166  0.121  0.146  0.146
 0.802  1.538  0.404  0.168  0.123  0.148  0.148
 0.804  1.539  0.405  0.169  0.124  0.150  0.150
 0.806  1.541  0.408  0.171  0.125  0.152  0.152
 0.808  1.544  0.410  0.172  0.128  0.154  0.154
