# IsPeriodic    : True
# Period        : 0.466193 days
# Normalization : <g_mag>=0
# 
# Phase u_mag  g_mag  r_mag  i_mag  z_mag  y_mag
 0.000  0.086 -0.986 -0.776 -0.616 -0.508 -0.508
 0.002  0.086 -0.986 -0.776 -0.616 -0.508 -0.508
 0.004  0.086 -0.985 -0.776 -0.615 -0.507 -0.507
 0.006  0.088 -0.983 -0.775 -0.613 -0.506 -0.506
 0.008  0.089 -0.980 -0.774 -0.612 -0.506 -0.506
 0.010  0.092 -0.978 -0.771 -0.609 -0.504 -0.504
 0.012  0.094 -0.973 -0.769 -0.606 -0.502 -0.502
 0.014  0.097 -0.969 -0.767 -0.602 -0.501 -0.501
 0.016  0.100 -0.965 -0.765 -0.599 -0.499 -0.499
 0.018  0.105 -0.959 -0.762 -0.594 -0.497 -0.497
 0.020  0.109 -0.953 -0.759 -0.590 -0.495 -0.495
 0.022  0.112 -0.947 -0.757 -0.586 -0.492 -0.492
 0.024  0.117 -0.941 -0.754 -0.582 -0.490 -0.490
 0.026  0.123 -0.936 -0.750 -0.577 -0.488 -0.488
 0.028  0.128 -0.930 -0.747 -0.573 -0.485 -0.485
 0.030  0.132 -0.923 -0.744 -0.569 -0.482 -0.482
 0.032  0.139 -0.917 -0.739 -0.565 -0.480 -0.480
 0.034  0.145 -0.911 -0.736 -0.561 -0.478 -0.478
 0.036  0.151 -0.904 -0.731 -0.558 -0.475 -0.475
 0.038  0.157 -0.898 -0.727 -0.553 -0.472 -0.472
 0.040  0.163 -0.891 -0.724 -0.550 -0.470 -0.470
 0.042  0.171 -0.884 -0.718 -0.546 -0.467 -0.467
 0.044  0.179 -0.876 -0.714 -0.541 -0.464 -0.464
 0.046  0.186 -0.869 -0.709 -0.538 -0.461 -0.461
 0.048  0.194 -0.862 -0.704 -0.534 -0.458 -0.458
 0.050  0.202 -0.855 -0.698 -0.529 -0.455 -0.455
 0.052  0.211 -0.846 -0.693 -0.525 -0.451 -0.451
 0.054  0.220 -0.837 -0.687 -0.521 -0.448 -0.448
 0.056  0.230 -0.829 -0.680 -0.516 -0.444 -0.444
 0.058  0.239 -0.820 -0.675 -0.512 -0.441 -0.441
 0.060  0.248 -0.811 -0.668 -0.508 -0.437 -0.437
 0.062  0.259 -0.801 -0.661 -0.503 -0.433 -0.433
 0.064  0.270 -0.792 -0.655 -0.498 -0.429 -0.429
 0.066  0.279 -0.782 -0.648 -0.494 -0.425 -0.425
 0.068  0.291 -0.772 -0.641 -0.490 -0.422 -0.422
 0.070  0.302 -0.762 -0.634 -0.485 -0.418 -0.418
 0.072  0.313 -0.752 -0.627 -0.481 -0.413 -0.413
 0.074  0.325 -0.742 -0.619 -0.476 -0.409 -0.409
 0.076  0.336 -0.732 -0.613 -0.471 -0.405 -0.405
 0.078  0.348 -0.721 -0.605 -0.467 -0.400 -0.400
 0.080  0.359 -0.711 -0.598 -0.463 -0.397 -0.397
 0.082  0.372 -0.701 -0.590 -0.458 -0.393 -0.393
 0.084  0.382 -0.691 -0.583 -0.453 -0.388 -0.388
 0.086  0.393 -0.681 -0.576 -0.449 -0.384 -0.384
 0.088  0.404 -0.671 -0.569 -0.445 -0.380 -0.380
 0.090  0.415 -0.661 -0.563 -0.440 -0.376 -0.376
 0.092  0.426 -0.651 -0.556 -0.435 -0.372 -0.372
 0.094  0.436 -0.640 -0.549 -0.431 -0.369 -0.369
 0.096  0.446 -0.632 -0.543 -0.427 -0.365 -0.365
 0.098  0.456 -0.622 -0.536 -0.422 -0.361 -0.361
 0.100  0.466 -0.613 -0.529 -0.418 -0.358 -0.358
 0.102  0.475 -0.603 -0.524 -0.414 -0.354 -0.354
 0.104  0.484 -0.594 -0.517 -0.409 -0.351 -0.351
 0.106  0.493 -0.585 -0.512 -0.405 -0.347 -0.347
 0.108  0.503 -0.577 -0.506 -0.402 -0.344 -0.344
 0.110  0.512 -0.568 -0.499 -0.397 -0.340 -0.340
 0.112  0.521 -0.559 -0.494 -0.393 -0.337 -0.337
 0.114  0.529 -0.552 -0.488 -0.390 -0.334 -0.334
 0.116  0.538 -0.544 -0.483 -0.385 -0.330 -0.330
 0.118  0.546 -0.536 -0.477 -0.382 -0.327 -0.327
 0.120  0.555 -0.528 -0.472 -0.378 -0.324 -0.324
 0.122  0.563 -0.520 -0.466 -0.374 -0.321 -0.321
 0.124  0.571 -0.513 -0.461 -0.371 -0.318 -0.318
 0.126  0.578 -0.506 -0.456 -0.367 -0.315 -0.315
 0.128  0.586 -0.499 -0.451 -0.363 -0.313 -0.313
 0.130  0.594 -0.491 -0.446 -0.360 -0.309 -0.309
 0.132  0.600 -0.484 -0.442 -0.356 -0.306 -0.306
 0.134  0.608 -0.477 -0.437 -0.353 -0.304 -0.304
 0.136  0.614 -0.471 -0.432 -0.350 -0.302 -0.302
 0.138  0.621 -0.464 -0.427 -0.346 -0.299 -0.299
 0.140  0.628 -0.458 -0.423 -0.343 -0.296 -0.296
 0.142  0.634 -0.452 -0.420 -0.339 -0.294 -0.294
 0.144  0.640 -0.445 -0.415 -0.336 -0.292 -0.292
 0.146  0.646 -0.439 -0.411 -0.332 -0.289 -0.289
 0.148  0.652 -0.434 -0.406 -0.330 -0.287 -0.287
 0.150  0.659 -0.428 -0.402 -0.326 -0.285 -0.285
 0.152  0.665 -0.422 -0.398 -0.323 -0.282 -0.282
 0.154  0.671 -0.416 -0.394 -0.320 -0.280 -0.280
 0.156  0.677 -0.410 -0.390 -0.317 -0.278 -0.278
 0.158  0.683 -0.405 -0.386 -0.314 -0.275 -0.275
 0.160  0.689 -0.400 -0.382 -0.311 -0.273 -0.273
 0.162  0.694 -0.394 -0.377 -0.308 -0.271 -0.271
 0.164  0.700 -0.389 -0.374 -0.306 -0.268 -0.268
 0.166  0.706 -0.383 -0.370 -0.302 -0.266 -0.266
 0.168  0.713 -0.377 -0.366 -0.300 -0.264 -0.264
 0.170  0.719 -0.371 -0.362 -0.297 -0.261 -0.261
 0.172  0.725 -0.366 -0.357 -0.294 -0.259 -0.259
 0.174  0.731 -0.360 -0.354 -0.291 -0.257 -0.257
 0.176  0.736 -0.354 -0.350 -0.289 -0.254 -0.254
 0.178  0.742 -0.348 -0.346 -0.285 -0.252 -0.252
 0.180  0.748 -0.342 -0.342 -0.283 -0.250 -0.250
 0.182  0.754 -0.337 -0.337 -0.280 -0.247 -0.247
 0.184  0.760 -0.331 -0.334 -0.278 -0.245 -0.245
 0.186  0.767 -0.325 -0.330 -0.275 -0.243 -0.243
 0.188  0.773 -0.318 -0.326 -0.272 -0.240 -0.240
 0.190  0.777 -0.312 -0.322 -0.269 -0.238 -0.238
 0.192  0.783 -0.306 -0.319 -0.266 -0.236 -0.236
 0.194  0.790 -0.300 -0.314 -0.264 -0.234 -0.234
 0.196  0.796 -0.295 -0.311 -0.261 -0.232 -0.232
 0.198  0.802 -0.289 -0.307 -0.259 -0.229 -0.229
 0.200  0.808 -0.283 -0.303 -0.256 -0.227 -0.227
 0.202  0.813 -0.277 -0.300 -0.254 -0.225 -0.225
 0.204  0.819 -0.271 -0.295 -0.251 -0.222 -0.222
 0.206  0.825 -0.264 -0.292 -0.248 -0.220 -0.220
 0.208  0.831 -0.258 -0.289 -0.246 -0.218 -0.218
 0.210  0.836 -0.253 -0.284 -0.243 -0.215 -0.215
 0.212  0.842 -0.247 -0.281 -0.242 -0.213 -0.213
 0.214  0.848 -0.240 -0.276 -0.239 -0.211 -0.211
 0.216  0.854 -0.234 -0.273 -0.236 -0.208 -0.208
 0.218  0.861 -0.228 -0.270 -0.234 -0.206 -0.206
 0.220  0.865 -0.222 -0.265 -0.231 -0.204 -0.204
 0.222  0.871 -0.215 -0.262 -0.230 -0.201 -0.201
 0.224  0.878 -0.209 -0.259 -0.227 -0.199 -0.199
 0.226  0.882 -0.203 -0.255 -0.224 -0.197 -0.197
 0.228  0.888 -0.198 -0.251 -0.223 -0.195 -0.195
 0.230  0.895 -0.192 -0.248 -0.220 -0.193 -0.193
 0.232  0.899 -0.186 -0.244 -0.218 -0.190 -0.190
 0.234  0.905 -0.180 -0.241 -0.216 -0.188 -0.188
 0.236  0.910 -0.175 -0.238 -0.213 -0.186 -0.186
 0.238  0.916 -0.169 -0.234 -0.211 -0.183 -0.183
 0.240  0.921 -0.163 -0.231 -0.209 -0.182 -0.182
 0.242  0.927 -0.157 -0.226 -0.207 -0.179 -0.179
 0.244  0.932 -0.151 -0.223 -0.204 -0.177 -0.177
 0.246  0.936 -0.146 -0.220 -0.202 -0.175 -0.175
 0.248  0.942 -0.141 -0.216 -0.200 -0.173 -0.173
 0.250  0.947 -0.135 -0.213 -0.197 -0.171 -0.171
 0.252  0.952 -0.130 -0.210 -0.195 -0.169 -0.169
 0.254  0.958 -0.125 -0.206 -0.193 -0.167 -0.167
 0.256  0.962 -0.120 -0.204 -0.191 -0.165 -0.165
 0.258  0.967 -0.114 -0.201 -0.189 -0.162 -0.162
 0.260  0.972 -0.109 -0.198 -0.186 -0.161 -0.161
 0.262  0.976 -0.104 -0.194 -0.184 -0.158 -0.158
 0.264  0.983 -0.099 -0.191 -0.182 -0.157 -0.157
 0.266  0.987 -0.095 -0.188 -0.179 -0.155 -0.155
 0.268  0.992 -0.089 -0.184 -0.177 -0.153 -0.153
 0.270  0.996 -0.085 -0.182 -0.175 -0.151 -0.151
 0.272  1.001 -0.080 -0.179 -0.173 -0.149 -0.149
 0.274  1.006 -0.075 -0.175 -0.171 -0.147 -0.147
 0.276  1.010 -0.070 -0.172 -0.169 -0.145 -0.145
 0.278  1.015 -0.066 -0.170 -0.166 -0.143 -0.143
 0.280  1.020 -0.062 -0.167 -0.164 -0.141 -0.141
 0.282  1.024 -0.057 -0.163 -0.162 -0.139 -0.139
 0.284  1.027 -0.053 -0.161 -0.159 -0.137 -0.137
 0.286  1.032 -0.049 -0.158 -0.158 -0.136 -0.136
 0.288  1.037 -0.044 -0.154 -0.155 -0.134 -0.134
 0.290  1.041 -0.040 -0.152 -0.153 -0.132 -0.132
 0.292  1.046 -0.036 -0.149 -0.151 -0.130 -0.130
 0.294  1.050 -0.031 -0.147 -0.149 -0.128 -0.128
 0.296  1.054 -0.027 -0.143 -0.147 -0.127 -0.127
 0.298  1.058 -0.023 -0.141 -0.144 -0.124 -0.124
 0.300  1.063 -0.018 -0.138 -0.142 -0.123 -0.123
 0.302  1.067 -0.014 -0.134 -0.140 -0.121 -0.121
 0.304  1.070 -0.011 -0.132 -0.138 -0.119 -0.119
 0.306  1.075 -0.007 -0.129 -0.135 -0.117 -0.117
 0.308  1.080 -0.002 -0.127 -0.134 -0.116 -0.116
 0.310  1.084  0.002 -0.123 -0.131 -0.113 -0.113
 0.312  1.087  0.006 -0.121 -0.129 -0.112 -0.112
 0.314  1.092  0.009 -0.118 -0.127 -0.110 -0.110
 0.316  1.097  0.014 -0.114 -0.124 -0.108 -0.108
 0.318  1.101  0.018 -0.112 -0.123 -0.106 -0.106
 0.320  1.104  0.022 -0.109 -0.120 -0.105 -0.105
 0.322  1.109  0.027 -0.107 -0.118 -0.102 -0.102
 0.324  1.114  0.031 -0.103 -0.116 -0.101 -0.101
 0.326  1.117  0.034 -0.100 -0.113 -0.099 -0.099
 0.328  1.121  0.038 -0.098 -0.111 -0.097 -0.097
 0.330  1.126  0.043 -0.094 -0.109 -0.095 -0.095
 0.332  1.131  0.047 -0.092 -0.107 -0.094 -0.094
 0.334  1.134  0.050 -0.089 -0.105 -0.092 -0.092
 0.336  1.138  0.054 -0.087 -0.102 -0.090 -0.090
 0.338  1.143  0.058 -0.083 -0.100 -0.088 -0.088
 0.340  1.146  0.063 -0.081 -0.098 -0.087 -0.087
 0.342  1.151  0.067 -0.078 -0.096 -0.085 -0.085
 0.344  1.154  0.070 -0.074 -0.093 -0.083 -0.083
 0.346  1.158  0.074 -0.072 -0.091 -0.081 -0.081
 0.348  1.163  0.079 -0.069 -0.089 -0.079 -0.079
 0.350  1.166  0.082 -0.067 -0.087 -0.078 -0.078
 0.352  1.171  0.086 -0.063 -0.084 -0.076 -0.076
 0.354  1.175  0.090 -0.061 -0.082 -0.074 -0.074
 0.356  1.179  0.095 -0.058 -0.080 -0.072 -0.072
 0.358  1.183  0.098 -0.054 -0.077 -0.070 -0.070
 0.360  1.186  0.102 -0.052 -0.076 -0.069 -0.069
 0.362  1.191  0.106 -0.049 -0.073 -0.067 -0.067
 0.364  1.195  0.109 -0.047 -0.070 -0.065 -0.065
 0.366  1.199  0.113 -0.043 -0.068 -0.063 -0.063
 0.368  1.203  0.118 -0.041 -0.066 -0.061 -0.061
 0.370  1.206  0.122 -0.038 -0.064 -0.060 -0.060
 0.372  1.211  0.125 -0.036 -0.061 -0.058 -0.058
 0.374  1.214  0.129 -0.032 -0.059 -0.056 -0.056
 0.376  1.219  0.134 -0.030 -0.057 -0.054 -0.054
 0.378  1.222  0.137 -0.027 -0.054 -0.052 -0.052
 0.380  1.226  0.141 -0.025 -0.052 -0.050 -0.050
 0.382  1.229  0.145 -0.021 -0.050 -0.049 -0.049
 0.384  1.234  0.150 -0.019 -0.048 -0.046 -0.046
 0.386  1.237  0.152 -0.016 -0.046 -0.045 -0.045
 0.388  1.242  0.157 -0.013 -0.043 -0.042 -0.042
 0.390  1.245  0.161 -0.010 -0.041 -0.041 -0.041
 0.392  1.249  0.166 -0.008 -0.039 -0.039 -0.039
 0.394  1.253  0.168 -0.005 -0.037 -0.037 -0.037
 0.396  1.257  0.173 -0.002 -0.034 -0.035 -0.035
 0.398  1.260  0.177  0.001 -0.032 -0.033 -0.033
 0.400  1.265  0.180  0.003 -0.030 -0.031 -0.031
 0.402  1.268  0.184  0.007 -0.028 -0.029 -0.029
 0.404  1.273  0.189  0.009 -0.026 -0.027 -0.027
 0.406  1.276  0.193  0.012 -0.023 -0.025 -0.025
 0.408  1.279  0.196  0.014 -0.022 -0.023 -0.023
 0.410  1.283  0.200  0.018 -0.019 -0.021 -0.021
 0.412  1.287  0.205  0.020 -0.017 -0.019 -0.019
 0.414  1.290  0.209  0.023 -0.015 -0.017 -0.017
 0.416  1.294  0.212  0.025 -0.013 -0.015 -0.015
 0.418  1.297  0.216  0.028 -0.010 -0.013 -0.013
 0.420  1.302  0.220  0.031 -0.009 -0.011 -0.011
 0.422  1.305  0.225  0.033 -0.007 -0.009 -0.009
 0.424  1.308  0.229  0.037 -0.004 -0.007 -0.007
 0.426  1.313  0.232  0.039 -0.003 -0.004 -0.004
 0.428  1.316  0.236  0.042 -0.000 -0.003 -0.003
 0.430  1.319  0.241  0.044  0.002 -0.000 -0.000
 0.432  1.322  0.245  0.047  0.003  0.002  0.002
 0.434  1.327  0.248  0.050  0.006  0.003  0.003
 0.436  1.330  0.252  0.052  0.008  0.006  0.006
 0.438  1.333  0.257  0.055  0.010  0.008  0.008
 0.440  1.336  0.261  0.058  0.012  0.010  0.010
 0.442  1.341  0.264  0.060  0.014  0.012  0.012
 0.444  1.344  0.268  0.063  0.016  0.014  0.014
 0.446  1.347  0.271  0.065  0.018  0.016  0.016
 0.448  1.350  0.275  0.068  0.020  0.018  0.018
 0.450  1.353  0.278  0.070  0.022  0.020  0.020
 0.452  1.356  0.283  0.073  0.024  0.022  0.022
 0.454  1.359  0.286  0.075  0.026  0.024  0.024
 0.456  1.362  0.289  0.078  0.028  0.026  0.026
 0.458  1.365  0.293  0.080  0.030  0.028  0.028
 0.460  1.368  0.296  0.083  0.032  0.030  0.030
 0.462  1.371  0.299  0.085  0.034  0.031  0.031
 0.464  1.374  0.302  0.088  0.036  0.033  0.033
 0.466  1.378  0.304  0.090  0.038  0.035  0.035
 0.468  1.381  0.307  0.092  0.039  0.037  0.037
 0.470  1.384  0.310  0.094  0.042  0.038  0.038
 0.472  1.387  0.313  0.098  0.044  0.041  0.041
 0.474  1.390  0.316  0.100  0.045  0.042  0.042
 0.476  1.393  0.319  0.102  0.048  0.044  0.044
 0.478  1.395  0.322  0.104  0.050  0.045  0.045
 0.480  1.398  0.323  0.106  0.051  0.048  0.048
 0.482  1.401  0.326  0.109  0.053  0.049  0.049
 0.484  1.404  0.329  0.111  0.056  0.051  0.051
 0.486  1.405  0.330  0.113  0.057  0.052  0.052
 0.488  1.408  0.333  0.115  0.059  0.054  0.054
 0.490  1.412  0.335  0.118  0.061  0.056  0.056
 0.492  1.413  0.338  0.120  0.063  0.057  0.057
 0.494  1.416  0.339  0.122  0.065  0.059  0.059
 0.496  1.419  0.341  0.124  0.067  0.060  0.060
 0.498  1.421  0.343  0.126  0.069  0.062  0.062
 0.500  1.424  0.345  0.129  0.071  0.063  0.063
 0.502  1.425  0.346  0.131  0.073  0.065  0.065
 0.504  1.428  0.348  0.133  0.075  0.066  0.066
 0.506  1.430  0.349  0.135  0.077  0.068  0.068
 0.508  1.433  0.351  0.136  0.079  0.070  0.070
 0.510  1.435  0.352  0.139  0.080  0.070  0.070
 0.512  1.438  0.354  0.141  0.082  0.072  0.072
 0.514  1.439  0.355  0.143  0.084  0.073  0.073
 0.516  1.441  0.357  0.144  0.086  0.075  0.075
 0.518  1.442  0.358  0.146  0.088  0.077  0.077
 0.520  1.445  0.359  0.149  0.090  0.077  0.077
 0.522  1.447  0.361  0.150  0.091  0.079  0.079
 0.524  1.449  0.362  0.152  0.092  0.080  0.080
 0.526  1.450  0.364  0.153  0.094  0.081  0.081
 0.528  1.452  0.365  0.155  0.096  0.083  0.083
 0.530  1.453  0.365  0.156  0.097  0.084  0.084
 0.532  1.455  0.367  0.159  0.099  0.085  0.085
 0.534  1.456  0.368  0.160  0.100  0.087  0.087
 0.536  1.458  0.370  0.162  0.102  0.087  0.087
 0.538  1.459  0.370  0.163  0.103  0.089  0.089
 0.540  1.461  0.371  0.164  0.103  0.090  0.090
 0.542  1.462  0.372  0.166  0.105  0.091  0.091
 0.544  1.464  0.372  0.167  0.106  0.092  0.092
 0.546  1.466  0.374  0.169  0.107  0.093  0.093
 0.548  1.467  0.374  0.170  0.109  0.095  0.095
 0.550  1.467  0.375  0.171  0.109  0.095  0.095
 0.552  1.469  0.375  0.173  0.110  0.097  0.097
 0.554  1.470  0.377  0.174  0.111  0.098  0.098
 0.556  1.470  0.377  0.175  0.112  0.098  0.098
 0.558  1.472  0.378  0.176  0.113  0.099  0.099
 0.560  1.472  0.378  0.177  0.114  0.101  0.101
 0.562  1.473  0.378  0.179  0.114  0.102  0.102
 0.564  1.473  0.380  0.180  0.115  0.102  0.102
 0.566  1.475  0.380  0.181  0.115  0.103  0.103
 0.568  1.475  0.380  0.182  0.116  0.104  0.104
 0.570  1.476  0.381  0.182  0.116  0.105  0.105
 0.572  1.476  0.381  0.183  0.117  0.106  0.106
 0.574  1.476  0.381  0.184  0.117  0.107  0.107
 0.576  1.478  0.381  0.185  0.117  0.108  0.108
 0.578  1.478  0.381  0.185  0.118  0.109  0.109
 0.580  1.478  0.383  0.186  0.118  0.109  0.109
 0.582  1.478  0.383  0.187  0.118  0.110  0.110
 0.584  1.479  0.383  0.187  0.119  0.111  0.111
 0.586  1.479  0.383  0.189  0.119  0.112  0.112
 0.588  1.479  0.383  0.189  0.119  0.112  0.112
 0.590  1.479  0.383  0.190  0.119  0.113  0.113
 0.592  1.479  0.383  0.190  0.120  0.114  0.114
 0.594  1.481  0.383  0.191  0.120  0.115  0.115
 0.596  1.481  0.383  0.191  0.120  0.115  0.115
 0.598  1.481  0.383  0.192  0.121  0.116  0.116
 0.600  1.481  0.383  0.192  0.121  0.116  0.116
 0.602  1.481  0.383  0.192  0.121  0.117  0.117
 0.604  1.481  0.383  0.192  0.121  0.118  0.118
 0.606  1.481  0.383  0.193  0.121  0.119  0.119
 0.608  1.481  0.383  0.193  0.121  0.119  0.119
 0.610  1.481  0.383  0.193  0.121  0.119  0.119
 0.612  1.481  0.383  0.193  0.122  0.120  0.120
 0.614  1.481  0.383  0.193  0.122  0.121  0.121
 0.616  1.481  0.383  0.193  0.123  0.121  0.121
 0.618  1.481  0.383  0.193  0.123  0.122  0.122
 0.620  1.481  0.383  0.193  0.123  0.123  0.123
 0.622  1.481  0.383  0.193  0.124  0.123  0.123
 0.624  1.481  0.383  0.193  0.124  0.123  0.123
 0.626  1.479  0.383  0.193  0.124  0.124  0.124
 0.628  1.479  0.383  0.192  0.125  0.124  0.124
 0.630  1.479  0.383  0.192  0.125  0.125  0.125
 0.632  1.479  0.383  0.192  0.126  0.126  0.126
 0.634  1.479  0.381  0.191  0.126  0.126  0.126
 0.636  1.478  0.381  0.191  0.127  0.126  0.126
 0.638  1.478  0.381  0.191  0.127  0.126  0.126
 0.640  1.478  0.381  0.190  0.127  0.127  0.127
 0.642  1.478  0.381  0.190  0.127  0.127  0.127
 0.644  1.476  0.381  0.189  0.127  0.128  0.128
 0.646  1.476  0.380  0.189  0.128  0.128  0.128
 0.648  1.476  0.380  0.187  0.128  0.129  0.129
 0.650  1.475  0.380  0.187  0.129  0.129  0.129
 0.652  1.475  0.380  0.186  0.129  0.130  0.130
 0.654  1.475  0.378  0.186  0.130  0.130  0.130
 0.656  1.475  0.378  0.185  0.130  0.130  0.130
 0.658  1.473  0.378  0.185  0.131  0.130  0.130
 0.660  1.473  0.378  0.185  0.131  0.130  0.130
 0.662  1.473  0.377  0.184  0.131  0.131  0.131
 0.664  1.472  0.377  0.184  0.132  0.131  0.131
 0.666  1.472  0.377  0.183  0.132  0.132  0.132
 0.668  1.472  0.375  0.183  0.132  0.132  0.132
 0.670  1.470  0.375  0.182  0.133  0.132  0.132
 0.672  1.470  0.375  0.182  0.133  0.133  0.133
 0.674  1.470  0.374  0.182  0.133  0.133  0.133
 0.676  1.469  0.374  0.181  0.133  0.133  0.133
 0.678  1.469  0.374  0.181  0.133  0.133  0.133
 0.680  1.469  0.372  0.181  0.133  0.134  0.134
 0.682  1.469  0.372  0.180  0.133  0.134  0.134
 0.684  1.467  0.371  0.180  0.133  0.135  0.135
 0.686  1.467  0.371  0.180  0.133  0.135  0.135
 0.688  1.467  0.371  0.180  0.133  0.135  0.135
 0.690  1.466  0.370  0.179  0.133  0.136  0.136
 0.692  1.466  0.370  0.179  0.133  0.136  0.136
 0.694  1.466  0.368  0.179  0.132  0.137  0.137
 0.696  1.464  0.368  0.179  0.132  0.137  0.137
 0.698  1.464  0.367  0.179  0.132  0.137  0.137
 0.700  1.464  0.367  0.177  0.132  0.137  0.137
 0.702  1.462  0.365  0.177  0.132  0.137  0.137
 0.704  1.462  0.365  0.177  0.131  0.138  0.138
 0.706  1.462  0.364  0.177  0.131  0.138  0.138
 0.708  1.462  0.364  0.177  0.130  0.139  0.139
 0.710  1.461  0.362  0.177  0.130  0.139  0.139
 0.712  1.461  0.362  0.177  0.129  0.140  0.140
 0.714  1.461  0.361  0.176  0.129  0.140  0.140
 0.716  1.459  0.361  0.176  0.128  0.140  0.140
 0.718  1.459  0.359  0.176  0.127  0.140  0.140
 0.720  1.459  0.358  0.176  0.127  0.140  0.140
 0.722  1.459  0.358  0.176  0.127  0.141  0.141
 0.724  1.458  0.357  0.176  0.126  0.141  0.141
 0.726  1.458  0.357  0.176  0.126  0.142  0.142
 0.728  1.458  0.355  0.176  0.125  0.143  0.143
 0.730  1.458  0.355  0.176  0.125  0.143  0.143
 0.732  1.456  0.355  0.176  0.125  0.144  0.144
 0.734  1.456  0.355  0.176  0.125  0.144  0.144
 0.736  1.456  0.354  0.176  0.125  0.145  0.145
 0.738  1.456  0.354  0.176  0.125  0.146  0.146
 0.740  1.455  0.354  0.176  0.125  0.147  0.147
 0.742  1.455  0.354  0.175  0.126  0.147  0.147
 0.744  1.455  0.354  0.175  0.127  0.149  0.149
 0.746  1.455  0.354  0.175  0.127  0.150  0.150
 0.748  1.455  0.354  0.175  0.127  0.151  0.151
 0.750  1.455  0.355  0.175  0.128  0.152  0.152
 0.752  1.453  0.355  0.175  0.130  0.153  0.153
 0.754  1.453  0.355  0.175  0.131  0.154  0.154
 0.756  1.453  0.355  0.175  0.133  0.155  0.155
 0.758  1.453  0.357  0.175  0.133  0.157  0.157
 0.760  1.453  0.357  0.175  0.135  0.158  0.158
 0.762  1.453  0.358  0.175  0.137  0.159  0.159
 0.764  1.453  0.358  0.175  0.139  0.161  0.161
 0.766  1.453  0.359  0.175  0.141  0.162  0.162
 0.768  1.453  0.361  0.175  0.143  0.164  0.164
 0.770  1.453  0.361  0.175  0.145  0.165  0.165
 0.772  1.453  0.362  0.175  0.148  0.167  0.167
 0.774  1.453  0.364  0.175  0.151  0.168  0.168
 0.776  1.452  0.365  0.175  0.153  0.170  0.170
 0.778  1.452  0.367  0.175  0.157  0.172  0.172
 0.780  1.452  0.368  0.174  0.159  0.174  0.174
 0.782  1.452  0.370  0.174  0.163  0.176  0.176
 0.784  1.452  0.371  0.174  0.166  0.178  0.178
 0.786  1.452  0.374  0.175  0.169  0.180  0.180
 0.788  1.452  0.375  0.175  0.173  0.182  0.182
 0.790  1.453  0.377  0.175  0.176  0.184  0.184
 0.792  1.453  0.378  0.175  0.180  0.186  0.186
 0.794  1.455  0.381  0.176  0.184  0.188  0.188
 0.796  1.455  0.383  0.177  0.187  0.190  0.190
 0.798  1.456  0.384  0.177  0.191  0.192  0.192
 0.800  1.458  0.387  0.180  0.195  0.194  0.194
 0.802  1.459  0.388  0.181  0.198  0.196  0.196
 0.804  1.461  0.390  0.182  0.202  0.199  0.199
 0.806  1.462  0.393  0.184  0.205  0.200  0.200
 0.808  1.466  0.394  0.185  0.209  0.203  0.203
