# IsPeriodic    : True
# Period        : 0.480919 days
# Normalization : <g_mag>=0
# 
# Phase u_mag  g_mag  r_mag  i_mag  z_mag  y_mag
 0.000  0.324 -0.703 -0.594 -0.513 -0.485 -0.485
 0.002  0.324 -0.703 -0.594 -0.513 -0.485 -0.485
 0.004  0.326 -0.702 -0.594 -0.513 -0.484 -0.484
 0.006  0.329 -0.702 -0.594 -0.512 -0.484 -0.484
 0.008  0.332 -0.700 -0.593 -0.512 -0.483 -0.483
 0.010  0.336 -0.699 -0.591 -0.511 -0.483 -0.483
 0.012  0.341 -0.698 -0.590 -0.510 -0.482 -0.482
 0.014  0.347 -0.697 -0.589 -0.510 -0.481 -0.481
 0.016  0.353 -0.694 -0.588 -0.509 -0.481 -0.481
 0.018  0.360 -0.692 -0.586 -0.508 -0.479 -0.479
 0.020  0.367 -0.690 -0.584 -0.507 -0.478 -0.478
 0.022  0.375 -0.687 -0.583 -0.505 -0.477 -0.477
 0.024  0.381 -0.685 -0.580 -0.504 -0.476 -0.476
 0.026  0.389 -0.682 -0.579 -0.503 -0.474 -0.474
 0.028  0.397 -0.678 -0.577 -0.501 -0.473 -0.473
 0.030  0.403 -0.674 -0.575 -0.500 -0.471 -0.471
 0.032  0.411 -0.671 -0.572 -0.497 -0.469 -0.469
 0.034  0.417 -0.666 -0.570 -0.495 -0.467 -0.467
 0.036  0.424 -0.661 -0.568 -0.493 -0.465 -0.465
 0.038  0.431 -0.658 -0.565 -0.491 -0.463 -0.463
 0.040  0.437 -0.652 -0.563 -0.489 -0.460 -0.460
 0.042  0.445 -0.647 -0.560 -0.487 -0.458 -0.458
 0.044  0.451 -0.641 -0.557 -0.485 -0.455 -0.455
 0.046  0.458 -0.635 -0.555 -0.482 -0.452 -0.452
 0.048  0.464 -0.630 -0.552 -0.479 -0.449 -0.449
 0.050  0.471 -0.624 -0.549 -0.477 -0.446 -0.446
 0.052  0.478 -0.618 -0.546 -0.474 -0.443 -0.443
 0.054  0.484 -0.611 -0.543 -0.472 -0.440 -0.440
 0.056  0.492 -0.604 -0.540 -0.469 -0.437 -0.437
 0.058  0.498 -0.598 -0.536 -0.466 -0.434 -0.434
 0.060  0.505 -0.591 -0.533 -0.464 -0.431 -0.431
 0.062  0.512 -0.584 -0.530 -0.461 -0.428 -0.428
 0.064  0.518 -0.576 -0.526 -0.458 -0.425 -0.425
 0.066  0.525 -0.569 -0.522 -0.456 -0.421 -0.421
 0.068  0.531 -0.563 -0.518 -0.453 -0.419 -0.419
 0.070  0.538 -0.556 -0.514 -0.451 -0.416 -0.416
 0.072  0.544 -0.551 -0.511 -0.448 -0.414 -0.414
 0.074  0.551 -0.543 -0.506 -0.446 -0.411 -0.411
 0.076  0.558 -0.538 -0.502 -0.443 -0.408 -0.408
 0.078  0.564 -0.530 -0.498 -0.441 -0.406 -0.406
 0.080  0.571 -0.525 -0.493 -0.438 -0.403 -0.403
 0.082  0.576 -0.517 -0.489 -0.436 -0.401 -0.401
 0.084  0.583 -0.512 -0.485 -0.434 -0.398 -0.398
 0.086  0.589 -0.506 -0.481 -0.432 -0.396 -0.396
 0.088  0.596 -0.500 -0.477 -0.430 -0.394 -0.394
 0.090  0.601 -0.493 -0.472 -0.428 -0.392 -0.392
 0.092  0.608 -0.487 -0.467 -0.426 -0.390 -0.390
 0.094  0.615 -0.481 -0.463 -0.423 -0.388 -0.388
 0.096  0.620 -0.475 -0.459 -0.421 -0.385 -0.385
 0.098  0.627 -0.469 -0.455 -0.419 -0.384 -0.384
 0.100  0.632 -0.463 -0.451 -0.417 -0.381 -0.381
 0.102  0.639 -0.457 -0.448 -0.415 -0.380 -0.380
 0.104  0.644 -0.451 -0.443 -0.413 -0.378 -0.378
 0.106  0.650 -0.445 -0.439 -0.410 -0.376 -0.376
 0.108  0.656 -0.441 -0.435 -0.409 -0.375 -0.375
 0.110  0.662 -0.435 -0.432 -0.407 -0.373 -0.373
 0.112  0.667 -0.429 -0.428 -0.405 -0.372 -0.372
 0.114  0.673 -0.423 -0.424 -0.403 -0.370 -0.370
 0.116  0.678 -0.418 -0.421 -0.401 -0.369 -0.369
 0.118  0.684 -0.412 -0.418 -0.399 -0.368 -0.368
 0.120  0.689 -0.408 -0.414 -0.397 -0.367 -0.367
 0.122  0.694 -0.402 -0.410 -0.395 -0.365 -0.365
 0.124  0.699 -0.397 -0.407 -0.394 -0.364 -0.364
 0.126  0.704 -0.391 -0.404 -0.392 -0.363 -0.363
 0.128  0.710 -0.386 -0.400 -0.390 -0.362 -0.362
 0.130  0.714 -0.381 -0.398 -0.388 -0.361 -0.361
 0.132  0.720 -0.376 -0.394 -0.386 -0.360 -0.360
 0.134  0.724 -0.371 -0.391 -0.384 -0.358 -0.358
 0.136  0.730 -0.365 -0.388 -0.382 -0.357 -0.357
 0.138  0.734 -0.361 -0.385 -0.380 -0.356 -0.356
 0.140  0.739 -0.356 -0.382 -0.378 -0.355 -0.355
 0.142  0.744 -0.350 -0.380 -0.376 -0.354 -0.354
 0.144  0.748 -0.345 -0.376 -0.374 -0.352 -0.352
 0.146  0.753 -0.340 -0.374 -0.372 -0.351 -0.351
 0.148  0.757 -0.336 -0.371 -0.370 -0.350 -0.350
 0.150  0.761 -0.330 -0.369 -0.368 -0.349 -0.349
 0.152  0.766 -0.325 -0.366 -0.366 -0.347 -0.347
 0.154  0.770 -0.320 -0.363 -0.364 -0.346 -0.346
 0.156  0.774 -0.316 -0.360 -0.361 -0.345 -0.345
 0.158  0.779 -0.311 -0.358 -0.359 -0.343 -0.343
 0.160  0.783 -0.305 -0.355 -0.357 -0.342 -0.342
 0.162  0.786 -0.300 -0.353 -0.355 -0.340 -0.340
 0.164  0.791 -0.296 -0.351 -0.353 -0.339 -0.339
 0.166  0.795 -0.291 -0.348 -0.351 -0.338 -0.338
 0.168  0.800 -0.286 -0.346 -0.348 -0.336 -0.336
 0.170  0.803 -0.281 -0.343 -0.346 -0.335 -0.335
 0.172  0.807 -0.277 -0.341 -0.344 -0.333 -0.333
 0.174  0.812 -0.272 -0.338 -0.342 -0.331 -0.331
 0.176  0.816 -0.267 -0.336 -0.339 -0.330 -0.330
 0.178  0.819 -0.261 -0.333 -0.337 -0.329 -0.329
 0.180  0.824 -0.257 -0.331 -0.335 -0.327 -0.327
 0.182  0.828 -0.252 -0.328 -0.333 -0.326 -0.326
 0.184  0.831 -0.247 -0.325 -0.330 -0.324 -0.324
 0.186  0.836 -0.242 -0.322 -0.328 -0.322 -0.322
 0.188  0.840 -0.238 -0.320 -0.325 -0.321 -0.321
 0.190  0.843 -0.233 -0.317 -0.323 -0.319 -0.319
 0.192  0.848 -0.228 -0.314 -0.321 -0.317 -0.317
 0.194  0.851 -0.225 -0.312 -0.318 -0.316 -0.316
 0.196  0.855 -0.220 -0.309 -0.316 -0.314 -0.314
 0.198  0.860 -0.215 -0.307 -0.314 -0.312 -0.312
 0.200  0.863 -0.211 -0.303 -0.312 -0.311 -0.311
 0.202  0.868 -0.206 -0.301 -0.310 -0.309 -0.309
 0.204  0.871 -0.201 -0.298 -0.307 -0.307 -0.307
 0.206  0.875 -0.196 -0.296 -0.305 -0.305 -0.305
 0.208  0.880 -0.192 -0.292 -0.302 -0.304 -0.304
 0.210  0.883 -0.187 -0.290 -0.300 -0.302 -0.302
 0.212  0.887 -0.183 -0.287 -0.298 -0.300 -0.300
 0.214  0.891 -0.179 -0.284 -0.296 -0.299 -0.299
 0.216  0.895 -0.174 -0.282 -0.294 -0.298 -0.298
 0.218  0.898 -0.169 -0.278 -0.292 -0.296 -0.296
 0.220  0.903 -0.166 -0.276 -0.290 -0.294 -0.294
 0.222  0.906 -0.161 -0.273 -0.288 -0.293 -0.293
 0.224  0.910 -0.156 -0.270 -0.286 -0.291 -0.291
 0.226  0.914 -0.153 -0.267 -0.284 -0.290 -0.290
 0.228  0.918 -0.148 -0.264 -0.282 -0.288 -0.288
 0.230  0.921 -0.143 -0.261 -0.280 -0.287 -0.287
 0.232  0.926 -0.140 -0.258 -0.278 -0.285 -0.285
 0.234  0.929 -0.135 -0.256 -0.276 -0.284 -0.284
 0.236  0.932 -0.132 -0.253 -0.274 -0.282 -0.282
 0.238  0.937 -0.127 -0.250 -0.272 -0.281 -0.281
 0.240  0.940 -0.123 -0.247 -0.271 -0.280 -0.280
 0.242  0.943 -0.119 -0.244 -0.269 -0.278 -0.278
 0.244  0.947 -0.115 -0.241 -0.266 -0.277 -0.277
 0.246  0.951 -0.110 -0.238 -0.265 -0.275 -0.275
 0.248  0.954 -0.107 -0.235 -0.264 -0.274 -0.274
 0.250  0.957 -0.102 -0.233 -0.261 -0.273 -0.273
 0.252  0.961 -0.099 -0.229 -0.260 -0.271 -0.271
 0.254  0.964 -0.094 -0.227 -0.258 -0.270 -0.270
 0.256  0.967 -0.090 -0.224 -0.256 -0.268 -0.268
 0.258  0.970 -0.087 -0.221 -0.255 -0.267 -0.267
 0.260  0.974 -0.082 -0.219 -0.253 -0.266 -0.266
 0.262  0.977 -0.078 -0.215 -0.251 -0.265 -0.265
 0.264  0.980 -0.075 -0.213 -0.250 -0.263 -0.263
 0.266  0.984 -0.070 -0.210 -0.248 -0.262 -0.262
 0.268  0.987 -0.067 -0.207 -0.246 -0.261 -0.261
 0.270  0.989 -0.063 -0.204 -0.245 -0.260 -0.260
 0.272  0.992 -0.060 -0.201 -0.243 -0.258 -0.258
 0.274  0.996 -0.055 -0.199 -0.241 -0.257 -0.257
 0.276  0.999 -0.051 -0.196 -0.239 -0.256 -0.256
 0.278  1.001 -0.048 -0.193 -0.237 -0.255 -0.255
 0.280  1.004 -0.044 -0.190 -0.235 -0.254 -0.254
 0.282  1.007 -0.040 -0.187 -0.233 -0.252 -0.252
 0.284  1.010 -0.036 -0.185 -0.231 -0.251 -0.251
 0.286  1.013 -0.032 -0.182 -0.229 -0.250 -0.250
 0.288  1.015 -0.029 -0.179 -0.227 -0.249 -0.249
 0.290  1.018 -0.025 -0.176 -0.225 -0.247 -0.247
 0.292  1.021 -0.022 -0.173 -0.222 -0.246 -0.246
 0.294  1.023 -0.017 -0.170 -0.220 -0.245 -0.245
 0.296  1.025 -0.014 -0.168 -0.217 -0.244 -0.244
 0.298  1.029 -0.010 -0.165 -0.215 -0.242 -0.242
 0.300  1.031 -0.006 -0.162 -0.212 -0.241 -0.241
 0.302  1.033 -0.003 -0.160 -0.210 -0.240 -0.240
 0.304  1.036  0.001 -0.156 -0.207 -0.238 -0.238
 0.306  1.038  0.005 -0.154 -0.205 -0.237 -0.237
 0.308  1.041  0.009 -0.151 -0.202 -0.236 -0.236
 0.310  1.043  0.012 -0.149 -0.199 -0.235 -0.235
 0.312  1.046  0.016 -0.146 -0.197 -0.233 -0.233
 0.314  1.048  0.020 -0.143 -0.194 -0.232 -0.232
 0.316  1.050  0.023 -0.141 -0.192 -0.231 -0.231
 0.318  1.054  0.027 -0.138 -0.189 -0.229 -0.229
 0.320  1.056  0.030 -0.136 -0.186 -0.228 -0.228
 0.322  1.058  0.035 -0.132 -0.183 -0.227 -0.227
 0.324  1.061  0.038 -0.130 -0.180 -0.225 -0.225
 0.326  1.064  0.042 -0.127 -0.176 -0.224 -0.224
 0.328  1.067  0.045 -0.125 -0.174 -0.223 -0.223
 0.330  1.069  0.049 -0.122 -0.171 -0.221 -0.221
 0.332  1.072  0.053 -0.120 -0.168 -0.220 -0.220
 0.334  1.075  0.056 -0.117 -0.164 -0.219 -0.219
 0.336  1.077  0.060 -0.115 -0.161 -0.217 -0.217
 0.338  1.080  0.063 -0.112 -0.158 -0.216 -0.216
 0.340  1.083  0.067 -0.110 -0.155 -0.214 -0.214
 0.342  1.085  0.070 -0.107 -0.152 -0.213 -0.213
 0.344  1.089  0.074 -0.105 -0.149 -0.212 -0.212
 0.346  1.091  0.077 -0.102 -0.146 -0.210 -0.210
 0.348  1.094  0.081 -0.100 -0.143 -0.209 -0.209
 0.350  1.096  0.084 -0.097 -0.140 -0.207 -0.207
 0.352  1.100  0.088 -0.095 -0.137 -0.206 -0.206
 0.354  1.103  0.091 -0.092 -0.135 -0.205 -0.205
 0.356  1.105  0.095 -0.090 -0.132 -0.204 -0.204
 0.358  1.108  0.099 -0.088 -0.129 -0.202 -0.202
 0.360  1.112  0.102 -0.086 -0.127 -0.201 -0.201
 0.362  1.115  0.106 -0.083 -0.124 -0.200 -0.200
 0.364  1.117  0.109 -0.081 -0.121 -0.198 -0.198
 0.366  1.120  0.113 -0.078 -0.119 -0.197 -0.197
 0.368  1.124  0.116 -0.076 -0.117 -0.195 -0.195
 0.370  1.127  0.120 -0.074 -0.114 -0.194 -0.194
 0.372  1.129  0.123 -0.072 -0.112 -0.192 -0.192
 0.374  1.133  0.126 -0.069 -0.109 -0.191 -0.191
 0.376  1.136  0.129 -0.068 -0.107 -0.189 -0.189
 0.378  1.139  0.133 -0.065 -0.104 -0.188 -0.188
 0.380  1.142  0.136 -0.063 -0.102 -0.187 -0.187
 0.382  1.145  0.140 -0.061 -0.100 -0.185 -0.185
 0.384  1.148  0.142 -0.058 -0.098 -0.184 -0.184
 0.386  1.151  0.146 -0.056 -0.096 -0.182 -0.182
 0.388  1.153  0.149 -0.054 -0.094 -0.181 -0.181
 0.390  1.157  0.153 -0.052 -0.092 -0.179 -0.179
 0.392  1.160  0.156 -0.050 -0.090 -0.178 -0.178
 0.394  1.162  0.159 -0.048 -0.088 -0.177 -0.177
 0.396  1.165  0.162 -0.045 -0.086 -0.175 -0.175
 0.398  1.168  0.166 -0.043 -0.084 -0.174 -0.174
 0.400  1.171  0.168 -0.041 -0.083 -0.172 -0.172
 0.402  1.173  0.172 -0.039 -0.081 -0.170 -0.170
 0.404  1.176  0.175 -0.038 -0.079 -0.169 -0.169
 0.406  1.179  0.178 -0.035 -0.078 -0.168 -0.168
 0.408  1.182  0.181 -0.034 -0.076 -0.166 -0.166
 0.410  1.184  0.185 -0.031 -0.074 -0.165 -0.165
 0.412  1.187  0.187 -0.029 -0.073 -0.163 -0.163
 0.414  1.189  0.191 -0.027 -0.071 -0.161 -0.161
 0.416  1.192  0.193 -0.025 -0.069 -0.160 -0.160
 0.418  1.195  0.197 -0.024 -0.068 -0.159 -0.159
 0.420  1.197  0.200 -0.021 -0.066 -0.157 -0.157
 0.422  1.199  0.202 -0.019 -0.064 -0.156 -0.156
 0.424  1.202  0.205 -0.018 -0.063 -0.154 -0.154
 0.426  1.205  0.208 -0.016 -0.061 -0.153 -0.153
 0.428  1.207  0.211 -0.014 -0.059 -0.151 -0.151
 0.430  1.209  0.214 -0.012 -0.058 -0.150 -0.150
 0.432  1.211  0.217 -0.010 -0.055 -0.148 -0.148
 0.434  1.214  0.219 -0.009 -0.054 -0.147 -0.147
 0.436  1.216  0.221 -0.006 -0.053 -0.146 -0.146
 0.438  1.218  0.225 -0.005 -0.050 -0.144 -0.144
 0.440  1.220  0.227 -0.003 -0.049 -0.143 -0.143
 0.442  1.222  0.230 -0.001 -0.047 -0.142 -0.142
 0.444  1.225  0.232  0.000 -0.045 -0.140 -0.140
 0.446  1.227  0.234  0.002 -0.043 -0.139 -0.139
 0.448  1.229  0.237  0.004 -0.042 -0.138 -0.138
 0.450  1.231  0.239  0.005 -0.040 -0.137 -0.137
 0.452  1.233  0.241  0.007 -0.038 -0.135 -0.135
 0.454  1.235  0.244  0.010 -0.037 -0.134 -0.134
 0.456  1.238  0.246  0.011 -0.035 -0.133 -0.133
 0.458  1.240  0.248  0.013 -0.033 -0.131 -0.131
 0.460  1.242  0.251  0.015 -0.031 -0.130 -0.130
 0.462  1.244  0.253  0.016 -0.030 -0.129 -0.129
 0.464  1.245  0.254  0.018 -0.027 -0.128 -0.128
 0.466  1.248  0.257  0.020 -0.025 -0.126 -0.126
 0.468  1.250  0.259  0.021 -0.024 -0.125 -0.125
 0.470  1.252  0.261  0.023 -0.022 -0.124 -0.124
 0.472  1.253  0.263  0.024 -0.020 -0.123 -0.123
 0.474  1.255  0.265  0.025 -0.018 -0.122 -0.122
 0.476  1.257  0.266  0.027 -0.017 -0.121 -0.121
 0.478  1.260  0.269  0.029 -0.014 -0.120 -0.120
 0.480  1.261  0.270  0.030 -0.013 -0.119 -0.119
 0.482  1.263  0.272  0.032 -0.011 -0.117 -0.117
 0.484  1.265  0.273  0.034 -0.009 -0.116 -0.116
 0.486  1.266  0.276  0.035 -0.007 -0.115 -0.115
 0.488  1.268  0.277  0.037 -0.006 -0.114 -0.114
 0.490  1.269  0.279  0.038 -0.004 -0.113 -0.113
 0.492  1.272  0.280  0.039 -0.002 -0.112 -0.112
 0.494  1.273  0.282  0.041 -0.001 -0.111 -0.111
 0.496  1.275  0.284  0.043  0.001 -0.110 -0.110
 0.498  1.277  0.285  0.044  0.002 -0.109 -0.109
 0.500  1.278  0.286  0.045  0.004 -0.108 -0.108
 0.502  1.280  0.287  0.047  0.006 -0.107 -0.107
 0.504  1.281  0.289  0.049  0.007 -0.106 -0.106
 0.506  1.283  0.291  0.050  0.009 -0.105 -0.105
 0.508  1.285  0.292  0.051  0.010 -0.104 -0.104
 0.510  1.286  0.293  0.053  0.011 -0.103 -0.103
 0.512  1.288  0.294  0.054  0.013 -0.102 -0.102
 0.514  1.289  0.296  0.055  0.014 -0.101 -0.101
 0.516  1.290  0.297  0.057  0.015 -0.100 -0.100
 0.518  1.292  0.298  0.059  0.017 -0.099 -0.099
 0.520  1.294  0.299  0.059  0.018 -0.098 -0.098
 0.522  1.295  0.300  0.061  0.019 -0.097 -0.097
 0.524  1.296  0.302  0.062  0.020 -0.097 -0.097
 0.526  1.298  0.303  0.064  0.022 -0.095 -0.095
 0.528  1.299  0.304  0.064  0.023 -0.095 -0.095
 0.530  1.300  0.305  0.065  0.024 -0.094 -0.094
 0.532  1.301  0.306  0.067  0.025 -0.093 -0.093
 0.534  1.302  0.307  0.068  0.026 -0.092 -0.092
 0.536  1.302  0.309  0.069  0.027 -0.091 -0.091
 0.538  1.303  0.309  0.070  0.028 -0.091 -0.091
 0.540  1.304  0.310  0.071  0.029 -0.090 -0.090
 0.542  1.306  0.311  0.072  0.030 -0.089 -0.089
 0.544  1.306  0.312  0.073  0.031 -0.088 -0.088
 0.546  1.307  0.312  0.073  0.032 -0.088 -0.088
 0.548  1.308  0.313  0.074  0.032 -0.087 -0.087
 0.550  1.308  0.315  0.075  0.034 -0.086 -0.086
 0.552  1.309  0.315  0.076  0.035 -0.085 -0.085
 0.554  1.309  0.316  0.077  0.035 -0.085 -0.085
 0.556  1.309  0.317  0.078  0.037 -0.084 -0.084
 0.558  1.310  0.317  0.078  0.037 -0.083 -0.083
 0.560  1.310  0.318  0.079  0.039 -0.082 -0.082
 0.562  1.310  0.318  0.080  0.040 -0.082 -0.082
 0.564  1.311  0.319  0.081  0.040 -0.081 -0.081
 0.566  1.311  0.319  0.082  0.042 -0.081 -0.081
 0.568  1.311  0.320  0.082  0.043 -0.080 -0.080
 0.570  1.311  0.320  0.083  0.044 -0.079 -0.079
 0.572  1.311  0.322  0.083  0.045 -0.079 -0.079
 0.574  1.311  0.322  0.083  0.046 -0.078 -0.078
 0.576  1.311  0.322  0.084  0.047 -0.077 -0.077
 0.578  1.310  0.323  0.084  0.049 -0.076 -0.076
 0.580  1.310  0.323  0.085  0.050 -0.076 -0.076
 0.582  1.310  0.324  0.085  0.051 -0.075 -0.075
 0.584  1.310  0.324  0.086  0.052 -0.075 -0.075
 0.586  1.309  0.324  0.086  0.054 -0.073 -0.073
 0.588  1.309  0.325  0.087  0.055 -0.073 -0.073
 0.590  1.309  0.325  0.087  0.057 -0.072 -0.072
 0.592  1.308  0.325  0.088  0.058 -0.072 -0.072
 0.594  1.308  0.325  0.088  0.060 -0.071 -0.071
 0.596  1.308  0.326  0.088  0.061 -0.070 -0.070
 0.598  1.307  0.326  0.088  0.063 -0.070 -0.070
 0.600  1.307  0.326  0.089  0.064 -0.069 -0.069
 0.602  1.307  0.326  0.089  0.066 -0.068 -0.068
 0.604  1.306  0.326  0.090  0.068 -0.068 -0.068
 0.606  1.306  0.328  0.090  0.069 -0.067 -0.067
 0.608  1.306  0.328  0.091  0.070 -0.066 -0.066
 0.610  1.304  0.328  0.091  0.073 -0.066 -0.066
 0.612  1.304  0.328  0.092  0.074 -0.065 -0.065
 0.614  1.304  0.328  0.092  0.076 -0.064 -0.064
 0.616  1.304  0.328  0.093  0.078 -0.064 -0.064
 0.618  1.303  0.328  0.093  0.079 -0.063 -0.063
 0.620  1.303  0.328  0.093  0.081 -0.063 -0.063
 0.622  1.303  0.328  0.094  0.083 -0.062 -0.062
 0.624  1.303  0.328  0.094  0.084 -0.061 -0.061
 0.626  1.303  0.328  0.095  0.086 -0.061 -0.061
 0.628  1.302  0.328  0.096  0.088 -0.060 -0.060
 0.630  1.302  0.328  0.096  0.090 -0.059 -0.059
 0.632  1.302  0.328  0.097  0.091 -0.059 -0.059
 0.634  1.302  0.328  0.098  0.093 -0.058 -0.058
 0.636  1.302  0.328  0.098  0.095 -0.058 -0.058
 0.638  1.302  0.329  0.098  0.096 -0.057 -0.057
 0.640  1.302  0.329  0.098  0.098 -0.057 -0.057
 0.642  1.302  0.329  0.099  0.099 -0.056 -0.056
 0.644  1.302  0.329  0.100  0.101 -0.055 -0.055
 0.646  1.301  0.330  0.101  0.103 -0.055 -0.055
 0.648  1.301  0.330  0.101  0.104 -0.054 -0.054
 0.650  1.301  0.331  0.102  0.106 -0.054 -0.054
 0.652  1.301  0.331  0.103  0.107 -0.053 -0.053
 0.654  1.301  0.332  0.103  0.109 -0.053 -0.053
 0.656  1.301  0.332  0.103  0.110 -0.053 -0.053
 0.658  1.301  0.333  0.104  0.112 -0.052 -0.052
 0.660  1.301  0.335  0.105  0.113 -0.052 -0.052
 0.662  1.301  0.335  0.106  0.114 -0.051 -0.051
 0.664  1.302  0.336  0.107  0.116 -0.051 -0.051
 0.666  1.302  0.337  0.108  0.117 -0.050 -0.050
 0.668  1.302  0.338  0.109  0.119 -0.050 -0.050
 0.670  1.301  0.339  0.111  0.120 -0.049 -0.049
 0.672  1.301  0.341  0.112  0.121 -0.049 -0.049
 0.674  1.301  0.342  0.113  0.122 -0.049 -0.049
 0.676  1.301  0.343  0.116  0.124 -0.049 -0.049
 0.678  1.301  0.344  0.117  0.125 -0.048 -0.048
 0.680  1.301  0.345  0.119  0.126 -0.048 -0.048
 0.682  1.301  0.346  0.122  0.127 -0.048 -0.048
 0.684  1.301  0.349  0.123  0.129 -0.047 -0.047
 0.686  1.301  0.350  0.126  0.130 -0.047 -0.047
 0.688  1.300  0.351  0.128  0.131 -0.046 -0.046
 0.690  1.300  0.353  0.131  0.132 -0.046 -0.046
 0.692  1.300  0.355  0.133  0.133 -0.046 -0.046
 0.694  1.300  0.357  0.136  0.135 -0.046 -0.046
 0.696  1.300  0.358  0.138  0.136 -0.045 -0.045
 0.698  1.300  0.361  0.141  0.137 -0.045 -0.045
 0.700  1.299  0.362  0.144  0.138 -0.045 -0.045
 0.702  1.299  0.364  0.147  0.140 -0.045 -0.045
 0.704  1.299  0.365  0.150  0.141 -0.044 -0.044
 0.706  1.299  0.368  0.153  0.142 -0.044 -0.044
 0.708  1.298  0.370  0.156  0.144 -0.044 -0.044
 0.710  1.298  0.372  0.161  0.145 -0.043 -0.043
 0.712  1.298  0.375  0.164  0.147 -0.043 -0.043
 0.714  1.297  0.377  0.168  0.149 -0.042 -0.042
 0.716  1.297  0.379  0.172  0.150 -0.041 -0.041
 0.718  1.296  0.382  0.176  0.152 -0.040 -0.040
 0.720  1.296  0.384  0.181  0.154 -0.040 -0.040
 0.722  1.296  0.387  0.185  0.155 -0.039 -0.039
 0.724  1.295  0.390  0.189  0.158 -0.038 -0.038
 0.726  1.295  0.392  0.193  0.159 -0.037 -0.037
 0.728  1.295  0.395  0.197  0.161 -0.036 -0.036
 0.730  1.294  0.397  0.201  0.163 -0.035 -0.035
 0.732  1.294  0.401  0.205  0.165 -0.034 -0.034
 0.734  1.294  0.403  0.208  0.167 -0.033 -0.033
 0.736  1.294  0.405  0.212  0.169 -0.032 -0.032
 0.738  1.294  0.409  0.215  0.171 -0.031 -0.031
 0.740  1.294  0.411  0.218  0.173 -0.030 -0.030
 0.742  1.294  0.415  0.220  0.175 -0.028 -0.028
 0.744  1.295  0.417  0.224  0.177 -0.027 -0.027
 0.746  1.296  0.421  0.225  0.179 -0.026 -0.026
 0.748  1.296  0.424  0.228  0.181 -0.024 -0.024
 0.750  1.297  0.427  0.229  0.184 -0.023 -0.023
 0.752  1.298  0.430  0.231  0.186 -0.022 -0.022
 0.754  1.300  0.435  0.233  0.189 -0.021 -0.021
 0.756  1.301  0.438  0.234  0.191 -0.019 -0.019
 0.758  1.303  0.442  0.234  0.194 -0.017 -0.017
 0.760  1.306  0.446  0.235  0.196 -0.015 -0.015
 0.762  1.308  0.449  0.235  0.199 -0.014 -0.014
 0.764  1.310  0.454  0.235  0.201 -0.012 -0.012
 0.766  1.312  0.457  0.235  0.203 -0.010 -0.010
 0.768  1.315  0.460  0.234  0.204 -0.009 -0.009
 0.770  1.319  0.463  0.234  0.206 -0.006 -0.006
 0.772  1.321  0.467  0.234  0.207 -0.005 -0.005
 0.774  1.324  0.469  0.232  0.207 -0.003 -0.003
 0.776  1.327  0.472  0.231  0.207 -0.001 -0.001
 0.778  1.331  0.474  0.229  0.207  0.001  0.001
 0.780  1.334  0.475  0.228  0.207  0.003  0.003
 0.782  1.338  0.476  0.225  0.206  0.005  0.005
 0.784  1.343  0.477  0.224  0.204  0.007  0.007
 0.786  1.346  0.477  0.221  0.202  0.009  0.009
 0.788  1.350  0.477  0.219  0.201  0.011  0.011
 0.790  1.356  0.476  0.215  0.199  0.013  0.013
 0.792  1.360  0.475  0.212  0.196  0.015  0.015
 0.794  1.366  0.473  0.209  0.193  0.017  0.017
 0.796  1.371  0.470  0.205  0.189  0.019  0.019
 0.798  1.377  0.468  0.201  0.186  0.022  0.022
 0.800  1.381  0.464  0.197  0.181  0.024  0.024
 0.802  1.387  0.460  0.193  0.177  0.026  0.026
 0.804  1.392  0.455  0.188  0.173  0.028  0.028
 0.806  1.396  0.450  0.183  0.167  0.031  0.031
 0.808  1.401  0.444  0.178  0.162  0.033  0.033
