# IsPeriodic    : True
# Period        : 0.670960 days
# Normalization : <g_mag>=0
# 
# Phase u_mag  g_mag  r_mag  i_mag  z_mag  y_mag
 0.000  0.776 -0.232 -0.440 -0.504 -0.517 -0.517
 0.002  0.776 -0.232 -0.440 -0.504 -0.517 -0.517
 0.004  0.776 -0.232 -0.440 -0.504 -0.517 -0.517
 0.006  0.777 -0.232 -0.439 -0.504 -0.517 -0.517
 0.008  0.777 -0.232 -0.439 -0.504 -0.516 -0.516
 0.010  0.778 -0.231 -0.439 -0.504 -0.516 -0.516
 0.012  0.779 -0.231 -0.439 -0.504 -0.516 -0.516
 0.014  0.779 -0.230 -0.438 -0.504 -0.516 -0.516
 0.016  0.780 -0.230 -0.438 -0.504 -0.515 -0.515
 0.018  0.781 -0.229 -0.438 -0.503 -0.515 -0.515
 0.020  0.782 -0.228 -0.437 -0.503 -0.514 -0.514
 0.022  0.783 -0.228 -0.437 -0.503 -0.514 -0.514
 0.024  0.784 -0.227 -0.436 -0.502 -0.513 -0.513
 0.026  0.786 -0.226 -0.436 -0.502 -0.513 -0.513
 0.028  0.787 -0.225 -0.435 -0.502 -0.512 -0.512
 0.030  0.788 -0.224 -0.434 -0.501 -0.512 -0.512
 0.032  0.789 -0.223 -0.433 -0.501 -0.512 -0.512
 0.034  0.790 -0.222 -0.433 -0.500 -0.511 -0.511
 0.036  0.791 -0.221 -0.432 -0.500 -0.511 -0.511
 0.038  0.792 -0.220 -0.431 -0.499 -0.510 -0.510
 0.040  0.793 -0.218 -0.430 -0.498 -0.509 -0.509
 0.042  0.794 -0.217 -0.429 -0.498 -0.509 -0.509
 0.044  0.796 -0.215 -0.428 -0.497 -0.508 -0.508
 0.046  0.797 -0.214 -0.427 -0.496 -0.507 -0.507
 0.048  0.798 -0.212 -0.426 -0.496 -0.507 -0.507
 0.050  0.800 -0.211 -0.424 -0.495 -0.506 -0.506
 0.052  0.801 -0.209 -0.423 -0.494 -0.505 -0.505
 0.054  0.803 -0.207 -0.422 -0.494 -0.505 -0.505
 0.056  0.804 -0.205 -0.420 -0.493 -0.504 -0.504
 0.058  0.806 -0.204 -0.419 -0.492 -0.503 -0.503
 0.060  0.807 -0.202 -0.418 -0.491 -0.502 -0.502
 0.062  0.809 -0.199 -0.416 -0.490 -0.502 -0.502
 0.064  0.810 -0.197 -0.415 -0.489 -0.500 -0.500
 0.066  0.812 -0.195 -0.413 -0.488 -0.500 -0.500
 0.068  0.814 -0.193 -0.412 -0.487 -0.499 -0.499
 0.070  0.815 -0.191 -0.410 -0.486 -0.498 -0.498
 0.072  0.817 -0.189 -0.409 -0.485 -0.497 -0.497
 0.074  0.819 -0.186 -0.408 -0.484 -0.496 -0.496
 0.076  0.821 -0.184 -0.406 -0.483 -0.495 -0.495
 0.078  0.823 -0.182 -0.405 -0.482 -0.494 -0.494
 0.080  0.824 -0.179 -0.403 -0.481 -0.493 -0.493
 0.082  0.826 -0.177 -0.402 -0.480 -0.492 -0.492
 0.084  0.828 -0.175 -0.401 -0.479 -0.491 -0.491
 0.086  0.830 -0.172 -0.400 -0.478 -0.490 -0.490
 0.088  0.831 -0.170 -0.398 -0.477 -0.490 -0.490
 0.090  0.833 -0.168 -0.397 -0.476 -0.489 -0.489
 0.092  0.835 -0.166 -0.396 -0.475 -0.488 -0.488
 0.094  0.837 -0.164 -0.395 -0.474 -0.487 -0.487
 0.096  0.839 -0.162 -0.394 -0.473 -0.486 -0.486
 0.098  0.840 -0.160 -0.393 -0.472 -0.485 -0.485
 0.100  0.842 -0.158 -0.392 -0.471 -0.484 -0.484
 0.102  0.844 -0.156 -0.391 -0.470 -0.484 -0.484
 0.104  0.845 -0.154 -0.390 -0.470 -0.483 -0.483
 0.106  0.847 -0.152 -0.388 -0.469 -0.482 -0.482
 0.108  0.849 -0.150 -0.388 -0.468 -0.481 -0.481
 0.110  0.851 -0.148 -0.386 -0.468 -0.480 -0.480
 0.112  0.852 -0.147 -0.386 -0.467 -0.480 -0.480
 0.114  0.854 -0.145 -0.385 -0.466 -0.479 -0.479
 0.116  0.856 -0.143 -0.384 -0.465 -0.478 -0.478
 0.118  0.857 -0.141 -0.383 -0.465 -0.477 -0.477
 0.120  0.859 -0.139 -0.382 -0.464 -0.476 -0.476
 0.122  0.861 -0.138 -0.381 -0.463 -0.476 -0.476
 0.124  0.862 -0.136 -0.380 -0.462 -0.475 -0.475
 0.126  0.864 -0.135 -0.379 -0.462 -0.474 -0.474
 0.128  0.865 -0.133 -0.379 -0.461 -0.474 -0.474
 0.130  0.867 -0.132 -0.378 -0.461 -0.473 -0.473
 0.132  0.868 -0.130 -0.377 -0.460 -0.472 -0.472
 0.134  0.870 -0.128 -0.376 -0.460 -0.471 -0.471
 0.136  0.871 -0.127 -0.376 -0.459 -0.471 -0.471
 0.138  0.873 -0.126 -0.375 -0.458 -0.470 -0.470
 0.140  0.874 -0.124 -0.374 -0.458 -0.470 -0.470
 0.142  0.876 -0.123 -0.373 -0.457 -0.469 -0.469
 0.144  0.878 -0.121 -0.373 -0.457 -0.468 -0.468
 0.146  0.879 -0.120 -0.372 -0.456 -0.467 -0.467
 0.148  0.881 -0.118 -0.371 -0.456 -0.467 -0.467
 0.150  0.882 -0.117 -0.370 -0.456 -0.466 -0.466
 0.152  0.884 -0.115 -0.370 -0.455 -0.466 -0.466
 0.154  0.885 -0.114 -0.369 -0.455 -0.465 -0.465
 0.156  0.887 -0.113 -0.368 -0.454 -0.464 -0.464
 0.158  0.888 -0.111 -0.367 -0.454 -0.464 -0.464
 0.160  0.889 -0.110 -0.366 -0.453 -0.463 -0.463
 0.162  0.891 -0.108 -0.366 -0.453 -0.462 -0.462
 0.164  0.892 -0.107 -0.365 -0.452 -0.462 -0.462
 0.166  0.894 -0.105 -0.364 -0.452 -0.461 -0.461
 0.168  0.895 -0.104 -0.363 -0.451 -0.461 -0.461
 0.170  0.897 -0.102 -0.362 -0.451 -0.460 -0.460
 0.172  0.898 -0.100 -0.361 -0.450 -0.459 -0.459
 0.174  0.899 -0.099 -0.361 -0.449 -0.459 -0.459
 0.176  0.901 -0.097 -0.360 -0.449 -0.458 -0.458
 0.178  0.902 -0.096 -0.359 -0.448 -0.457 -0.457
 0.180  0.904 -0.094 -0.358 -0.448 -0.457 -0.457
 0.182  0.905 -0.093 -0.357 -0.447 -0.456 -0.456
 0.184  0.906 -0.091 -0.356 -0.447 -0.456 -0.456
 0.186  0.908 -0.089 -0.355 -0.446 -0.455 -0.455
 0.188  0.909 -0.088 -0.354 -0.445 -0.454 -0.454
 0.190  0.910 -0.086 -0.354 -0.445 -0.454 -0.454
 0.192  0.912 -0.084 -0.352 -0.444 -0.453 -0.453
 0.194  0.913 -0.083 -0.352 -0.443 -0.452 -0.452
 0.196  0.914 -0.081 -0.351 -0.443 -0.452 -0.452
 0.198  0.915 -0.079 -0.350 -0.442 -0.451 -0.451
 0.200  0.917 -0.078 -0.349 -0.442 -0.451 -0.451
 0.202  0.918 -0.076 -0.348 -0.441 -0.450 -0.450
 0.204  0.919 -0.074 -0.347 -0.440 -0.449 -0.449
 0.206  0.920 -0.073 -0.346 -0.440 -0.448 -0.448
 0.208  0.922 -0.071 -0.345 -0.439 -0.448 -0.448
 0.210  0.923 -0.069 -0.344 -0.438 -0.447 -0.447
 0.212  0.924 -0.067 -0.343 -0.438 -0.447 -0.447
 0.214  0.925 -0.065 -0.342 -0.437 -0.446 -0.446
 0.216  0.926 -0.064 -0.341 -0.436 -0.445 -0.445
 0.218  0.928 -0.062 -0.340 -0.436 -0.445 -0.445
 0.220  0.929 -0.060 -0.339 -0.435 -0.444 -0.444
 0.222  0.930 -0.058 -0.339 -0.434 -0.443 -0.443
 0.224  0.931 -0.057 -0.337 -0.434 -0.443 -0.443
 0.226  0.932 -0.055 -0.337 -0.433 -0.442 -0.442
 0.228  0.933 -0.053 -0.335 -0.432 -0.442 -0.442
 0.230  0.935 -0.052 -0.335 -0.432 -0.441 -0.441
 0.232  0.936 -0.050 -0.334 -0.431 -0.440 -0.440
 0.234  0.937 -0.048 -0.333 -0.430 -0.439 -0.439
 0.236  0.938 -0.047 -0.332 -0.430 -0.439 -0.439
 0.238  0.939 -0.045 -0.331 -0.429 -0.438 -0.438
 0.240  0.940 -0.043 -0.330 -0.428 -0.438 -0.438
 0.242  0.941 -0.042 -0.329 -0.428 -0.437 -0.437
 0.244  0.942 -0.041 -0.328 -0.427 -0.436 -0.436
 0.246  0.943 -0.039 -0.327 -0.426 -0.436 -0.436
 0.248  0.944 -0.038 -0.326 -0.426 -0.435 -0.435
 0.250  0.945 -0.036 -0.325 -0.425 -0.434 -0.434
 0.252  0.946 -0.034 -0.325 -0.424 -0.434 -0.434
 0.254  0.948 -0.033 -0.324 -0.424 -0.433 -0.433
 0.256  0.949 -0.032 -0.323 -0.423 -0.433 -0.433
 0.258  0.950 -0.030 -0.322 -0.422 -0.432 -0.432
 0.260  0.951 -0.029 -0.321 -0.422 -0.431 -0.431
 0.262  0.952 -0.027 -0.320 -0.421 -0.430 -0.430
 0.264  0.953 -0.026 -0.319 -0.420 -0.430 -0.430
 0.266  0.954 -0.025 -0.318 -0.420 -0.429 -0.429
 0.268  0.955 -0.023 -0.317 -0.419 -0.429 -0.429
 0.270  0.956 -0.022 -0.316 -0.418 -0.428 -0.428
 0.272  0.957 -0.021 -0.315 -0.418 -0.427 -0.427
 0.274  0.958 -0.020 -0.314 -0.417 -0.427 -0.427
 0.276  0.959 -0.018 -0.314 -0.416 -0.426 -0.426
 0.278  0.960 -0.017 -0.313 -0.416 -0.425 -0.425
 0.280  0.961 -0.016 -0.312 -0.415 -0.425 -0.425
 0.282  0.962 -0.015 -0.311 -0.414 -0.424 -0.424
 0.284  0.963 -0.014 -0.310 -0.414 -0.423 -0.423
 0.286  0.964 -0.012 -0.309 -0.413 -0.423 -0.423
 0.288  0.965 -0.011 -0.308 -0.412 -0.422 -0.422
 0.290  0.966 -0.010 -0.307 -0.412 -0.421 -0.421
 0.292  0.967 -0.009 -0.306 -0.411 -0.421 -0.421
 0.294  0.969 -0.008 -0.305 -0.410 -0.420 -0.420
 0.296  0.970 -0.006 -0.304 -0.410 -0.420 -0.420
 0.298  0.971 -0.005 -0.303 -0.409 -0.419 -0.419
 0.300  0.972 -0.004 -0.302 -0.408 -0.418 -0.418
 0.302  0.973 -0.003 -0.301 -0.408 -0.417 -0.417
 0.304  0.974 -0.002 -0.300 -0.407 -0.417 -0.417
 0.306  0.975 -0.001 -0.299 -0.406 -0.416 -0.416
 0.308  0.975  0.001 -0.298 -0.405 -0.416 -0.416
 0.310  0.976  0.002 -0.297 -0.405 -0.415 -0.415
 0.312  0.977  0.003 -0.296 -0.404 -0.414 -0.414
 0.314  0.978  0.004 -0.295 -0.403 -0.414 -0.414
 0.316  0.979  0.005 -0.293 -0.402 -0.413 -0.413
 0.318  0.980  0.007 -0.292 -0.402 -0.412 -0.412
 0.320  0.981  0.008 -0.291 -0.401 -0.412 -0.412
 0.322  0.982  0.009 -0.290 -0.400 -0.411 -0.411
 0.324  0.983  0.010 -0.289 -0.400 -0.410 -0.410
 0.326  0.984  0.012 -0.288 -0.399 -0.410 -0.410
 0.328  0.985  0.013 -0.286 -0.398 -0.409 -0.409
 0.330  0.986  0.014 -0.285 -0.397 -0.408 -0.408
 0.332  0.987  0.015 -0.284 -0.396 -0.407 -0.407
 0.334  0.988  0.017 -0.283 -0.396 -0.407 -0.407
 0.336  0.989  0.018 -0.282 -0.395 -0.406 -0.406
 0.338  0.990  0.019 -0.281 -0.394 -0.406 -0.406
 0.340  0.991  0.020 -0.279 -0.393 -0.405 -0.405
 0.342  0.992  0.022 -0.278 -0.392 -0.404 -0.404
 0.344  0.993  0.023 -0.277 -0.392 -0.403 -0.403
 0.346  0.994  0.024 -0.276 -0.391 -0.403 -0.403
 0.348  0.995  0.026 -0.274 -0.390 -0.402 -0.402
 0.350  0.996  0.027 -0.273 -0.389 -0.401 -0.401
 0.352  0.997  0.028 -0.272 -0.388 -0.401 -0.401
 0.354  0.998  0.030 -0.271 -0.388 -0.400 -0.400
 0.356  0.999  0.031 -0.270 -0.387 -0.400 -0.400
 0.358  0.999  0.032 -0.268 -0.386 -0.399 -0.399
 0.360  1.000  0.034 -0.267 -0.385 -0.398 -0.398
 0.362  1.001  0.035 -0.266 -0.384 -0.397 -0.397
 0.364  1.002  0.036 -0.265 -0.383 -0.397 -0.397
 0.366  1.003  0.038 -0.264 -0.382 -0.396 -0.396
 0.368  1.004  0.039 -0.263 -0.382 -0.395 -0.395
 0.370  1.005  0.040 -0.262 -0.381 -0.394 -0.394
 0.372  1.006  0.041 -0.261 -0.380 -0.394 -0.394
 0.374  1.007  0.042 -0.259 -0.379 -0.393 -0.393
 0.376  1.008  0.044 -0.259 -0.378 -0.393 -0.393
 0.378  1.009  0.045 -0.258 -0.378 -0.392 -0.392
 0.380  1.009  0.046 -0.257 -0.377 -0.391 -0.391
 0.382  1.010  0.047 -0.256 -0.376 -0.391 -0.391
 0.384  1.011  0.048 -0.255 -0.375 -0.390 -0.390
 0.386  1.012  0.049 -0.254 -0.375 -0.389 -0.389
 0.388  1.013  0.051 -0.253 -0.374 -0.388 -0.388
 0.390  1.014  0.052 -0.252 -0.373 -0.388 -0.388
 0.392  1.014  0.053 -0.251 -0.372 -0.387 -0.387
 0.394  1.015  0.054 -0.250 -0.372 -0.386 -0.386
 0.396  1.016  0.055 -0.249 -0.371 -0.386 -0.386
 0.398  1.017  0.056 -0.249 -0.370 -0.385 -0.385
 0.400  1.018  0.057 -0.248 -0.369 -0.384 -0.384
 0.402  1.019  0.058 -0.247 -0.369 -0.384 -0.384
 0.404  1.019  0.059 -0.246 -0.368 -0.383 -0.383
 0.406  1.020  0.060 -0.245 -0.367 -0.382 -0.382
 0.408  1.021  0.061 -0.245 -0.367 -0.382 -0.382
 0.410  1.022  0.062 -0.244 -0.366 -0.381 -0.381
 0.412  1.023  0.063 -0.243 -0.365 -0.380 -0.380
 0.414  1.024  0.064 -0.243 -0.365 -0.380 -0.380
 0.416  1.024  0.065 -0.242 -0.364 -0.379 -0.379
 0.418  1.025  0.066 -0.241 -0.363 -0.378 -0.378
 0.420  1.026  0.067 -0.241 -0.363 -0.378 -0.378
 0.422  1.027  0.068 -0.240 -0.362 -0.377 -0.377
 0.424  1.028  0.068 -0.239 -0.361 -0.376 -0.376
 0.426  1.028  0.069 -0.239 -0.361 -0.376 -0.376
 0.428  1.029  0.070 -0.238 -0.360 -0.375 -0.375
 0.430  1.030  0.071 -0.237 -0.360 -0.374 -0.374
 0.432  1.031  0.072 -0.237 -0.359 -0.374 -0.374
 0.434  1.031  0.073 -0.236 -0.359 -0.373 -0.373
 0.436  1.032  0.073 -0.236 -0.358 -0.372 -0.372
 0.438  1.033  0.074 -0.235 -0.357 -0.372 -0.372
 0.440  1.034  0.075 -0.234 -0.357 -0.371 -0.371
 0.442  1.034  0.076 -0.234 -0.356 -0.370 -0.370
 0.444  1.035  0.077 -0.233 -0.356 -0.370 -0.370
 0.446  1.036  0.077 -0.232 -0.355 -0.369 -0.369
 0.448  1.036  0.078 -0.232 -0.355 -0.369 -0.369
 0.450  1.037  0.079 -0.231 -0.354 -0.368 -0.368
 0.452  1.038  0.080 -0.230 -0.353 -0.367 -0.367
 0.454  1.039  0.081 -0.230 -0.353 -0.367 -0.367
 0.456  1.039  0.081 -0.229 -0.352 -0.366 -0.366
 0.458  1.040  0.082 -0.228 -0.352 -0.365 -0.365
 0.460  1.041  0.083 -0.228 -0.351 -0.365 -0.365
 0.462  1.041  0.084 -0.227 -0.351 -0.364 -0.364
 0.464  1.042  0.084 -0.227 -0.350 -0.364 -0.364
 0.466  1.042  0.085 -0.226 -0.350 -0.363 -0.363
 0.468  1.043  0.086 -0.225 -0.349 -0.362 -0.362
 0.470  1.044  0.086 -0.225 -0.349 -0.362 -0.362
 0.472  1.044  0.087 -0.224 -0.348 -0.361 -0.361
 0.474  1.045  0.088 -0.223 -0.348 -0.361 -0.361
 0.476  1.046  0.089 -0.223 -0.347 -0.360 -0.360
 0.478  1.046  0.089 -0.222 -0.347 -0.360 -0.360
 0.480  1.047  0.090 -0.221 -0.346 -0.359 -0.359
 0.482  1.047  0.091 -0.221 -0.346 -0.359 -0.359
 0.484  1.048  0.092 -0.220 -0.345 -0.358 -0.358
 0.486  1.048  0.092 -0.220 -0.345 -0.358 -0.358
 0.488  1.049  0.093 -0.219 -0.344 -0.357 -0.357
 0.490  1.049  0.093 -0.218 -0.344 -0.357 -0.357
 0.492  1.050  0.094 -0.218 -0.344 -0.356 -0.356
 0.494  1.050  0.095 -0.217 -0.343 -0.356 -0.356
 0.496  1.051  0.095 -0.217 -0.343 -0.355 -0.355
 0.498  1.051  0.096 -0.216 -0.342 -0.355 -0.355
 0.500  1.052  0.097 -0.216 -0.342 -0.354 -0.354
 0.502  1.052  0.097 -0.215 -0.341 -0.354 -0.354
 0.504  1.053  0.098 -0.214 -0.341 -0.354 -0.354
 0.506  1.053  0.098 -0.214 -0.340 -0.353 -0.353
 0.508  1.054  0.099 -0.213 -0.340 -0.352 -0.352
 0.510  1.054  0.099 -0.213 -0.340 -0.352 -0.352
 0.512  1.055  0.100 -0.212 -0.339 -0.352 -0.352
 0.514  1.055  0.101 -0.212 -0.339 -0.351 -0.351
 0.516  1.056  0.101 -0.211 -0.338 -0.351 -0.351
 0.518  1.056  0.101 -0.211 -0.338 -0.350 -0.350
 0.520  1.056  0.102 -0.210 -0.337 -0.350 -0.350
 0.522  1.057  0.102 -0.210 -0.337 -0.349 -0.349
 0.524  1.057  0.103 -0.210 -0.337 -0.349 -0.349
 0.526  1.058  0.103 -0.209 -0.336 -0.348 -0.348
 0.528  1.058  0.103 -0.209 -0.336 -0.348 -0.348
 0.530  1.058  0.104 -0.209 -0.335 -0.347 -0.347
 0.532  1.059  0.104 -0.208 -0.335 -0.347 -0.347
 0.534  1.059  0.105 -0.208 -0.335 -0.346 -0.346
 0.536  1.059  0.105 -0.207 -0.334 -0.346 -0.346
 0.538  1.060  0.105 -0.207 -0.334 -0.345 -0.345
 0.540  1.060  0.105 -0.207 -0.333 -0.345 -0.345
 0.542  1.060  0.106 -0.207 -0.333 -0.344 -0.344
 0.544  1.060  0.106 -0.206 -0.333 -0.344 -0.344
 0.546  1.061  0.106 -0.206 -0.332 -0.343 -0.343
 0.548  1.061  0.106 -0.206 -0.332 -0.343 -0.343
 0.550  1.061  0.106 -0.205 -0.331 -0.342 -0.342
 0.552  1.062  0.107 -0.205 -0.331 -0.342 -0.342
 0.554  1.062  0.107 -0.205 -0.331 -0.341 -0.341
 0.556  1.062  0.107 -0.205 -0.330 -0.341 -0.341
 0.558  1.062  0.107 -0.205 -0.330 -0.340 -0.340
 0.560  1.062  0.107 -0.204 -0.329 -0.340 -0.340
 0.562  1.063  0.107 -0.204 -0.329 -0.340 -0.340
 0.564  1.063  0.107 -0.204 -0.329 -0.339 -0.339
 0.566  1.063  0.107 -0.204 -0.328 -0.338 -0.338
 0.568  1.063  0.107 -0.204 -0.328 -0.338 -0.338
 0.570  1.063  0.108 -0.204 -0.327 -0.337 -0.337
 0.572  1.064  0.108 -0.203 -0.327 -0.337 -0.337
 0.574  1.064  0.108 -0.203 -0.327 -0.336 -0.336
 0.576  1.064  0.108 -0.203 -0.326 -0.336 -0.336
 0.578  1.064  0.108 -0.203 -0.326 -0.335 -0.335
 0.580  1.064  0.108 -0.203 -0.325 -0.335 -0.335
 0.582  1.064  0.108 -0.202 -0.325 -0.334 -0.334
 0.584  1.064  0.108 -0.202 -0.325 -0.334 -0.334
 0.586  1.065  0.108 -0.202 -0.324 -0.333 -0.333
 0.588  1.065  0.108 -0.202 -0.324 -0.333 -0.333
 0.590  1.065  0.108 -0.201 -0.323 -0.332 -0.332
 0.592  1.065  0.108 -0.201 -0.323 -0.332 -0.332
 0.594  1.065  0.108 -0.201 -0.322 -0.332 -0.332
 0.596  1.065  0.108 -0.201 -0.322 -0.331 -0.331
 0.598  1.065  0.108 -0.200 -0.322 -0.331 -0.331
 0.600  1.065  0.108 -0.200 -0.321 -0.330 -0.330
 0.602  1.065  0.108 -0.200 -0.321 -0.330 -0.330
 0.604  1.065  0.108 -0.200 -0.320 -0.329 -0.329
 0.606  1.065  0.108 -0.199 -0.320 -0.329 -0.329
 0.608  1.065  0.108 -0.199 -0.319 -0.329 -0.329
 0.610  1.065  0.108 -0.199 -0.318 -0.328 -0.328
 0.612  1.065  0.108 -0.199 -0.318 -0.328 -0.328
 0.614  1.065  0.109 -0.198 -0.317 -0.328 -0.328
 0.616  1.065  0.109 -0.198 -0.317 -0.327 -0.327
 0.618  1.065  0.109 -0.198 -0.316 -0.327 -0.327
 0.620  1.065  0.109 -0.197 -0.316 -0.327 -0.327
 0.622  1.065  0.109 -0.197 -0.315 -0.326 -0.326
 0.624  1.065  0.109 -0.197 -0.314 -0.326 -0.326
 0.626  1.065  0.110 -0.196 -0.314 -0.325 -0.325
 0.628  1.065  0.110 -0.196 -0.313 -0.325 -0.325
 0.630  1.065  0.110 -0.196 -0.313 -0.325 -0.325
 0.632  1.065  0.110 -0.195 -0.312 -0.325 -0.325
 0.634  1.065  0.110 -0.195 -0.311 -0.324 -0.324
 0.636  1.065  0.110 -0.195 -0.311 -0.324 -0.324
 0.638  1.065  0.110 -0.194 -0.310 -0.324 -0.324
 0.640  1.065  0.110 -0.194 -0.310 -0.324 -0.324
 0.642  1.065  0.111 -0.194 -0.309 -0.323 -0.323
 0.644  1.064  0.111 -0.193 -0.308 -0.323 -0.323
 0.646  1.064  0.111 -0.193 -0.308 -0.323 -0.323
 0.648  1.064  0.112 -0.192 -0.307 -0.323 -0.323
 0.650  1.064  0.112 -0.192 -0.306 -0.322 -0.322
 0.652  1.064  0.112 -0.191 -0.306 -0.322 -0.322
 0.654  1.064  0.112 -0.191 -0.305 -0.322 -0.322
 0.656  1.064  0.113 -0.190 -0.304 -0.321 -0.321
 0.658  1.064  0.113 -0.190 -0.304 -0.321 -0.321
 0.660  1.064  0.113 -0.189 -0.303 -0.321 -0.321
 0.662  1.064  0.114 -0.189 -0.302 -0.320 -0.320
 0.664  1.063  0.114 -0.188 -0.301 -0.320 -0.320
 0.666  1.063  0.115 -0.188 -0.300 -0.320 -0.320
 0.668  1.063  0.115 -0.187 -0.300 -0.319 -0.319
 0.670  1.063  0.116 -0.186 -0.299 -0.319 -0.319
 0.672  1.063  0.116 -0.186 -0.298 -0.318 -0.318
 0.674  1.063  0.116 -0.185 -0.297 -0.318 -0.318
 0.676  1.063  0.117 -0.185 -0.296 -0.318 -0.318
 0.678  1.063  0.117 -0.184 -0.296 -0.317 -0.317
 0.680  1.063  0.118 -0.183 -0.295 -0.317 -0.317
 0.682  1.063  0.119 -0.183 -0.294 -0.316 -0.316
 0.684  1.063  0.119 -0.182 -0.293 -0.316 -0.316
 0.686  1.063  0.120 -0.181 -0.292 -0.315 -0.315
 0.688  1.063  0.121 -0.180 -0.292 -0.315 -0.315
 0.690  1.063  0.121 -0.180 -0.291 -0.314 -0.314
 0.692  1.063  0.122 -0.179 -0.290 -0.314 -0.314
 0.694  1.063  0.123 -0.178 -0.289 -0.313 -0.313
 0.696  1.063  0.123 -0.177 -0.288 -0.313 -0.313
 0.698  1.063  0.124 -0.177 -0.287 -0.312 -0.312
 0.700  1.063  0.125 -0.176 -0.286 -0.311 -0.311
 0.702  1.063  0.126 -0.175 -0.285 -0.311 -0.311
 0.704  1.063  0.127 -0.174 -0.284 -0.310 -0.310
 0.706  1.064  0.128 -0.173 -0.283 -0.309 -0.309
 0.708  1.064  0.129 -0.173 -0.282 -0.309 -0.309
 0.710  1.064  0.129 -0.172 -0.281 -0.308 -0.308
 0.712  1.064  0.130 -0.171 -0.280 -0.308 -0.308
 0.714  1.064  0.131 -0.171 -0.279 -0.307 -0.307
 0.716  1.064  0.132 -0.170 -0.278 -0.306 -0.306
 0.718  1.064  0.133 -0.169 -0.277 -0.305 -0.305
 0.720  1.064  0.134 -0.169 -0.276 -0.305 -0.305
 0.722  1.064  0.135 -0.168 -0.275 -0.304 -0.304
 0.724  1.065  0.136 -0.167 -0.275 -0.303 -0.303
 0.726  1.065  0.137 -0.167 -0.274 -0.302 -0.302
 0.728  1.065  0.138 -0.166 -0.273 -0.301 -0.301
 0.730  1.065  0.139 -0.166 -0.272 -0.301 -0.301
 0.732  1.066  0.140 -0.165 -0.271 -0.300 -0.300
 0.734  1.066  0.140 -0.165 -0.270 -0.299 -0.299
 0.736  1.067  0.141 -0.165 -0.269 -0.298 -0.298
 0.738  1.067  0.142 -0.164 -0.269 -0.297 -0.297
 0.740  1.068  0.143 -0.164 -0.268 -0.296 -0.296
 0.742  1.068  0.144 -0.163 -0.267 -0.295 -0.295
 0.744  1.069  0.145 -0.163 -0.267 -0.294 -0.294
 0.746  1.069  0.146 -0.163 -0.266 -0.293 -0.293
 0.748  1.070  0.147 -0.163 -0.266 -0.292 -0.292
 0.750  1.071  0.147 -0.162 -0.265 -0.291 -0.291
 0.752  1.072  0.148 -0.162 -0.264 -0.290 -0.290
 0.754  1.072  0.149 -0.162 -0.264 -0.289 -0.289
 0.756  1.073  0.150 -0.162 -0.264 -0.288 -0.288
 0.758  1.074  0.151 -0.162 -0.263 -0.287 -0.287
 0.760  1.075  0.151 -0.162 -0.263 -0.286 -0.286
 0.762  1.076  0.152 -0.161 -0.262 -0.285 -0.285
 0.764  1.077  0.153 -0.161 -0.262 -0.283 -0.283
 0.766  1.078  0.153 -0.161 -0.261 -0.282 -0.282
 0.768  1.079  0.154 -0.161 -0.261 -0.281 -0.281
 0.770  1.080  0.155 -0.161 -0.261 -0.280 -0.280
 0.772  1.082  0.156 -0.161 -0.260 -0.278 -0.278
 0.774  1.083  0.156 -0.162 -0.260 -0.277 -0.277
 0.776  1.084  0.157 -0.162 -0.260 -0.275 -0.275
 0.778  1.086  0.158 -0.162 -0.259 -0.274 -0.274
 0.780  1.087  0.159 -0.162 -0.259 -0.272 -0.272
 0.782  1.088  0.160 -0.163 -0.259 -0.271 -0.271
 0.784  1.090  0.160 -0.163 -0.259 -0.269 -0.269
 0.786  1.091  0.161 -0.164 -0.259 -0.268 -0.268
 0.788  1.093  0.161 -0.165 -0.259 -0.267 -0.267
 0.790  1.094  0.162 -0.166 -0.259 -0.265 -0.265
 0.792  1.096  0.162 -0.167 -0.259 -0.264 -0.264
 0.794  1.097  0.162 -0.169 -0.260 -0.263 -0.263
 0.796  1.099  0.161 -0.170 -0.260 -0.262 -0.262
 0.798  1.100  0.161 -0.172 -0.261 -0.260 -0.260
 0.800  1.101  0.160 -0.174 -0.262 -0.259 -0.259
 0.802  1.102  0.159 -0.176 -0.262 -0.259 -0.259
 0.804  1.103  0.158 -0.178 -0.263 -0.258 -0.258
 0.806  1.104  0.157 -0.180 -0.265 -0.257 -0.257
 0.808  1.105  0.156 -0.183 -0.266 -0.256 -0.256
