# IsPeriodic    : True
# Period        : 0.566611 days
# Normalization : <g_mag>=0
# 
# Phase u_mag  g_mag  r_mag  i_mag  z_mag  y_mag
 0.000  0.743 -0.493 -0.528 -0.475 -0.494 -0.494
 0.002  0.743 -0.493 -0.528 -0.475 -0.494 -0.494
 0.004  0.744 -0.493 -0.528 -0.475 -0.493 -0.493
 0.006  0.745 -0.492 -0.527 -0.475 -0.493 -0.493
 0.008  0.746 -0.490 -0.526 -0.474 -0.493 -0.493
 0.010  0.748 -0.489 -0.526 -0.473 -0.492 -0.492
 0.012  0.750 -0.486 -0.525 -0.473 -0.491 -0.491
 0.014  0.753 -0.484 -0.524 -0.471 -0.490 -0.490
 0.016  0.755 -0.482 -0.523 -0.470 -0.488 -0.488
 0.018  0.758 -0.480 -0.522 -0.469 -0.488 -0.488
 0.020  0.761 -0.476 -0.520 -0.467 -0.486 -0.486
 0.022  0.765 -0.473 -0.519 -0.466 -0.485 -0.485
 0.024  0.767 -0.470 -0.517 -0.464 -0.483 -0.483
 0.026  0.771 -0.467 -0.516 -0.462 -0.482 -0.482
 0.028  0.774 -0.464 -0.514 -0.461 -0.480 -0.480
 0.030  0.777 -0.460 -0.512 -0.459 -0.479 -0.479
 0.032  0.780 -0.457 -0.510 -0.456 -0.477 -0.477
 0.034  0.783 -0.454 -0.509 -0.455 -0.476 -0.476
 0.036  0.786 -0.450 -0.507 -0.453 -0.475 -0.475
 0.038  0.789 -0.447 -0.504 -0.451 -0.473 -0.473
 0.040  0.792 -0.443 -0.503 -0.449 -0.471 -0.471
 0.042  0.795 -0.440 -0.500 -0.447 -0.470 -0.470
 0.044  0.798 -0.436 -0.498 -0.445 -0.468 -0.468
 0.046  0.801 -0.433 -0.495 -0.443 -0.466 -0.466
 0.048  0.804 -0.429 -0.493 -0.441 -0.465 -0.465
 0.050  0.808 -0.425 -0.490 -0.439 -0.463 -0.463
 0.052  0.811 -0.421 -0.487 -0.437 -0.461 -0.461
 0.054  0.815 -0.418 -0.484 -0.436 -0.459 -0.459
 0.056  0.818 -0.414 -0.481 -0.434 -0.456 -0.456
 0.058  0.822 -0.411 -0.478 -0.432 -0.455 -0.455
 0.060  0.826 -0.407 -0.475 -0.431 -0.452 -0.452
 0.062  0.829 -0.403 -0.471 -0.429 -0.450 -0.450
 0.064  0.833 -0.398 -0.468 -0.427 -0.448 -0.448
 0.066  0.837 -0.394 -0.464 -0.425 -0.445 -0.445
 0.068  0.840 -0.390 -0.461 -0.424 -0.443 -0.443
 0.070  0.845 -0.387 -0.457 -0.422 -0.441 -0.441
 0.072  0.848 -0.382 -0.454 -0.420 -0.438 -0.438
 0.074  0.852 -0.378 -0.450 -0.418 -0.436 -0.436
 0.076  0.856 -0.373 -0.446 -0.417 -0.434 -0.434
 0.078  0.860 -0.370 -0.442 -0.415 -0.431 -0.431
 0.080  0.864 -0.365 -0.438 -0.413 -0.428 -0.428
 0.082  0.868 -0.361 -0.435 -0.412 -0.426 -0.426
 0.084  0.872 -0.356 -0.431 -0.410 -0.423 -0.423
 0.086  0.876 -0.352 -0.427 -0.408 -0.421 -0.421
 0.088  0.880 -0.347 -0.424 -0.407 -0.419 -0.419
 0.090  0.884 -0.343 -0.420 -0.405 -0.417 -0.417
 0.092  0.888 -0.339 -0.416 -0.404 -0.414 -0.414
 0.094  0.891 -0.334 -0.413 -0.402 -0.412 -0.412
 0.096  0.896 -0.330 -0.410 -0.400 -0.410 -0.410
 0.098  0.899 -0.325 -0.406 -0.399 -0.407 -0.407
 0.100  0.903 -0.321 -0.403 -0.397 -0.406 -0.406
 0.102  0.907 -0.317 -0.400 -0.395 -0.403 -0.403
 0.104  0.911 -0.312 -0.397 -0.394 -0.402 -0.402
 0.106  0.914 -0.308 -0.394 -0.392 -0.399 -0.399
 0.108  0.918 -0.304 -0.391 -0.391 -0.397 -0.397
 0.110  0.921 -0.300 -0.388 -0.389 -0.395 -0.395
 0.112  0.925 -0.296 -0.385 -0.388 -0.393 -0.393
 0.114  0.928 -0.292 -0.382 -0.386 -0.391 -0.391
 0.116  0.932 -0.288 -0.379 -0.384 -0.390 -0.390
 0.118  0.935 -0.284 -0.376 -0.383 -0.388 -0.388
 0.120  0.938 -0.281 -0.374 -0.382 -0.386 -0.386
 0.122  0.942 -0.277 -0.371 -0.380 -0.384 -0.384
 0.124  0.945 -0.273 -0.369 -0.378 -0.382 -0.382
 0.126  0.948 -0.269 -0.366 -0.376 -0.380 -0.380
 0.128  0.951 -0.265 -0.363 -0.375 -0.379 -0.379
 0.130  0.954 -0.262 -0.361 -0.374 -0.377 -0.377
 0.132  0.957 -0.258 -0.359 -0.372 -0.375 -0.375
 0.134  0.960 -0.254 -0.356 -0.370 -0.374 -0.374
 0.136  0.964 -0.251 -0.354 -0.369 -0.373 -0.373
 0.138  0.966 -0.247 -0.352 -0.367 -0.371 -0.371
 0.140  0.969 -0.244 -0.350 -0.366 -0.369 -0.369
 0.142  0.972 -0.241 -0.348 -0.364 -0.368 -0.368
 0.144  0.975 -0.237 -0.346 -0.363 -0.367 -0.367
 0.146  0.978 -0.234 -0.344 -0.361 -0.365 -0.365
 0.148  0.981 -0.231 -0.341 -0.360 -0.364 -0.364
 0.150  0.983 -0.228 -0.340 -0.358 -0.363 -0.363
 0.152  0.986 -0.225 -0.337 -0.357 -0.361 -0.361
 0.154  0.989 -0.222 -0.335 -0.355 -0.360 -0.360
 0.156  0.992 -0.219 -0.333 -0.354 -0.359 -0.359
 0.158  0.995 -0.216 -0.331 -0.352 -0.357 -0.357
 0.160  0.997 -0.212 -0.330 -0.351 -0.356 -0.356
 0.162  1.000 -0.210 -0.327 -0.349 -0.354 -0.354
 0.164  1.003 -0.207 -0.325 -0.347 -0.353 -0.353
 0.166  1.005 -0.204 -0.324 -0.346 -0.352 -0.352
 0.168  1.008 -0.201 -0.321 -0.345 -0.350 -0.350
 0.170  1.010 -0.198 -0.320 -0.343 -0.349 -0.349
 0.172  1.013 -0.195 -0.318 -0.342 -0.348 -0.348
 0.174  1.016 -0.192 -0.315 -0.340 -0.346 -0.346
 0.176  1.019 -0.188 -0.314 -0.339 -0.345 -0.345
 0.178  1.022 -0.185 -0.312 -0.337 -0.343 -0.343
 0.180  1.024 -0.182 -0.309 -0.336 -0.342 -0.342
 0.182  1.027 -0.179 -0.308 -0.334 -0.341 -0.341
 0.184  1.030 -0.176 -0.306 -0.333 -0.339 -0.339
 0.186  1.032 -0.173 -0.304 -0.332 -0.338 -0.338
 0.188  1.035 -0.170 -0.302 -0.330 -0.337 -0.337
 0.190  1.038 -0.167 -0.300 -0.329 -0.335 -0.335
 0.192  1.041 -0.164 -0.298 -0.328 -0.334 -0.334
 0.194  1.043 -0.161 -0.296 -0.327 -0.333 -0.333
 0.196  1.046 -0.157 -0.294 -0.325 -0.332 -0.332
 0.198  1.049 -0.154 -0.292 -0.324 -0.330 -0.330
 0.200  1.051 -0.151 -0.290 -0.322 -0.329 -0.329
 0.202  1.054 -0.147 -0.288 -0.321 -0.327 -0.327
 0.204  1.056 -0.144 -0.286 -0.320 -0.326 -0.326
 0.206  1.059 -0.140 -0.284 -0.319 -0.325 -0.325
 0.208  1.062 -0.137 -0.282 -0.317 -0.323 -0.323
 0.210  1.065 -0.134 -0.281 -0.316 -0.322 -0.322
 0.212  1.068 -0.130 -0.279 -0.315 -0.321 -0.321
 0.214  1.071 -0.127 -0.276 -0.314 -0.319 -0.319
 0.216  1.073 -0.123 -0.275 -0.313 -0.318 -0.318
 0.218  1.076 -0.120 -0.273 -0.311 -0.316 -0.316
 0.220  1.078 -0.116 -0.271 -0.310 -0.315 -0.315
 0.222  1.081 -0.112 -0.269 -0.309 -0.314 -0.314
 0.224  1.084 -0.109 -0.267 -0.308 -0.312 -0.312
 0.226  1.087 -0.105 -0.265 -0.307 -0.311 -0.311
 0.228  1.090 -0.101 -0.263 -0.306 -0.310 -0.310
 0.230  1.093 -0.098 -0.262 -0.305 -0.309 -0.309
 0.232  1.095 -0.094 -0.260 -0.304 -0.307 -0.307
 0.234  1.098 -0.090 -0.258 -0.303 -0.306 -0.306
 0.236  1.100 -0.086 -0.256 -0.302 -0.305 -0.305
 0.238  1.102 -0.083 -0.254 -0.301 -0.303 -0.303
 0.240  1.105 -0.079 -0.252 -0.300 -0.302 -0.302
 0.242  1.108 -0.075 -0.250 -0.298 -0.301 -0.301
 0.244  1.110 -0.072 -0.249 -0.298 -0.299 -0.299
 0.246  1.113 -0.069 -0.247 -0.297 -0.298 -0.298
 0.248  1.115 -0.065 -0.245 -0.295 -0.297 -0.297
 0.250  1.118 -0.062 -0.243 -0.294 -0.296 -0.296
 0.252  1.120 -0.058 -0.242 -0.293 -0.294 -0.294
 0.254  1.123 -0.055 -0.240 -0.292 -0.294 -0.294
 0.256  1.125 -0.051 -0.239 -0.291 -0.292 -0.292
 0.258  1.128 -0.048 -0.237 -0.290 -0.291 -0.291
 0.260  1.130 -0.045 -0.235 -0.289 -0.290 -0.290
 0.262  1.132 -0.042 -0.233 -0.287 -0.289 -0.289
 0.264  1.135 -0.039 -0.231 -0.286 -0.288 -0.288
 0.266  1.137 -0.036 -0.230 -0.285 -0.286 -0.286
 0.268  1.139 -0.033 -0.228 -0.284 -0.285 -0.285
 0.270  1.142 -0.030 -0.227 -0.283 -0.284 -0.284
 0.272  1.144 -0.027 -0.225 -0.282 -0.283 -0.283
 0.274  1.146 -0.024 -0.223 -0.280 -0.282 -0.282
 0.276  1.149 -0.021 -0.221 -0.279 -0.281 -0.281
 0.278  1.151 -0.018 -0.220 -0.278 -0.279 -0.279
 0.280  1.153 -0.015 -0.218 -0.277 -0.278 -0.278
 0.282  1.155 -0.012 -0.217 -0.275 -0.277 -0.277
 0.284  1.157 -0.009 -0.216 -0.274 -0.276 -0.276
 0.286  1.159 -0.007 -0.214 -0.273 -0.275 -0.275
 0.288  1.161 -0.003 -0.212 -0.272 -0.274 -0.274
 0.290  1.163 -0.001 -0.211 -0.270 -0.273 -0.273
 0.292  1.166  0.001 -0.209 -0.269 -0.272 -0.272
 0.294  1.168  0.004 -0.207 -0.268 -0.271 -0.271
 0.296  1.170  0.007 -0.206 -0.266 -0.270 -0.270
 0.298  1.172  0.009 -0.204 -0.265 -0.268 -0.268
 0.300  1.174  0.012 -0.203 -0.263 -0.267 -0.267
 0.302  1.175  0.014 -0.201 -0.262 -0.267 -0.267
 0.304  1.178  0.017 -0.200 -0.261 -0.265 -0.265
 0.306  1.180  0.019 -0.198 -0.259 -0.264 -0.264
 0.308  1.182  0.021 -0.197 -0.258 -0.263 -0.263
 0.310  1.184  0.024 -0.195 -0.256 -0.262 -0.262
 0.312  1.185  0.027 -0.193 -0.255 -0.261 -0.261
 0.314  1.187  0.029 -0.191 -0.254 -0.260 -0.260
 0.316  1.190  0.031 -0.190 -0.252 -0.259 -0.259
 0.318  1.192  0.034 -0.188 -0.250 -0.258 -0.258
 0.320  1.193  0.036 -0.187 -0.249 -0.257 -0.257
 0.322  1.195  0.039 -0.185 -0.248 -0.256 -0.256
 0.324  1.197  0.041 -0.183 -0.246 -0.255 -0.255
 0.326  1.199  0.044 -0.182 -0.245 -0.254 -0.254
 0.328  1.201  0.046 -0.180 -0.244 -0.252 -0.252
 0.330  1.203  0.048 -0.178 -0.242 -0.251 -0.251
 0.332  1.205  0.051 -0.177 -0.241 -0.251 -0.251
 0.334  1.207  0.054 -0.175 -0.240 -0.250 -0.250
 0.336  1.209  0.056 -0.174 -0.238 -0.248 -0.248
 0.338  1.211  0.058 -0.172 -0.237 -0.247 -0.247
 0.340  1.212  0.061 -0.170 -0.236 -0.246 -0.246
 0.342  1.214  0.064 -0.168 -0.234 -0.245 -0.245
 0.344  1.216  0.066 -0.166 -0.233 -0.244 -0.244
 0.346  1.218  0.068 -0.165 -0.232 -0.243 -0.243
 0.348  1.220  0.072 -0.163 -0.231 -0.242 -0.242
 0.350  1.222  0.074 -0.161 -0.230 -0.241 -0.241
 0.352  1.224  0.076 -0.159 -0.228 -0.240 -0.240
 0.354  1.226  0.079 -0.158 -0.227 -0.239 -0.239
 0.356  1.227  0.082 -0.156 -0.226 -0.238 -0.238
 0.358  1.229  0.084 -0.155 -0.225 -0.237 -0.237
 0.360  1.231  0.086 -0.153 -0.223 -0.236 -0.236
 0.362  1.233  0.089 -0.151 -0.222 -0.235 -0.235
 0.364  1.235  0.092 -0.149 -0.221 -0.234 -0.234
 0.366  1.236  0.094 -0.148 -0.220 -0.233 -0.233
 0.368  1.238  0.096 -0.146 -0.219 -0.231 -0.231
 0.370  1.240  0.099 -0.144 -0.218 -0.230 -0.230
 0.372  1.242  0.102 -0.142 -0.216 -0.230 -0.230
 0.374  1.243  0.104 -0.140 -0.215 -0.228 -0.228
 0.376  1.246  0.107 -0.139 -0.214 -0.227 -0.227
 0.378  1.247  0.110 -0.138 -0.213 -0.226 -0.226
 0.380  1.249  0.112 -0.136 -0.212 -0.225 -0.225
 0.382  1.250  0.115 -0.134 -0.211 -0.224 -0.224
 0.384  1.253  0.117 -0.132 -0.210 -0.223 -0.223
 0.386  1.254  0.120 -0.131 -0.209 -0.222 -0.222
 0.388  1.256  0.122 -0.129 -0.208 -0.220 -0.220
 0.390  1.258  0.124 -0.127 -0.207 -0.219 -0.219
 0.392  1.260  0.127 -0.126 -0.206 -0.218 -0.218
 0.394  1.261  0.129 -0.125 -0.204 -0.217 -0.217
 0.396  1.263  0.131 -0.123 -0.203 -0.216 -0.216
 0.398  1.265  0.133 -0.122 -0.202 -0.215 -0.215
 0.400  1.266  0.136 -0.120 -0.201 -0.213 -0.213
 0.402  1.268  0.137 -0.118 -0.200 -0.213 -0.213
 0.404  1.270  0.140 -0.117 -0.199 -0.211 -0.211
 0.406  1.272  0.142 -0.115 -0.198 -0.210 -0.210
 0.408  1.273  0.144 -0.114 -0.196 -0.209 -0.209
 0.410  1.275  0.146 -0.112 -0.196 -0.208 -0.208
 0.412  1.277  0.148 -0.111 -0.194 -0.207 -0.207
 0.414  1.278  0.150 -0.109 -0.193 -0.205 -0.205
 0.416  1.280  0.152 -0.108 -0.192 -0.204 -0.204
 0.418  1.282  0.154 -0.106 -0.191 -0.203 -0.203
 0.420  1.283  0.155 -0.105 -0.190 -0.202 -0.202
 0.422  1.284  0.157 -0.103 -0.189 -0.201 -0.201
 0.424  1.287  0.159 -0.102 -0.187 -0.199 -0.199
 0.426  1.288  0.161 -0.101 -0.186 -0.198 -0.198
 0.428  1.289  0.163 -0.099 -0.185 -0.197 -0.197
 0.430  1.292  0.164 -0.098 -0.184 -0.196 -0.196
 0.432  1.293  0.166 -0.097 -0.183 -0.194 -0.194
 0.434  1.294  0.168 -0.095 -0.181 -0.193 -0.193
 0.436  1.296  0.169 -0.094 -0.180 -0.192 -0.192
 0.438  1.298  0.171 -0.093 -0.179 -0.191 -0.191
 0.440  1.299  0.172 -0.091 -0.178 -0.190 -0.190
 0.442  1.301  0.174 -0.090 -0.176 -0.188 -0.188
 0.444  1.302  0.175 -0.088 -0.175 -0.187 -0.187
 0.446  1.304  0.177 -0.087 -0.174 -0.186 -0.186
 0.448  1.305  0.178 -0.086 -0.172 -0.185 -0.185
 0.450  1.306  0.179 -0.084 -0.172 -0.184 -0.184
 0.452  1.309  0.181 -0.083 -0.170 -0.182 -0.182
 0.454  1.310  0.182 -0.082 -0.169 -0.181 -0.181
 0.456  1.311  0.184 -0.080 -0.168 -0.180 -0.180
 0.458  1.312  0.185 -0.079 -0.166 -0.179 -0.179
 0.460  1.314  0.186 -0.078 -0.165 -0.178 -0.178
 0.462  1.315  0.188 -0.077 -0.164 -0.177 -0.177
 0.464  1.316  0.189 -0.075 -0.163 -0.176 -0.176
 0.466  1.318  0.190 -0.074 -0.162 -0.175 -0.175
 0.468  1.319  0.192 -0.073 -0.160 -0.174 -0.174
 0.470  1.320  0.193 -0.071 -0.160 -0.173 -0.173
 0.472  1.321  0.195 -0.070 -0.158 -0.171 -0.171
 0.474  1.323  0.195 -0.069 -0.157 -0.170 -0.170
 0.476  1.323  0.197 -0.068 -0.156 -0.170 -0.170
 0.478  1.325  0.199 -0.067 -0.155 -0.169 -0.169
 0.480  1.326  0.199 -0.065 -0.154 -0.167 -0.167
 0.482  1.327  0.201 -0.064 -0.153 -0.166 -0.166
 0.484  1.328  0.202 -0.063 -0.152 -0.165 -0.165
 0.486  1.329  0.204 -0.062 -0.151 -0.165 -0.165
 0.488  1.331  0.205 -0.061 -0.150 -0.164 -0.164
 0.490  1.331  0.206 -0.060 -0.149 -0.163 -0.163
 0.492  1.332  0.208 -0.058 -0.148 -0.162 -0.162
 0.494  1.333  0.209 -0.057 -0.147 -0.161 -0.161
 0.496  1.334  0.210 -0.056 -0.146 -0.160 -0.160
 0.498  1.335  0.212 -0.055 -0.145 -0.159 -0.159
 0.500  1.336  0.212 -0.054 -0.144 -0.158 -0.158
 0.502  1.337  0.214 -0.052 -0.143 -0.157 -0.157
 0.504  1.338  0.216 -0.051 -0.143 -0.156 -0.156
 0.506  1.338  0.216 -0.050 -0.142 -0.155 -0.155
 0.508  1.339  0.218 -0.049 -0.141 -0.154 -0.154
 0.510  1.340  0.219 -0.048 -0.140 -0.154 -0.154
 0.512  1.340  0.220 -0.047 -0.139 -0.153 -0.153
 0.514  1.341  0.222 -0.046 -0.139 -0.152 -0.152
 0.516  1.342  0.223 -0.045 -0.138 -0.151 -0.151
 0.518  1.343  0.224 -0.044 -0.137 -0.150 -0.150
 0.520  1.343  0.226 -0.044 -0.136 -0.150 -0.150
 0.522  1.344  0.226 -0.042 -0.136 -0.149 -0.149
 0.524  1.345  0.228 -0.042 -0.135 -0.148 -0.148
 0.526  1.345  0.229 -0.041 -0.134 -0.148 -0.148
 0.528  1.346  0.230 -0.040 -0.134 -0.147 -0.147
 0.530  1.347  0.231 -0.039 -0.133 -0.146 -0.146
 0.532  1.348  0.232 -0.039 -0.132 -0.145 -0.145
 0.534  1.348  0.233 -0.038 -0.132 -0.144 -0.144
 0.536  1.349  0.233 -0.037 -0.131 -0.144 -0.144
 0.538  1.350  0.234 -0.037 -0.130 -0.143 -0.143
 0.540  1.350  0.235 -0.036 -0.130 -0.143 -0.143
 0.542  1.350  0.236 -0.035 -0.129 -0.142 -0.142
 0.544  1.351  0.236 -0.035 -0.129 -0.141 -0.141
 0.546  1.352  0.236 -0.034 -0.128 -0.141 -0.141
 0.548  1.352  0.237 -0.034 -0.127 -0.140 -0.140
 0.550  1.352  0.238 -0.033 -0.127 -0.139 -0.139
 0.552  1.353  0.238 -0.033 -0.126 -0.138 -0.138
 0.554  1.354  0.238 -0.032 -0.126 -0.138 -0.138
 0.556  1.355  0.239 -0.032 -0.125 -0.138 -0.138
 0.558  1.355  0.239 -0.032 -0.124 -0.137 -0.137
 0.560  1.355  0.239 -0.031 -0.124 -0.136 -0.136
 0.562  1.356  0.240 -0.031 -0.124 -0.136 -0.136
 0.564  1.356  0.240 -0.031 -0.123 -0.135 -0.135
 0.566  1.357  0.240 -0.031 -0.123 -0.135 -0.135
 0.568  1.357  0.240 -0.030 -0.122 -0.134 -0.134
 0.570  1.357  0.240 -0.030 -0.122 -0.133 -0.133
 0.572  1.358  0.239 -0.029 -0.121 -0.133 -0.133
 0.574  1.358  0.239 -0.029 -0.121 -0.133 -0.133
 0.576  1.359  0.239 -0.029 -0.120 -0.132 -0.132
 0.578  1.359  0.238 -0.029 -0.120 -0.132 -0.132
 0.580  1.360  0.238 -0.029 -0.119 -0.131 -0.131
 0.582  1.360  0.237 -0.029 -0.119 -0.131 -0.131
 0.584  1.360  0.236 -0.029 -0.118 -0.130 -0.130
 0.586  1.360  0.236 -0.028 -0.118 -0.130 -0.130
 0.588  1.361  0.236 -0.028 -0.118 -0.129 -0.129
 0.590  1.361  0.236 -0.028 -0.117 -0.129 -0.129
 0.592  1.361  0.235 -0.028 -0.117 -0.128 -0.128
 0.594  1.362  0.234 -0.028 -0.117 -0.128 -0.128
 0.596  1.362  0.234 -0.028 -0.116 -0.128 -0.128
 0.598  1.362  0.233 -0.028 -0.116 -0.127 -0.127
 0.600  1.362  0.233 -0.027 -0.115 -0.127 -0.127
 0.602  1.362  0.233 -0.027 -0.115 -0.127 -0.127
 0.604  1.362  0.233 -0.026 -0.114 -0.126 -0.126
 0.606  1.362  0.232 -0.026 -0.114 -0.126 -0.126
 0.608  1.362  0.232 -0.026 -0.114 -0.126 -0.126
 0.610  1.362  0.232 -0.026 -0.113 -0.125 -0.125
 0.612  1.362  0.232 -0.026 -0.113 -0.125 -0.125
 0.614  1.362  0.232 -0.025 -0.112 -0.124 -0.124
 0.616  1.362  0.232 -0.025 -0.112 -0.124 -0.124
 0.618  1.362  0.232 -0.025 -0.112 -0.124 -0.124
 0.620  1.362  0.232 -0.025 -0.111 -0.123 -0.123
 0.622  1.362  0.232 -0.025 -0.111 -0.123 -0.123
 0.624  1.362  0.232 -0.024 -0.111 -0.123 -0.123
 0.626  1.362  0.233 -0.024 -0.110 -0.122 -0.122
 0.628  1.362  0.233 -0.024 -0.110 -0.122 -0.122
 0.630  1.362  0.233 -0.024 -0.109 -0.122 -0.122
 0.632  1.362  0.233 -0.023 -0.109 -0.122 -0.122
 0.634  1.362  0.234 -0.023 -0.109 -0.122 -0.122
 0.636  1.362  0.235 -0.022 -0.108 -0.121 -0.121
 0.638  1.361  0.235 -0.022 -0.108 -0.121 -0.121
 0.640  1.361  0.236 -0.022 -0.107 -0.121 -0.121
 0.642  1.360  0.236 -0.022 -0.107 -0.121 -0.121
 0.644  1.360  0.237 -0.021 -0.106 -0.120 -0.120
 0.646  1.360  0.238 -0.021 -0.106 -0.120 -0.120
 0.648  1.360  0.239 -0.021 -0.105 -0.120 -0.120
 0.650  1.360  0.240 -0.021 -0.105 -0.120 -0.120
 0.652  1.359  0.240 -0.021 -0.105 -0.119 -0.119
 0.654  1.359  0.242 -0.020 -0.105 -0.119 -0.119
 0.656  1.358  0.243 -0.020 -0.104 -0.119 -0.119
 0.658  1.358  0.243 -0.020 -0.104 -0.119 -0.119
 0.660  1.357  0.245 -0.020 -0.103 -0.119 -0.119
 0.662  1.357  0.246 -0.020 -0.103 -0.118 -0.118
 0.664  1.357  0.247 -0.020 -0.102 -0.118 -0.118
 0.666  1.357  0.248 -0.020 -0.102 -0.118 -0.118
 0.668  1.356  0.250 -0.020 -0.101 -0.118 -0.118
 0.670  1.356  0.250 -0.020 -0.101 -0.118 -0.118
 0.672  1.355  0.252 -0.020 -0.100 -0.117 -0.117
 0.674  1.355  0.253 -0.020 -0.099 -0.117 -0.117
 0.676  1.355  0.253 -0.021 -0.099 -0.117 -0.117
 0.678  1.355  0.255 -0.021 -0.098 -0.117 -0.117
 0.680  1.354  0.256 -0.021 -0.098 -0.117 -0.117
 0.682  1.354  0.257 -0.021 -0.097 -0.117 -0.117
 0.684  1.353  0.258 -0.021 -0.096 -0.116 -0.116
 0.686  1.353  0.259 -0.022 -0.095 -0.116 -0.116
 0.688  1.352  0.260 -0.022 -0.094 -0.116 -0.116
 0.690  1.352  0.261 -0.022 -0.093 -0.116 -0.116
 0.692  1.352  0.262 -0.023 -0.093 -0.116 -0.116
 0.694  1.352  0.263 -0.024 -0.092 -0.115 -0.115
 0.696  1.352  0.264 -0.024 -0.090 -0.115 -0.115
 0.698  1.352  0.264 -0.025 -0.089 -0.115 -0.115
 0.700  1.351  0.266 -0.025 -0.088 -0.115 -0.115
 0.702  1.351  0.267 -0.026 -0.087 -0.115 -0.115
 0.704  1.351  0.267 -0.026 -0.086 -0.114 -0.114
 0.706  1.350  0.268 -0.027 -0.084 -0.114 -0.114
 0.708  1.350  0.269 -0.028 -0.083 -0.114 -0.114
 0.710  1.350  0.270 -0.029 -0.082 -0.114 -0.114
 0.712  1.350  0.270 -0.029 -0.080 -0.113 -0.113
 0.714  1.350  0.271 -0.031 -0.079 -0.113 -0.113
 0.716  1.349  0.272 -0.031 -0.077 -0.113 -0.113
 0.718  1.349  0.273 -0.032 -0.076 -0.113 -0.113
 0.720  1.349  0.274 -0.032 -0.074 -0.113 -0.113
 0.722  1.348  0.275 -0.034 -0.073 -0.112 -0.112
 0.724  1.348  0.275 -0.034 -0.071 -0.112 -0.112
 0.726  1.348  0.276 -0.035 -0.069 -0.112 -0.112
 0.728  1.348  0.277 -0.035 -0.067 -0.111 -0.111
 0.730  1.348  0.277 -0.035 -0.065 -0.111 -0.111
 0.732  1.349  0.278 -0.035 -0.063 -0.111 -0.111
 0.734  1.349  0.279 -0.036 -0.062 -0.111 -0.111
 0.736  1.350  0.279 -0.036 -0.060 -0.110 -0.110
 0.738  1.350  0.280 -0.035 -0.058 -0.110 -0.110
 0.740  1.351  0.280 -0.035 -0.056 -0.109 -0.109
 0.742  1.352  0.281 -0.035 -0.054 -0.109 -0.109
 0.744  1.352  0.281 -0.035 -0.052 -0.108 -0.108
 0.746  1.354  0.281 -0.034 -0.050 -0.107 -0.107
 0.748  1.355  0.281 -0.034 -0.048 -0.107 -0.107
 0.750  1.356  0.281 -0.033 -0.046 -0.106 -0.106
 0.752  1.357  0.281 -0.032 -0.045 -0.106 -0.106
 0.754  1.360  0.280 -0.032 -0.043 -0.105 -0.105
 0.756  1.361  0.280 -0.031 -0.041 -0.104 -0.104
 0.758  1.362  0.279 -0.030 -0.040 -0.103 -0.103
 0.760  1.365  0.278 -0.029 -0.038 -0.103 -0.103
 0.762  1.367  0.278 -0.028 -0.037 -0.102 -0.102
 0.764  1.369  0.277 -0.026 -0.035 -0.101 -0.101
 0.766  1.371  0.276 -0.025 -0.034 -0.100 -0.100
 0.768  1.374  0.275 -0.024 -0.033 -0.099 -0.099
 0.770  1.377  0.274 -0.022 -0.031 -0.098 -0.098
 0.772  1.379  0.273 -0.021 -0.030 -0.097 -0.097
 0.774  1.382  0.272 -0.019 -0.028 -0.096 -0.096
 0.776  1.385  0.270 -0.017 -0.027 -0.095 -0.095
 0.778  1.389  0.269 -0.015 -0.027 -0.094 -0.094
 0.780  1.391  0.267 -0.013 -0.025 -0.093 -0.093
 0.782  1.395  0.266 -0.011 -0.024 -0.092 -0.092
 0.784  1.399  0.264 -0.008 -0.023 -0.091 -0.091
 0.786  1.402  0.262 -0.006 -0.022 -0.090 -0.090
 0.788  1.406  0.260 -0.004 -0.021 -0.089 -0.089
 0.790  1.410  0.258 -0.002 -0.021 -0.087 -0.087
 0.792  1.413  0.257  0.001 -0.020 -0.086 -0.086
 0.794  1.418  0.254  0.003 -0.019 -0.085 -0.085
 0.796  1.421  0.252  0.005 -0.018 -0.084 -0.084
 0.798  1.425  0.250  0.007 -0.017 -0.083 -0.083
 0.800  1.429  0.247  0.010 -0.016 -0.081 -0.081
 0.802  1.432  0.245  0.012 -0.015 -0.080 -0.080
 0.804  1.435  0.242  0.014 -0.015 -0.079 -0.079
 0.806  1.439  0.239  0.016 -0.014 -0.078 -0.078
 0.808  1.442  0.236  0.018 -0.014 -0.076 -0.076
