# IsPeriodic    : True
# Period        : 0.595590 days
# Normalization : <g_mag>=0
# 
# Phase u_mag  g_mag  r_mag  i_mag  z_mag  y_mag
 0.000  0.535 -0.609 -0.630 -0.555 -0.412 -0.412
 0.002  0.535 -0.609 -0.630 -0.555 -0.412 -0.412
 0.004  0.535 -0.609 -0.630 -0.555 -0.412 -0.412
 0.006  0.536 -0.608 -0.629 -0.554 -0.412 -0.412
 0.008  0.537 -0.607 -0.629 -0.553 -0.412 -0.412
 0.010  0.538 -0.606 -0.628 -0.552 -0.411 -0.411
 0.012  0.539 -0.605 -0.627 -0.551 -0.411 -0.411
 0.014  0.541 -0.603 -0.626 -0.549 -0.410 -0.410
 0.016  0.542 -0.600 -0.624 -0.548 -0.410 -0.410
 0.018  0.544 -0.598 -0.622 -0.546 -0.409 -0.409
 0.020  0.546 -0.596 -0.621 -0.544 -0.408 -0.408
 0.022  0.548 -0.594 -0.618 -0.542 -0.407 -0.407
 0.024  0.551 -0.592 -0.617 -0.540 -0.406 -0.406
 0.026  0.554 -0.589 -0.615 -0.538 -0.405 -0.405
 0.028  0.557 -0.587 -0.612 -0.536 -0.404 -0.404
 0.030  0.560 -0.584 -0.610 -0.534 -0.403 -0.403
 0.032  0.564 -0.581 -0.608 -0.532 -0.401 -0.401
 0.034  0.567 -0.578 -0.605 -0.530 -0.400 -0.400
 0.036  0.572 -0.575 -0.603 -0.528 -0.399 -0.399
 0.038  0.576 -0.572 -0.600 -0.527 -0.397 -0.397
 0.040  0.581 -0.568 -0.597 -0.525 -0.395 -0.395
 0.042  0.585 -0.565 -0.594 -0.523 -0.394 -0.394
 0.044  0.590 -0.561 -0.591 -0.521 -0.392 -0.392
 0.046  0.595 -0.557 -0.587 -0.519 -0.390 -0.390
 0.048  0.600 -0.554 -0.584 -0.517 -0.388 -0.388
 0.050  0.606 -0.550 -0.580 -0.515 -0.386 -0.386
 0.052  0.611 -0.546 -0.577 -0.513 -0.384 -0.384
 0.054  0.617 -0.541 -0.573 -0.510 -0.381 -0.381
 0.056  0.622 -0.536 -0.568 -0.508 -0.379 -0.379
 0.058  0.628 -0.531 -0.565 -0.506 -0.377 -0.377
 0.060  0.633 -0.527 -0.561 -0.504 -0.375 -0.375
 0.062  0.639 -0.522 -0.556 -0.502 -0.373 -0.373
 0.064  0.644 -0.517 -0.551 -0.499 -0.371 -0.371
 0.066  0.650 -0.512 -0.547 -0.497 -0.368 -0.368
 0.068  0.655 -0.506 -0.542 -0.494 -0.366 -0.366
 0.070  0.660 -0.501 -0.537 -0.492 -0.364 -0.364
 0.072  0.665 -0.495 -0.533 -0.490 -0.363 -0.363
 0.074  0.670 -0.489 -0.527 -0.487 -0.361 -0.361
 0.076  0.675 -0.484 -0.522 -0.485 -0.359 -0.359
 0.078  0.679 -0.478 -0.517 -0.483 -0.357 -0.357
 0.080  0.685 -0.471 -0.512 -0.480 -0.356 -0.356
 0.082  0.689 -0.465 -0.508 -0.478 -0.354 -0.354
 0.084  0.694 -0.459 -0.502 -0.475 -0.352 -0.352
 0.086  0.698 -0.453 -0.497 -0.473 -0.351 -0.351
 0.088  0.702 -0.447 -0.493 -0.471 -0.349 -0.349
 0.090  0.706 -0.441 -0.488 -0.468 -0.347 -0.347
 0.092  0.711 -0.435 -0.483 -0.466 -0.346 -0.346
 0.094  0.716 -0.429 -0.479 -0.464 -0.345 -0.345
 0.096  0.720 -0.424 -0.475 -0.461 -0.343 -0.343
 0.098  0.724 -0.418 -0.470 -0.458 -0.342 -0.342
 0.100  0.728 -0.411 -0.466 -0.456 -0.340 -0.340
 0.102  0.733 -0.406 -0.461 -0.454 -0.339 -0.339
 0.104  0.736 -0.400 -0.458 -0.452 -0.338 -0.338
 0.106  0.740 -0.395 -0.454 -0.449 -0.337 -0.337
 0.108  0.744 -0.389 -0.450 -0.447 -0.336 -0.336
 0.110  0.748 -0.384 -0.446 -0.445 -0.334 -0.334
 0.112  0.751 -0.379 -0.442 -0.443 -0.334 -0.334
 0.114  0.755 -0.374 -0.438 -0.441 -0.333 -0.333
 0.116  0.759 -0.369 -0.434 -0.438 -0.332 -0.332
 0.118  0.762 -0.364 -0.430 -0.436 -0.331 -0.331
 0.120  0.765 -0.359 -0.427 -0.434 -0.330 -0.330
 0.122  0.769 -0.354 -0.423 -0.432 -0.329 -0.329
 0.124  0.772 -0.348 -0.420 -0.430 -0.328 -0.328
 0.126  0.775 -0.344 -0.417 -0.428 -0.327 -0.327
 0.128  0.779 -0.339 -0.413 -0.426 -0.327 -0.327
 0.130  0.782 -0.335 -0.410 -0.424 -0.326 -0.326
 0.132  0.786 -0.330 -0.407 -0.422 -0.325 -0.325
 0.134  0.789 -0.326 -0.404 -0.420 -0.324 -0.324
 0.136  0.793 -0.321 -0.401 -0.418 -0.323 -0.323
 0.138  0.797 -0.317 -0.398 -0.416 -0.323 -0.323
 0.140  0.800 -0.313 -0.395 -0.414 -0.322 -0.322
 0.142  0.803 -0.309 -0.393 -0.412 -0.321 -0.321
 0.144  0.807 -0.305 -0.390 -0.410 -0.320 -0.320
 0.146  0.810 -0.301 -0.387 -0.408 -0.319 -0.319
 0.148  0.813 -0.297 -0.384 -0.407 -0.318 -0.318
 0.150  0.817 -0.293 -0.382 -0.405 -0.318 -0.318
 0.152  0.820 -0.289 -0.379 -0.403 -0.316 -0.316
 0.154  0.823 -0.284 -0.376 -0.401 -0.316 -0.316
 0.156  0.827 -0.281 -0.373 -0.399 -0.315 -0.315
 0.158  0.830 -0.277 -0.371 -0.397 -0.314 -0.314
 0.160  0.834 -0.273 -0.369 -0.395 -0.313 -0.313
 0.162  0.837 -0.269 -0.365 -0.393 -0.312 -0.312
 0.164  0.840 -0.266 -0.363 -0.392 -0.311 -0.311
 0.166  0.844 -0.262 -0.361 -0.390 -0.310 -0.310
 0.168  0.848 -0.258 -0.358 -0.389 -0.309 -0.309
 0.170  0.851 -0.254 -0.355 -0.387 -0.308 -0.308
 0.172  0.855 -0.250 -0.353 -0.385 -0.307 -0.307
 0.174  0.858 -0.246 -0.350 -0.384 -0.305 -0.305
 0.176  0.861 -0.242 -0.347 -0.382 -0.305 -0.305
 0.178  0.865 -0.238 -0.345 -0.380 -0.303 -0.303
 0.180  0.868 -0.234 -0.342 -0.378 -0.302 -0.302
 0.182  0.871 -0.230 -0.340 -0.376 -0.301 -0.301
 0.184  0.875 -0.226 -0.337 -0.375 -0.300 -0.300
 0.186  0.878 -0.221 -0.334 -0.373 -0.299 -0.299
 0.188  0.882 -0.217 -0.332 -0.372 -0.298 -0.298
 0.190  0.886 -0.213 -0.329 -0.370 -0.297 -0.297
 0.192  0.889 -0.209 -0.326 -0.369 -0.296 -0.296
 0.194  0.892 -0.204 -0.324 -0.367 -0.294 -0.294
 0.196  0.896 -0.200 -0.322 -0.365 -0.293 -0.293
 0.198  0.899 -0.196 -0.319 -0.363 -0.292 -0.292
 0.200  0.903 -0.192 -0.316 -0.362 -0.291 -0.291
 0.202  0.906 -0.188 -0.314 -0.361 -0.290 -0.290
 0.204  0.909 -0.183 -0.311 -0.359 -0.288 -0.288
 0.206  0.913 -0.179 -0.308 -0.357 -0.287 -0.287
 0.208  0.916 -0.175 -0.306 -0.355 -0.286 -0.286
 0.210  0.919 -0.170 -0.304 -0.354 -0.285 -0.285
 0.212  0.923 -0.166 -0.301 -0.353 -0.284 -0.284
 0.214  0.926 -0.160 -0.298 -0.351 -0.283 -0.283
 0.216  0.930 -0.156 -0.296 -0.350 -0.282 -0.282
 0.218  0.932 -0.151 -0.294 -0.348 -0.281 -0.281
 0.220  0.935 -0.147 -0.291 -0.346 -0.279 -0.279
 0.222  0.939 -0.142 -0.288 -0.345 -0.279 -0.279
 0.224  0.942 -0.138 -0.286 -0.344 -0.277 -0.277
 0.226  0.945 -0.133 -0.283 -0.342 -0.276 -0.276
 0.228  0.948 -0.129 -0.281 -0.340 -0.275 -0.275
 0.230  0.951 -0.124 -0.279 -0.339 -0.274 -0.274
 0.232  0.954 -0.120 -0.276 -0.337 -0.273 -0.273
 0.234  0.957 -0.116 -0.274 -0.336 -0.272 -0.272
 0.236  0.961 -0.111 -0.271 -0.334 -0.271 -0.271
 0.238  0.963 -0.107 -0.269 -0.332 -0.270 -0.270
 0.240  0.967 -0.103 -0.266 -0.331 -0.269 -0.269
 0.242  0.969 -0.098 -0.264 -0.330 -0.268 -0.268
 0.244  0.972 -0.094 -0.261 -0.328 -0.267 -0.267
 0.246  0.975 -0.090 -0.259 -0.327 -0.266 -0.266
 0.248  0.978 -0.086 -0.257 -0.325 -0.265 -0.265
 0.250  0.981 -0.082 -0.254 -0.323 -0.264 -0.264
 0.252  0.983 -0.078 -0.252 -0.321 -0.263 -0.263
 0.254  0.987 -0.074 -0.250 -0.320 -0.263 -0.263
 0.256  0.989 -0.070 -0.248 -0.318 -0.261 -0.261
 0.258  0.992 -0.067 -0.246 -0.316 -0.261 -0.261
 0.260  0.995 -0.063 -0.244 -0.315 -0.260 -0.260
 0.262  0.998 -0.060 -0.241 -0.313 -0.259 -0.259
 0.264  1.000 -0.056 -0.239 -0.312 -0.258 -0.258
 0.266  1.003 -0.053 -0.236 -0.310 -0.257 -0.257
 0.268  1.006 -0.049 -0.234 -0.308 -0.256 -0.256
 0.270  1.009 -0.046 -0.233 -0.306 -0.255 -0.255
 0.272  1.011 -0.043 -0.230 -0.304 -0.254 -0.254
 0.274  1.014 -0.039 -0.228 -0.302 -0.253 -0.253
 0.276  1.017 -0.035 -0.226 -0.300 -0.253 -0.253
 0.278  1.020 -0.032 -0.224 -0.298 -0.252 -0.252
 0.280  1.022 -0.029 -0.222 -0.296 -0.251 -0.251
 0.282  1.025 -0.026 -0.219 -0.295 -0.250 -0.250
 0.284  1.027 -0.023 -0.218 -0.293 -0.249 -0.249
 0.286  1.031 -0.020 -0.215 -0.291 -0.248 -0.248
 0.288  1.033 -0.017 -0.213 -0.289 -0.248 -0.248
 0.290  1.036 -0.014 -0.211 -0.287 -0.246 -0.246
 0.292  1.038 -0.011 -0.209 -0.285 -0.246 -0.246
 0.294  1.041 -0.009 -0.207 -0.283 -0.245 -0.245
 0.296  1.044 -0.006 -0.205 -0.281 -0.244 -0.244
 0.298  1.047 -0.003 -0.203 -0.279 -0.243 -0.243
 0.300  1.049 -0.001 -0.201 -0.277 -0.242 -0.242
 0.302  1.052  0.002 -0.199 -0.275 -0.241 -0.241
 0.304  1.054  0.005 -0.197 -0.273 -0.240 -0.240
 0.306  1.058  0.008 -0.194 -0.272 -0.239 -0.239
 0.308  1.060  0.010 -0.193 -0.270 -0.239 -0.239
 0.310  1.063  0.013 -0.190 -0.268 -0.238 -0.238
 0.312  1.065  0.016 -0.188 -0.266 -0.237 -0.237
 0.314  1.068  0.019 -0.186 -0.264 -0.236 -0.236
 0.316  1.070  0.022 -0.184 -0.262 -0.235 -0.235
 0.318  1.074  0.025 -0.182 -0.260 -0.234 -0.234
 0.320  1.076  0.029 -0.179 -0.258 -0.233 -0.233
 0.322  1.079  0.032 -0.177 -0.257 -0.232 -0.232
 0.324  1.081  0.035 -0.175 -0.255 -0.231 -0.231
 0.326  1.084  0.038 -0.173 -0.253 -0.230 -0.230
 0.328  1.086  0.041 -0.171 -0.252 -0.229 -0.229
 0.330  1.090  0.044 -0.169 -0.250 -0.228 -0.228
 0.332  1.092  0.047 -0.166 -0.248 -0.227 -0.227
 0.334  1.095  0.050 -0.164 -0.247 -0.227 -0.227
 0.336  1.097  0.053 -0.162 -0.245 -0.226 -0.226
 0.338  1.100  0.057 -0.160 -0.243 -0.225 -0.225
 0.340  1.102  0.060 -0.158 -0.241 -0.224 -0.224
 0.342  1.105  0.063 -0.155 -0.240 -0.223 -0.223
 0.344  1.107  0.066 -0.153 -0.238 -0.222 -0.222
 0.346  1.110  0.070 -0.151 -0.237 -0.221 -0.221
 0.348  1.113  0.073 -0.148 -0.235 -0.220 -0.220
 0.350  1.116  0.076 -0.146 -0.234 -0.219 -0.219
 0.352  1.118  0.080 -0.144 -0.232 -0.218 -0.218
 0.354  1.121  0.083 -0.141 -0.231 -0.217 -0.217
 0.356  1.122  0.087 -0.139 -0.229 -0.216 -0.216
 0.358  1.125  0.091 -0.137 -0.228 -0.215 -0.215
 0.360  1.127  0.095 -0.135 -0.226 -0.214 -0.214
 0.362  1.130  0.098 -0.133 -0.225 -0.213 -0.213
 0.364  1.132  0.102 -0.130 -0.223 -0.212 -0.212
 0.366  1.135  0.106 -0.128 -0.222 -0.211 -0.211
 0.368  1.138  0.109 -0.126 -0.220 -0.210 -0.210
 0.370  1.140  0.113 -0.123 -0.219 -0.209 -0.209
 0.372  1.142  0.116 -0.121 -0.218 -0.208 -0.208
 0.374  1.144  0.120 -0.119 -0.216 -0.207 -0.207
 0.376  1.147  0.123 -0.117 -0.214 -0.206 -0.206
 0.378  1.149  0.126 -0.115 -0.213 -0.205 -0.205
 0.380  1.151  0.130 -0.112 -0.212 -0.204 -0.204
 0.382  1.154  0.133 -0.110 -0.211 -0.203 -0.203
 0.384  1.156  0.137 -0.108 -0.209 -0.202 -0.202
 0.386  1.158  0.140 -0.106 -0.207 -0.201 -0.201
 0.388  1.160  0.143 -0.104 -0.206 -0.200 -0.200
 0.390  1.163  0.146 -0.101 -0.205 -0.199 -0.199
 0.392  1.164  0.149 -0.100 -0.203 -0.198 -0.198
 0.394  1.167  0.153 -0.097 -0.201 -0.197 -0.197
 0.396  1.169  0.156 -0.095 -0.199 -0.196 -0.196
 0.398  1.171  0.159 -0.094 -0.198 -0.195 -0.195
 0.400  1.173  0.162 -0.091 -0.196 -0.194 -0.194
 0.402  1.175  0.165 -0.089 -0.195 -0.193 -0.193
 0.404  1.177  0.167 -0.087 -0.193 -0.192 -0.192
 0.406  1.180  0.170 -0.085 -0.192 -0.191 -0.191
 0.408  1.181  0.173 -0.083 -0.190 -0.190 -0.190
 0.410  1.184  0.176 -0.081 -0.188 -0.189 -0.189
 0.412  1.186  0.178 -0.079 -0.186 -0.188 -0.188
 0.414  1.188  0.181 -0.077 -0.184 -0.187 -0.187
 0.416  1.190  0.183 -0.076 -0.183 -0.186 -0.186
 0.418  1.191  0.186 -0.073 -0.181 -0.185 -0.185
 0.420  1.194  0.188 -0.072 -0.179 -0.184 -0.184
 0.422  1.196  0.190 -0.069 -0.178 -0.183 -0.183
 0.424  1.197  0.193 -0.068 -0.176 -0.181 -0.181
 0.426  1.200  0.195 -0.066 -0.174 -0.181 -0.181
 0.428  1.202  0.197 -0.064 -0.172 -0.179 -0.179
 0.430  1.203  0.199 -0.062 -0.170 -0.179 -0.179
 0.432  1.205  0.201 -0.061 -0.169 -0.178 -0.178
 0.434  1.207  0.203 -0.058 -0.167 -0.177 -0.177
 0.436  1.209  0.205 -0.057 -0.165 -0.176 -0.176
 0.438  1.211  0.207 -0.055 -0.163 -0.175 -0.175
 0.440  1.212  0.209 -0.053 -0.161 -0.174 -0.174
 0.442  1.214  0.211 -0.051 -0.159 -0.173 -0.173
 0.444  1.216  0.213 -0.050 -0.157 -0.172 -0.172
 0.446  1.218  0.216 -0.047 -0.155 -0.171 -0.171
 0.448  1.219  0.218 -0.046 -0.153 -0.170 -0.170
 0.450  1.221  0.220 -0.044 -0.152 -0.169 -0.169
 0.452  1.223  0.221 -0.043 -0.150 -0.168 -0.168
 0.454  1.224  0.223 -0.041 -0.148 -0.167 -0.167
 0.456  1.227  0.225 -0.039 -0.146 -0.167 -0.167
 0.458  1.228  0.227 -0.037 -0.144 -0.166 -0.166
 0.460  1.229  0.228 -0.036 -0.143 -0.165 -0.165
 0.462  1.231  0.230 -0.034 -0.141 -0.164 -0.164
 0.464  1.233  0.232 -0.033 -0.140 -0.163 -0.163
 0.466  1.234  0.233 -0.031 -0.138 -0.162 -0.162
 0.468  1.236  0.235 -0.029 -0.136 -0.161 -0.161
 0.470  1.238  0.237 -0.027 -0.135 -0.161 -0.161
 0.472  1.239  0.238 -0.026 -0.134 -0.160 -0.160
 0.474  1.241  0.240 -0.024 -0.133 -0.159 -0.159
 0.476  1.243  0.241 -0.022 -0.131 -0.158 -0.158
 0.478  1.244  0.243 -0.021 -0.130 -0.157 -0.157
 0.480  1.245  0.244 -0.019 -0.129 -0.157 -0.157
 0.482  1.247  0.246 -0.018 -0.127 -0.156 -0.156
 0.484  1.249  0.247 -0.016 -0.126 -0.155 -0.155
 0.486  1.250  0.249 -0.015 -0.125 -0.154 -0.154
 0.488  1.251  0.250 -0.013 -0.124 -0.154 -0.154
 0.490  1.253  0.252 -0.012 -0.123 -0.153 -0.153
 0.492  1.254  0.253 -0.010 -0.122 -0.152 -0.152
 0.494  1.255  0.254 -0.008 -0.121 -0.151 -0.151
 0.496  1.256  0.256 -0.007 -0.120 -0.151 -0.151
 0.498  1.258  0.257 -0.005 -0.119 -0.150 -0.150
 0.500  1.259  0.258 -0.004 -0.118 -0.149 -0.149
 0.502  1.260  0.259 -0.002 -0.117 -0.148 -0.148
 0.504  1.261  0.261 -0.001 -0.116 -0.148 -0.148
 0.506  1.263  0.262  0.001 -0.116 -0.147 -0.147
 0.508  1.264  0.263  0.002 -0.115 -0.146 -0.146
 0.510  1.265  0.264  0.003 -0.114 -0.146 -0.146
 0.512  1.266  0.265  0.005 -0.114 -0.145 -0.145
 0.514  1.267  0.267  0.006 -0.113 -0.144 -0.144
 0.516  1.268  0.268  0.007 -0.112 -0.144 -0.144
 0.518  1.270  0.269  0.009 -0.111 -0.143 -0.143
 0.520  1.271  0.270  0.010 -0.110 -0.143 -0.143
 0.522  1.271  0.271  0.011 -0.110 -0.142 -0.142
 0.524  1.272  0.272  0.012 -0.109 -0.141 -0.141
 0.526  1.273  0.273  0.013 -0.108 -0.141 -0.141
 0.528  1.274  0.274  0.014 -0.108 -0.140 -0.140
 0.530  1.275  0.275  0.015 -0.107 -0.139 -0.139
 0.532  1.276  0.276  0.016 -0.106 -0.139 -0.139
 0.534  1.276  0.276  0.017 -0.105 -0.138 -0.138
 0.536  1.277  0.278  0.018 -0.104 -0.138 -0.138
 0.538  1.278  0.279  0.019 -0.104 -0.137 -0.137
 0.540  1.279  0.280  0.020 -0.103 -0.137 -0.137
 0.542  1.280  0.281  0.021 -0.102 -0.136 -0.136
 0.544  1.281  0.281  0.021 -0.101 -0.135 -0.135
 0.546  1.282  0.282  0.022 -0.100 -0.135 -0.135
 0.548  1.282  0.283  0.023 -0.100 -0.135 -0.135
 0.550  1.282  0.283  0.024 -0.098 -0.134 -0.134
 0.552  1.283  0.284  0.024 -0.098 -0.133 -0.133
 0.554  1.284  0.284  0.024 -0.097 -0.133 -0.133
 0.556  1.284  0.285  0.025 -0.096 -0.133 -0.133
 0.558  1.285  0.285  0.025 -0.095 -0.132 -0.132
 0.560  1.286  0.286  0.026 -0.095 -0.131 -0.131
 0.562  1.286  0.286  0.026 -0.093 -0.131 -0.131
 0.564  1.287  0.287  0.027 -0.093 -0.131 -0.131
 0.566  1.287  0.287  0.027 -0.091 -0.130 -0.130
 0.568  1.287  0.287  0.028 -0.091 -0.130 -0.130
 0.570  1.287  0.288  0.028 -0.089 -0.129 -0.129
 0.572  1.287  0.288  0.028 -0.089 -0.129 -0.129
 0.574  1.288  0.288  0.028 -0.087 -0.128 -0.128
 0.576  1.288  0.289  0.028 -0.087 -0.128 -0.128
 0.578  1.288  0.289  0.028 -0.085 -0.127 -0.127
 0.580  1.288  0.289  0.029 -0.085 -0.127 -0.127
 0.582  1.288  0.289  0.029 -0.083 -0.126 -0.126
 0.584  1.288  0.289  0.029 -0.083 -0.126 -0.126
 0.586  1.289  0.290  0.030 -0.081 -0.125 -0.125
 0.588  1.289  0.290  0.030 -0.081 -0.125 -0.125
 0.590  1.289  0.290  0.030 -0.079 -0.124 -0.124
 0.592  1.289  0.290  0.030 -0.079 -0.124 -0.124
 0.594  1.288  0.290  0.031 -0.077 -0.124 -0.124
 0.596  1.288  0.290  0.031 -0.077 -0.123 -0.123
 0.598  1.288  0.291  0.031 -0.076 -0.122 -0.122
 0.600  1.288  0.291  0.031 -0.075 -0.122 -0.122
 0.602  1.288  0.291  0.031 -0.074 -0.122 -0.122
 0.604  1.288  0.291  0.032 -0.073 -0.121 -0.121
 0.606  1.287  0.291  0.032 -0.072 -0.121 -0.121
 0.608  1.287  0.291  0.032 -0.071 -0.120 -0.120
 0.610  1.287  0.292  0.033 -0.070 -0.120 -0.120
 0.612  1.287  0.292  0.033 -0.070 -0.119 -0.119
 0.614  1.287  0.292  0.034 -0.069 -0.119 -0.119
 0.616  1.286  0.292  0.034 -0.068 -0.119 -0.119
 0.618  1.286  0.292  0.034 -0.067 -0.118 -0.118
 0.620  1.285  0.293  0.035 -0.066 -0.118 -0.118
 0.622  1.284  0.293  0.035 -0.066 -0.117 -0.117
 0.624  1.284  0.293  0.035 -0.065 -0.117 -0.117
 0.626  1.283  0.293  0.035 -0.064 -0.116 -0.116
 0.628  1.283  0.294  0.036 -0.064 -0.116 -0.116
 0.630  1.282  0.294  0.036 -0.063 -0.115 -0.115
 0.632  1.282  0.294  0.037 -0.062 -0.115 -0.115
 0.634  1.282  0.294  0.037 -0.062 -0.115 -0.115
 0.636  1.282  0.294  0.038 -0.061 -0.114 -0.114
 0.638  1.281  0.295  0.038 -0.060 -0.114 -0.114
 0.640  1.281  0.295  0.038 -0.060 -0.113 -0.113
 0.642  1.280  0.295  0.038 -0.059 -0.113 -0.113
 0.644  1.280  0.295  0.039 -0.058 -0.113 -0.113
 0.646  1.280  0.295  0.039 -0.058 -0.112 -0.112
 0.648  1.279  0.296  0.040 -0.058 -0.112 -0.112
 0.650  1.279  0.296  0.040 -0.057 -0.111 -0.111
 0.652  1.279  0.296  0.040 -0.057 -0.111 -0.111
 0.654  1.278  0.297  0.041 -0.056 -0.111 -0.111
 0.656  1.278  0.297  0.041 -0.055 -0.111 -0.111
 0.658  1.278  0.297  0.041 -0.055 -0.110 -0.110
 0.660  1.277  0.298  0.041 -0.055 -0.110 -0.110
 0.662  1.277  0.299  0.041 -0.054 -0.109 -0.109
 0.664  1.277  0.299  0.041 -0.053 -0.109 -0.109
 0.666  1.277  0.300  0.041 -0.053 -0.109 -0.109
 0.668  1.277  0.301  0.041 -0.052 -0.109 -0.109
 0.670  1.276  0.302  0.041 -0.051 -0.108 -0.108
 0.672  1.276  0.303  0.041 -0.051 -0.108 -0.108
 0.674  1.276  0.304  0.041 -0.050 -0.108 -0.108
 0.676  1.276  0.305  0.040 -0.049 -0.108 -0.108
 0.678  1.276  0.307  0.040 -0.048 -0.107 -0.107
 0.680  1.276  0.308  0.040 -0.047 -0.107 -0.107
 0.682  1.276  0.310  0.039 -0.046 -0.107 -0.107
 0.684  1.276  0.311  0.039 -0.045 -0.107 -0.107
 0.686  1.276  0.313  0.038 -0.044 -0.107 -0.107
 0.688  1.276  0.315  0.038 -0.043 -0.106 -0.106
 0.690  1.276  0.317  0.038 -0.042 -0.106 -0.106
 0.692  1.276  0.319  0.037 -0.041 -0.106 -0.106
 0.694  1.276  0.321  0.036 -0.040 -0.106 -0.106
 0.696  1.276  0.323  0.035 -0.039 -0.106 -0.106
 0.698  1.276  0.325  0.035 -0.038 -0.106 -0.106
 0.700  1.276  0.328  0.034 -0.036 -0.105 -0.105
 0.702  1.276  0.330  0.033 -0.035 -0.105 -0.105
 0.704  1.276  0.333  0.032 -0.034 -0.105 -0.105
 0.706  1.276  0.335  0.031 -0.033 -0.104 -0.104
 0.708  1.276  0.338  0.030 -0.032 -0.104 -0.104
 0.710  1.277  0.342  0.029 -0.030 -0.104 -0.104
 0.712  1.277  0.345  0.028 -0.028 -0.104 -0.104
 0.714  1.277  0.348  0.027 -0.027 -0.103 -0.103
 0.716  1.277  0.351  0.026 -0.026 -0.103 -0.103
 0.718  1.277  0.355  0.025 -0.024 -0.102 -0.102
 0.720  1.277  0.358  0.024 -0.022 -0.102 -0.102
 0.722  1.277  0.362  0.023 -0.021 -0.101 -0.101
 0.724  1.278  0.365  0.022 -0.020 -0.100 -0.100
 0.726  1.278  0.368  0.021 -0.018 -0.100 -0.100
 0.728  1.278  0.371  0.021 -0.016 -0.099 -0.099
 0.730  1.278  0.375  0.021 -0.015 -0.098 -0.098
 0.732  1.279  0.378  0.021 -0.013 -0.098 -0.098
 0.734  1.279  0.381  0.020 -0.011 -0.097 -0.097
 0.736  1.279  0.383  0.020 -0.009 -0.096 -0.096
 0.738  1.280  0.386  0.021 -0.007 -0.096 -0.096
 0.740  1.280  0.388  0.021 -0.005 -0.095 -0.095
 0.742  1.280  0.391  0.021 -0.003 -0.094 -0.094
 0.744  1.281  0.393  0.021 -0.000 -0.093 -0.093
 0.746  1.281  0.395  0.022  0.002 -0.092 -0.092
 0.748  1.281  0.397  0.023  0.004 -0.091 -0.091
 0.750  1.282  0.399  0.024  0.006 -0.090 -0.090
 0.752  1.282  0.400  0.024  0.009 -0.089 -0.089
 0.754  1.282  0.402  0.025  0.012 -0.088 -0.088
 0.756  1.282  0.404  0.027  0.014 -0.087 -0.087
 0.758  1.282  0.405  0.028  0.017 -0.086 -0.086
 0.760  1.282  0.406  0.029  0.020 -0.085 -0.085
 0.762  1.283  0.406  0.031  0.022 -0.083 -0.083
 0.764  1.283  0.407  0.032  0.025 -0.082 -0.082
 0.766  1.284  0.408  0.034  0.028 -0.081 -0.081
 0.768  1.284  0.408  0.036  0.031 -0.080 -0.080
 0.770  1.285  0.408  0.038  0.034 -0.078 -0.078
 0.772  1.286  0.408  0.040  0.037 -0.077 -0.077
 0.774  1.287  0.408  0.042  0.040 -0.076 -0.076
 0.776  1.287  0.408  0.045  0.043 -0.074 -0.074
 0.778  1.289  0.407  0.048  0.046 -0.073 -0.073
 0.780  1.290  0.407  0.050  0.050 -0.072 -0.072
 0.782  1.292  0.406  0.053  0.054 -0.071 -0.071
 0.784  1.292  0.405  0.056  0.057 -0.069 -0.069
 0.786  1.294  0.404  0.059  0.061 -0.068 -0.068
 0.788  1.296  0.402  0.062  0.064 -0.066 -0.066
 0.790  1.298  0.400  0.065  0.068 -0.065 -0.065
 0.792  1.299  0.399  0.068  0.071 -0.063 -0.063
 0.794  1.301  0.397  0.071  0.075 -0.062 -0.062
 0.796  1.303  0.395  0.074  0.079 -0.060 -0.060
 0.798  1.305  0.393  0.077  0.082 -0.059 -0.059
 0.800  1.308  0.390  0.080  0.086 -0.057 -0.057
 0.802  1.310  0.387  0.083  0.089 -0.056 -0.056
 0.804  1.312  0.384  0.086  0.092 -0.054 -0.054
 0.806  1.314  0.380  0.088  0.094 -0.052 -0.052
 0.808  1.318  0.376  0.092  0.097 -0.051 -0.051
