# IsPeriodic    : True
# Period        : 0.456040 days
# Normalization : <g_mag>=0
# 
# Phase u_mag  g_mag  r_mag  i_mag  z_mag  y_mag
 0.000  0.129 -1.003 -0.826 -0.681 -0.587 -0.587
 0.002  0.129 -1.003 -0.826 -0.681 -0.587 -0.587
 0.004  0.132 -1.001 -0.826 -0.680 -0.587 -0.587
 0.006  0.135 -1.000 -0.825 -0.678 -0.586 -0.586
 0.008  0.140 -0.997 -0.824 -0.677 -0.585 -0.585
 0.010  0.146 -0.994 -0.822 -0.674 -0.583 -0.583
 0.012  0.152 -0.989 -0.819 -0.671 -0.582 -0.582
 0.014  0.162 -0.985 -0.817 -0.667 -0.580 -0.580
 0.016  0.170 -0.981 -0.815 -0.664 -0.578 -0.578
 0.018  0.181 -0.975 -0.813 -0.659 -0.576 -0.576
 0.020  0.190 -0.969 -0.809 -0.655 -0.574 -0.574
 0.022  0.201 -0.963 -0.807 -0.650 -0.571 -0.571
 0.024  0.211 -0.957 -0.803 -0.646 -0.569 -0.569
 0.026  0.222 -0.951 -0.800 -0.642 -0.567 -0.567
 0.028  0.233 -0.945 -0.797 -0.637 -0.563 -0.563
 0.030  0.242 -0.938 -0.793 -0.633 -0.561 -0.561
 0.032  0.253 -0.932 -0.789 -0.630 -0.559 -0.559
 0.034  0.263 -0.926 -0.785 -0.625 -0.556 -0.556
 0.036  0.272 -0.919 -0.781 -0.622 -0.554 -0.554
 0.038  0.282 -0.913 -0.776 -0.617 -0.551 -0.551
 0.040  0.291 -0.906 -0.773 -0.614 -0.548 -0.548
 0.042  0.302 -0.898 -0.767 -0.609 -0.545 -0.545
 0.044  0.311 -0.891 -0.763 -0.605 -0.542 -0.542
 0.046  0.321 -0.884 -0.758 -0.602 -0.539 -0.539
 0.048  0.330 -0.876 -0.752 -0.597 -0.536 -0.536
 0.050  0.340 -0.869 -0.747 -0.593 -0.533 -0.533
 0.052  0.349 -0.860 -0.741 -0.589 -0.529 -0.529
 0.054  0.359 -0.851 -0.735 -0.584 -0.526 -0.526
 0.056  0.370 -0.842 -0.729 -0.580 -0.522 -0.522
 0.058  0.379 -0.833 -0.723 -0.575 -0.519 -0.519
 0.060  0.389 -0.825 -0.716 -0.571 -0.515 -0.515
 0.062  0.398 -0.814 -0.709 -0.566 -0.511 -0.511
 0.064  0.408 -0.806 -0.703 -0.562 -0.507 -0.507
 0.066  0.417 -0.795 -0.696 -0.557 -0.503 -0.503
 0.068  0.426 -0.785 -0.689 -0.553 -0.499 -0.499
 0.070  0.436 -0.775 -0.681 -0.548 -0.495 -0.495
 0.072  0.445 -0.764 -0.674 -0.543 -0.490 -0.490
 0.074  0.455 -0.754 -0.666 -0.539 -0.486 -0.486
 0.076  0.464 -0.744 -0.660 -0.534 -0.482 -0.482
 0.078  0.474 -0.733 -0.652 -0.529 -0.477 -0.477
 0.080  0.483 -0.723 -0.645 -0.525 -0.473 -0.473
 0.082  0.491 -0.713 -0.637 -0.520 -0.469 -0.469
 0.084  0.500 -0.703 -0.629 -0.515 -0.464 -0.464
 0.086  0.510 -0.692 -0.622 -0.511 -0.460 -0.460
 0.088  0.519 -0.682 -0.615 -0.507 -0.456 -0.456
 0.090  0.527 -0.672 -0.609 -0.502 -0.452 -0.452
 0.092  0.537 -0.661 -0.602 -0.497 -0.448 -0.448
 0.094  0.546 -0.651 -0.595 -0.493 -0.444 -0.444
 0.096  0.554 -0.642 -0.588 -0.488 -0.440 -0.440
 0.098  0.563 -0.632 -0.581 -0.484 -0.436 -0.436
 0.100  0.571 -0.623 -0.575 -0.479 -0.433 -0.433
 0.102  0.581 -0.613 -0.569 -0.475 -0.429 -0.429
 0.104  0.589 -0.604 -0.562 -0.471 -0.426 -0.426
 0.106  0.596 -0.595 -0.556 -0.466 -0.422 -0.422
 0.108  0.606 -0.586 -0.551 -0.463 -0.418 -0.418
 0.110  0.614 -0.578 -0.544 -0.459 -0.414 -0.414
 0.112  0.622 -0.569 -0.538 -0.454 -0.411 -0.411
 0.114  0.630 -0.561 -0.533 -0.451 -0.408 -0.408
 0.116  0.637 -0.553 -0.527 -0.446 -0.405 -0.405
 0.118  0.645 -0.545 -0.521 -0.443 -0.402 -0.402
 0.120  0.653 -0.536 -0.516 -0.438 -0.398 -0.398
 0.122  0.661 -0.529 -0.510 -0.435 -0.395 -0.395
 0.124  0.667 -0.522 -0.504 -0.431 -0.392 -0.392
 0.126  0.675 -0.514 -0.500 -0.427 -0.389 -0.389
 0.128  0.683 -0.507 -0.494 -0.424 -0.386 -0.386
 0.130  0.689 -0.500 -0.490 -0.420 -0.383 -0.383
 0.132  0.697 -0.492 -0.485 -0.417 -0.380 -0.380
 0.134  0.704 -0.485 -0.481 -0.413 -0.378 -0.378
 0.136  0.711 -0.479 -0.475 -0.410 -0.375 -0.375
 0.138  0.718 -0.472 -0.470 -0.406 -0.372 -0.372
 0.140  0.726 -0.466 -0.466 -0.403 -0.369 -0.369
 0.142  0.732 -0.460 -0.462 -0.399 -0.367 -0.367
 0.144  0.738 -0.453 -0.458 -0.396 -0.365 -0.365
 0.146  0.744 -0.447 -0.453 -0.392 -0.362 -0.362
 0.148  0.751 -0.441 -0.449 -0.390 -0.360 -0.360
 0.150  0.757 -0.435 -0.444 -0.386 -0.357 -0.357
 0.152  0.763 -0.429 -0.441 -0.383 -0.355 -0.355
 0.154  0.770 -0.423 -0.436 -0.380 -0.353 -0.353
 0.156  0.776 -0.417 -0.432 -0.377 -0.350 -0.350
 0.158  0.782 -0.411 -0.428 -0.374 -0.348 -0.348
 0.160  0.789 -0.407 -0.424 -0.370 -0.345 -0.345
 0.162  0.793 -0.401 -0.419 -0.368 -0.343 -0.343
 0.164  0.800 -0.395 -0.416 -0.365 -0.341 -0.341
 0.166  0.806 -0.389 -0.411 -0.362 -0.338 -0.338
 0.168  0.812 -0.383 -0.408 -0.359 -0.336 -0.336
 0.170  0.817 -0.377 -0.403 -0.356 -0.333 -0.333
 0.172  0.823 -0.372 -0.399 -0.353 -0.331 -0.331
 0.174  0.829 -0.366 -0.396 -0.350 -0.329 -0.329
 0.176  0.836 -0.360 -0.391 -0.348 -0.326 -0.326
 0.178  0.840 -0.354 -0.388 -0.344 -0.324 -0.324
 0.180  0.847 -0.348 -0.383 -0.342 -0.321 -0.321
 0.182  0.853 -0.342 -0.379 -0.339 -0.319 -0.319
 0.184  0.858 -0.336 -0.375 -0.336 -0.317 -0.317
 0.186  0.864 -0.330 -0.371 -0.334 -0.314 -0.314
 0.188  0.870 -0.323 -0.367 -0.330 -0.312 -0.312
 0.190  0.875 -0.317 -0.363 -0.328 -0.309 -0.309
 0.192  0.881 -0.311 -0.359 -0.325 -0.308 -0.308
 0.194  0.886 -0.305 -0.355 -0.322 -0.305 -0.305
 0.196  0.892 -0.300 -0.351 -0.320 -0.303 -0.303
 0.198  0.899 -0.294 -0.348 -0.317 -0.301 -0.301
 0.200  0.903 -0.288 -0.343 -0.315 -0.298 -0.298
 0.202  0.910 -0.282 -0.340 -0.312 -0.296 -0.296
 0.204  0.914 -0.276 -0.335 -0.309 -0.293 -0.293
 0.206  0.921 -0.269 -0.332 -0.307 -0.291 -0.291
 0.208  0.927 -0.263 -0.329 -0.304 -0.289 -0.289
 0.210  0.932 -0.257 -0.324 -0.301 -0.286 -0.286
 0.212  0.938 -0.251 -0.321 -0.300 -0.284 -0.284
 0.214  0.943 -0.244 -0.316 -0.297 -0.281 -0.281
 0.216  0.949 -0.238 -0.313 -0.295 -0.279 -0.279
 0.218  0.954 -0.232 -0.309 -0.292 -0.277 -0.277
 0.220  0.960 -0.226 -0.305 -0.289 -0.274 -0.274
 0.222  0.965 -0.219 -0.301 -0.288 -0.272 -0.272
 0.224  0.971 -0.213 -0.298 -0.285 -0.269 -0.269
 0.226  0.976 -0.207 -0.295 -0.282 -0.267 -0.267
 0.228  0.982 -0.201 -0.290 -0.281 -0.265 -0.265
 0.230  0.987 -0.195 -0.287 -0.278 -0.263 -0.263
 0.232  0.993 -0.189 -0.283 -0.275 -0.260 -0.260
 0.234  0.998 -0.183 -0.280 -0.274 -0.258 -0.258
 0.236  1.003 -0.177 -0.277 -0.271 -0.256 -0.256
 0.238  1.009 -0.172 -0.273 -0.268 -0.253 -0.253
 0.240  1.014 -0.166 -0.270 -0.267 -0.252 -0.252
 0.242  1.018 -0.160 -0.265 -0.264 -0.249 -0.249
 0.244  1.025 -0.154 -0.262 -0.261 -0.247 -0.247
 0.246  1.029 -0.148 -0.258 -0.260 -0.244 -0.244
 0.248  1.034 -0.144 -0.255 -0.257 -0.243 -0.243
 0.250  1.039 -0.138 -0.252 -0.254 -0.240 -0.240
 0.252  1.044 -0.132 -0.248 -0.253 -0.238 -0.238
 0.254  1.048 -0.127 -0.245 -0.250 -0.236 -0.236
 0.256  1.053 -0.122 -0.243 -0.248 -0.234 -0.234
 0.258  1.058 -0.116 -0.239 -0.246 -0.232 -0.232
 0.260  1.062 -0.111 -0.236 -0.243 -0.230 -0.230
 0.262  1.067 -0.105 -0.232 -0.241 -0.228 -0.228
 0.264  1.072 -0.101 -0.229 -0.239 -0.226 -0.226
 0.266  1.077 -0.097 -0.226 -0.236 -0.224 -0.224
 0.268  1.081 -0.091 -0.222 -0.234 -0.222 -0.222
 0.270  1.085 -0.086 -0.220 -0.232 -0.220 -0.220
 0.272  1.089 -0.082 -0.216 -0.230 -0.218 -0.218
 0.274  1.094 -0.076 -0.213 -0.227 -0.216 -0.216
 0.276  1.099 -0.072 -0.210 -0.226 -0.214 -0.214
 0.278  1.102 -0.067 -0.207 -0.223 -0.212 -0.212
 0.280  1.107 -0.063 -0.204 -0.220 -0.210 -0.210
 0.282  1.110 -0.058 -0.201 -0.219 -0.208 -0.208
 0.284  1.114 -0.054 -0.198 -0.216 -0.206 -0.206
 0.286  1.119 -0.049 -0.195 -0.214 -0.204 -0.204
 0.288  1.122 -0.045 -0.192 -0.212 -0.202 -0.202
 0.290  1.125 -0.041 -0.189 -0.210 -0.200 -0.200
 0.292  1.130 -0.036 -0.186 -0.207 -0.198 -0.198
 0.294  1.133 -0.032 -0.184 -0.206 -0.196 -0.196
 0.296  1.136 -0.027 -0.180 -0.203 -0.195 -0.195
 0.298  1.141 -0.023 -0.178 -0.200 -0.192 -0.192
 0.300  1.144 -0.019 -0.175 -0.199 -0.191 -0.191
 0.302  1.147 -0.014 -0.171 -0.196 -0.189 -0.189
 0.304  1.152 -0.011 -0.169 -0.194 -0.187 -0.187
 0.306  1.155 -0.007 -0.165 -0.192 -0.185 -0.185
 0.308  1.159 -0.002 -0.163 -0.190 -0.184 -0.184
 0.310  1.162  0.002 -0.160 -0.187 -0.181 -0.181
 0.312  1.166  0.006 -0.158 -0.185 -0.180 -0.180
 0.314  1.170  0.009 -0.154 -0.183 -0.178 -0.178
 0.316  1.173  0.014 -0.151 -0.180 -0.176 -0.176
 0.318  1.177  0.018 -0.149 -0.178 -0.174 -0.174
 0.320  1.181  0.023 -0.145 -0.176 -0.172 -0.172
 0.322  1.184  0.027 -0.143 -0.174 -0.170 -0.170
 0.324  1.188  0.031 -0.139 -0.171 -0.168 -0.168
 0.326  1.192  0.034 -0.136 -0.169 -0.167 -0.167
 0.328  1.196  0.039 -0.134 -0.167 -0.164 -0.164
 0.330  1.199  0.043 -0.130 -0.165 -0.163 -0.163
 0.332  1.204  0.048 -0.128 -0.163 -0.161 -0.161
 0.334  1.207  0.051 -0.125 -0.160 -0.160 -0.160
 0.336  1.210  0.055 -0.122 -0.158 -0.157 -0.157
 0.338  1.215  0.059 -0.119 -0.156 -0.156 -0.156
 0.340  1.220  0.064 -0.117 -0.153 -0.154 -0.154
 0.342  1.223  0.068 -0.113 -0.151 -0.151 -0.151
 0.344  1.228  0.071 -0.110 -0.149 -0.150 -0.150
 0.346  1.231  0.076 -0.108 -0.146 -0.148 -0.148
 0.348  1.236  0.080 -0.104 -0.144 -0.146 -0.146
 0.350  1.239  0.083 -0.102 -0.142 -0.144 -0.144
 0.352  1.244  0.087 -0.099 -0.139 -0.143 -0.143
 0.354  1.248  0.092 -0.096 -0.137 -0.140 -0.140
 0.356  1.251  0.096 -0.093 -0.135 -0.139 -0.139
 0.358  1.256  0.099 -0.090 -0.132 -0.137 -0.137
 0.360  1.261  0.104 -0.087 -0.130 -0.135 -0.135
 0.362  1.266  0.108 -0.084 -0.128 -0.133 -0.133
 0.364  1.269  0.111 -0.082 -0.125 -0.131 -0.131
 0.366  1.273  0.115 -0.078 -0.123 -0.130 -0.130
 0.368  1.278  0.120 -0.076 -0.121 -0.127 -0.127
 0.370  1.283  0.124 -0.073 -0.118 -0.126 -0.126
 0.372  1.286  0.127 -0.070 -0.116 -0.124 -0.124
 0.374  1.291  0.131 -0.067 -0.114 -0.122 -0.122
 0.376  1.295  0.136 -0.065 -0.111 -0.120 -0.120
 0.378  1.300  0.139 -0.061 -0.109 -0.118 -0.118
 0.380  1.305  0.143 -0.059 -0.107 -0.116 -0.116
 0.382  1.308  0.148 -0.056 -0.104 -0.115 -0.115
 0.384  1.313  0.152 -0.053 -0.103 -0.112 -0.112
 0.386  1.318  0.155 -0.050 -0.100 -0.111 -0.111
 0.388  1.321  0.159 -0.048 -0.097 -0.108 -0.108
 0.390  1.325  0.164 -0.044 -0.096 -0.107 -0.107
 0.392  1.330  0.168 -0.042 -0.093 -0.104 -0.104
 0.394  1.333  0.171 -0.039 -0.091 -0.103 -0.103
 0.396  1.338  0.176 -0.036 -0.089 -0.100 -0.100
 0.398  1.341  0.180 -0.033 -0.086 -0.099 -0.099
 0.400  1.346  0.183 -0.031 -0.084 -0.096 -0.096
 0.402  1.349  0.187 -0.027 -0.082 -0.095 -0.095
 0.404  1.354  0.192 -0.025 -0.080 -0.092 -0.092
 0.406  1.357  0.196 -0.022 -0.077 -0.091 -0.091
 0.408  1.362  0.199 -0.019 -0.076 -0.088 -0.088
 0.410  1.365  0.204 -0.016 -0.073 -0.086 -0.086
 0.412  1.369  0.208 -0.014 -0.071 -0.084 -0.084
 0.414  1.373  0.212 -0.010 -0.069 -0.082 -0.082
 0.416  1.376  0.215 -0.008 -0.067 -0.080 -0.080
 0.418  1.381  0.220 -0.006 -0.064 -0.078 -0.078
 0.420  1.384  0.224 -0.002 -0.062 -0.075 -0.075
 0.422  1.387  0.229 -0.000 -0.061 -0.074 -0.074
 0.424  1.390  0.233  0.003 -0.058 -0.071 -0.071
 0.426  1.395  0.236  0.006 -0.056 -0.069 -0.069
 0.428  1.398  0.240  0.009 -0.054 -0.067 -0.067
 0.430  1.401  0.245  0.011 -0.052 -0.065 -0.065
 0.432  1.404  0.249  0.014 -0.050 -0.063 -0.063
 0.434  1.407  0.252  0.017 -0.048 -0.061 -0.061
 0.436  1.410  0.257  0.019 -0.046 -0.059 -0.059
 0.438  1.414  0.261  0.023 -0.043 -0.056 -0.056
 0.440  1.417  0.265  0.025 -0.041 -0.055 -0.055
 0.442  1.420  0.268  0.027 -0.040 -0.052 -0.052
 0.444  1.423  0.273  0.031 -0.037 -0.050 -0.050
 0.446  1.426  0.276  0.033 -0.035 -0.048 -0.048
 0.448  1.429  0.280  0.035 -0.034 -0.046 -0.046
 0.450  1.432  0.283  0.037 -0.031 -0.044 -0.044
 0.452  1.436  0.287  0.041 -0.029 -0.042 -0.042
 0.454  1.439  0.290  0.043 -0.028 -0.040 -0.040
 0.456  1.442  0.293  0.045 -0.025 -0.038 -0.038
 0.458  1.445  0.298  0.048 -0.023 -0.036 -0.036
 0.460  1.448  0.301  0.051 -0.021 -0.034 -0.034
 0.462  1.451  0.304  0.053 -0.019 -0.032 -0.032
 0.464  1.453  0.307  0.055 -0.017 -0.030 -0.030
 0.466  1.456  0.309  0.058 -0.015 -0.028 -0.028
 0.468  1.459  0.312  0.060 -0.014 -0.026 -0.026
 0.470  1.462  0.315  0.062 -0.011 -0.025 -0.025
 0.472  1.464  0.318  0.066 -0.009 -0.022 -0.022
 0.474  1.467  0.321  0.068 -0.007 -0.021 -0.021
 0.476  1.470  0.324  0.070 -0.005 -0.019 -0.019
 0.478  1.473  0.327  0.072 -0.003 -0.018 -0.018
 0.480  1.475  0.329  0.075 -0.001 -0.015 -0.015
 0.482  1.478  0.332  0.077  0.000 -0.014 -0.014
 0.484  1.481  0.334  0.079  0.003 -0.012 -0.012
 0.486  1.483  0.336  0.082  0.005 -0.010 -0.010
 0.488  1.486  0.339  0.084  0.007 -0.009 -0.009
 0.490  1.488  0.340  0.086  0.009 -0.007 -0.007
 0.492  1.491  0.343  0.088  0.011 -0.006 -0.006
 0.494  1.492  0.345  0.091  0.013 -0.004 -0.004
 0.496  1.495  0.346  0.093  0.014 -0.002 -0.002
 0.498  1.499  0.349  0.095  0.017 -0.001 -0.001
 0.500  1.500  0.351  0.097  0.019  0.001  0.001
 0.502  1.503  0.352  0.100  0.020  0.002  0.002
 0.504  1.505  0.354  0.102  0.023  0.004  0.004
 0.506  1.506  0.355  0.104  0.025  0.006  0.006
 0.508  1.510  0.357  0.105  0.027  0.007  0.007
 0.510  1.511  0.358  0.108  0.028  0.008  0.008
 0.512  1.514  0.359  0.110  0.030  0.010  0.010
 0.514  1.516  0.361  0.112  0.032  0.011  0.011
 0.516  1.517  0.362  0.113  0.034  0.013  0.013
 0.518  1.521  0.364  0.116  0.036  0.014  0.014
 0.520  1.522  0.365  0.118  0.038  0.015  0.015
 0.522  1.524  0.367  0.119  0.040  0.017  0.017
 0.524  1.525  0.368  0.121  0.041  0.018  0.018
 0.526  1.529  0.370  0.122  0.042  0.019  0.019
 0.528  1.530  0.371  0.125  0.044  0.021  0.021
 0.530  1.532  0.371  0.126  0.046  0.022  0.022
 0.532  1.533  0.373  0.128  0.048  0.023  0.023
 0.534  1.535  0.374  0.129  0.048  0.025  0.025
 0.536  1.535  0.376  0.131  0.050  0.026  0.026
 0.538  1.536  0.376  0.133  0.051  0.027  0.027
 0.540  1.538  0.377  0.134  0.052  0.028  0.028
 0.542  1.540  0.379  0.136  0.054  0.030  0.030
 0.544  1.540  0.379  0.137  0.054  0.030  0.030
 0.546  1.541  0.380  0.138  0.055  0.031  0.031
 0.548  1.543  0.380  0.139  0.057  0.033  0.033
 0.550  1.543  0.382  0.140  0.058  0.034  0.034
 0.552  1.544  0.382  0.143  0.059  0.035  0.035
 0.554  1.544  0.383  0.144  0.060  0.036  0.036
 0.556  1.544  0.383  0.145  0.061  0.037  0.037
 0.558  1.546  0.384  0.146  0.061  0.038  0.038
 0.560  1.546  0.384  0.147  0.062  0.039  0.039
 0.562  1.546  0.384  0.148  0.062  0.040  0.040
 0.564  1.547  0.386  0.150  0.063  0.041  0.041
 0.566  1.547  0.386  0.151  0.064  0.042  0.042
 0.568  1.547  0.386  0.152  0.065  0.042  0.042
 0.570  1.547  0.387  0.152  0.065  0.044  0.044
 0.572  1.547  0.387  0.153  0.066  0.045  0.045
 0.574  1.547  0.387  0.154  0.066  0.046  0.046
 0.576  1.547  0.387  0.155  0.066  0.046  0.046
 0.578  1.546  0.387  0.155  0.067  0.047  0.047
 0.580  1.546  0.389  0.156  0.067  0.048  0.048
 0.582  1.546  0.389  0.157  0.067  0.049  0.049
 0.584  1.546  0.389  0.157  0.068  0.050  0.050
 0.586  1.544  0.389  0.159  0.068  0.050  0.050
 0.588  1.544  0.389  0.159  0.068  0.051  0.051
 0.590  1.544  0.389  0.160  0.068  0.052  0.052
 0.592  1.543  0.389  0.160  0.068  0.053  0.053
 0.594  1.543  0.389  0.161  0.068  0.054  0.054
 0.596  1.543  0.389  0.161  0.068  0.054  0.054
 0.598  1.541  0.389  0.162  0.069  0.054  0.054
 0.600  1.541  0.389  0.162  0.069  0.055  0.055
 0.602  1.541  0.389  0.162  0.069  0.056  0.056
 0.604  1.540  0.389  0.162  0.070  0.057  0.057
 0.606  1.540  0.389  0.163  0.070  0.058  0.058
 0.608  1.540  0.389  0.163  0.070  0.058  0.058
 0.610  1.538  0.389  0.163  0.070  0.058  0.058
 0.612  1.538  0.389  0.163  0.071  0.059  0.059
 0.614  1.538  0.389  0.163  0.071  0.060  0.060
 0.616  1.538  0.389  0.163  0.072  0.060  0.060
 0.618  1.536  0.389  0.163  0.072  0.061  0.061
 0.620  1.536  0.389  0.163  0.072  0.062  0.062
 0.622  1.536  0.389  0.163  0.073  0.062  0.062
 0.624  1.536  0.389  0.163  0.073  0.062  0.062
 0.626  1.536  0.389  0.163  0.073  0.063  0.063
 0.628  1.535  0.389  0.162  0.074  0.063  0.063
 0.630  1.535  0.389  0.162  0.074  0.064  0.064
 0.632  1.535  0.389  0.162  0.075  0.065  0.065
 0.634  1.535  0.387  0.161  0.075  0.065  0.065
 0.636  1.535  0.387  0.161  0.075  0.066  0.066
 0.638  1.535  0.387  0.161  0.075  0.066  0.066
 0.640  1.535  0.387  0.160  0.075  0.066  0.066
 0.642  1.535  0.387  0.160  0.076  0.066  0.066
 0.644  1.535  0.387  0.159  0.076  0.067  0.067
 0.646  1.533  0.386  0.159  0.077  0.067  0.067
 0.648  1.533  0.386  0.157  0.077  0.068  0.068
 0.650  1.533  0.386  0.157  0.078  0.068  0.068
 0.652  1.533  0.386  0.156  0.078  0.069  0.069
 0.654  1.533  0.384  0.156  0.079  0.069  0.069
 0.656  1.533  0.384  0.155  0.079  0.069  0.069
 0.658  1.533  0.384  0.155  0.080  0.070  0.070
 0.660  1.533  0.384  0.155  0.080  0.070  0.070
 0.662  1.533  0.383  0.154  0.080  0.071  0.071
 0.664  1.535  0.383  0.154  0.081  0.071  0.071
 0.666  1.535  0.383  0.153  0.081  0.071  0.071
 0.668  1.535  0.382  0.153  0.081  0.071  0.071
 0.670  1.533  0.382  0.152  0.082  0.071  0.071
 0.672  1.533  0.382  0.152  0.082  0.072  0.072
 0.674  1.533  0.380  0.152  0.082  0.072  0.072
 0.676  1.533  0.380  0.151  0.082  0.073  0.073
 0.678  1.533  0.380  0.151  0.082  0.073  0.073
 0.680  1.533  0.379  0.151  0.082  0.074  0.074
 0.682  1.533  0.379  0.150  0.082  0.074  0.074
 0.684  1.533  0.377  0.150  0.082  0.075  0.075
 0.686  1.533  0.377  0.150  0.082  0.075  0.075
 0.688  1.532  0.377  0.150  0.082  0.075  0.075
 0.690  1.532  0.376  0.148  0.082  0.075  0.075
 0.692  1.532  0.376  0.148  0.082  0.075  0.075
 0.694  1.532  0.374  0.148  0.081  0.076  0.076
 0.696  1.532  0.374  0.148  0.081  0.076  0.076
 0.698  1.532  0.373  0.148  0.081  0.077  0.077
 0.700  1.530  0.373  0.147  0.081  0.077  0.077
 0.702  1.530  0.371  0.147  0.081  0.077  0.077
 0.704  1.530  0.371  0.147  0.080  0.078  0.078
 0.706  1.530  0.370  0.147  0.080  0.078  0.078
 0.708  1.529  0.370  0.147  0.079  0.079  0.079
 0.710  1.529  0.368  0.147  0.079  0.079  0.079
 0.712  1.529  0.368  0.147  0.078  0.079  0.079
 0.714  1.527  0.367  0.146  0.078  0.079  0.079
 0.716  1.527  0.367  0.146  0.077  0.079  0.079
 0.718  1.525  0.365  0.146  0.076  0.080  0.080
 0.720  1.525  0.364  0.146  0.075  0.080  0.080
 0.722  1.525  0.364  0.146  0.075  0.081  0.081
 0.724  1.524  0.362  0.146  0.075  0.081  0.081
 0.726  1.524  0.362  0.146  0.075  0.082  0.082
 0.728  1.524  0.361  0.146  0.074  0.083  0.083
 0.730  1.522  0.361  0.146  0.074  0.083  0.083
 0.732  1.522  0.361  0.146  0.074  0.083  0.083
 0.734  1.522  0.361  0.146  0.074  0.084  0.084
 0.736  1.522  0.359  0.146  0.074  0.085  0.085
 0.738  1.522  0.359  0.146  0.074  0.086  0.086
 0.740  1.522  0.359  0.146  0.074  0.087  0.087
 0.742  1.522  0.359  0.145  0.075  0.087  0.087
 0.744  1.524  0.359  0.145  0.075  0.089  0.089
 0.746  1.525  0.359  0.145  0.075  0.090  0.090
 0.748  1.525  0.359  0.145  0.076  0.091  0.091
 0.750  1.527  0.361  0.145  0.077  0.092  0.092
 0.752  1.529  0.361  0.145  0.079  0.093  0.093
 0.754  1.532  0.361  0.145  0.080  0.095  0.095
 0.756  1.533  0.361  0.145  0.082  0.095  0.095
 0.758  1.536  0.362  0.145  0.082  0.097  0.097
 0.760  1.540  0.362  0.145  0.084  0.098  0.098
 0.762  1.543  0.364  0.145  0.086  0.099  0.099
 0.764  1.546  0.364  0.145  0.089  0.101  0.101
 0.766  1.549  0.365  0.145  0.090  0.103  0.103
 0.768  1.554  0.367  0.145  0.092  0.104  0.104
 0.770  1.558  0.367  0.145  0.095  0.106  0.106
 0.772  1.562  0.368  0.145  0.097  0.107  0.107
 0.774  1.566  0.370  0.145  0.100  0.109  0.109
 0.776  1.571  0.371  0.145  0.102  0.111  0.111
 0.778  1.576  0.373  0.145  0.106  0.113  0.113
 0.780  1.580  0.374  0.144  0.109  0.115  0.115
 0.782  1.587  0.376  0.144  0.112  0.117  0.117
 0.784  1.593  0.377  0.144  0.116  0.119  0.119
 0.786  1.598  0.380  0.145  0.119  0.121  0.121
 0.788  1.604  0.382  0.145  0.123  0.123  0.123
 0.790  1.612  0.383  0.145  0.126  0.125  0.125
 0.792  1.618  0.384  0.145  0.130  0.127  0.127
 0.794  1.626  0.387  0.146  0.134  0.129  0.129
 0.796  1.634  0.389  0.147  0.137  0.131  0.131
 0.798  1.642  0.390  0.147  0.141  0.133  0.133
 0.800  1.648  0.393  0.150  0.145  0.135  0.135
 0.802  1.656  0.395  0.151  0.149  0.138  0.138
 0.804  1.664  0.396  0.152  0.152  0.140  0.140
 0.806  1.670  0.399  0.154  0.156  0.142  0.142
 0.808  1.677  0.401  0.155  0.159  0.144  0.144
