# IsPeriodic    : True
# Period        : 0.560523 days
# Normalization : <g_mag>=0
# 
# Phase u_mag  g_mag  r_mag  i_mag  z_mag  y_mag
 0.000  0.366 -0.605 -0.507 -0.537 -0.515 -0.515
 0.002  0.366 -0.605 -0.507 -0.537 -0.515 -0.515
 0.004  0.367 -0.604 -0.507 -0.537 -0.515 -0.515
 0.006  0.368 -0.603 -0.507 -0.535 -0.514 -0.514
 0.008  0.370 -0.601 -0.506 -0.534 -0.514 -0.514
 0.010  0.372 -0.598 -0.505 -0.532 -0.514 -0.514
 0.012  0.374 -0.596 -0.505 -0.530 -0.513 -0.513
 0.014  0.376 -0.592 -0.504 -0.528 -0.513 -0.513
 0.016  0.379 -0.588 -0.503 -0.525 -0.512 -0.512
 0.018  0.382 -0.584 -0.503 -0.523 -0.512 -0.512
 0.020  0.384 -0.579 -0.501 -0.520 -0.511 -0.511
 0.022  0.388 -0.575 -0.501 -0.517 -0.510 -0.510
 0.024  0.391 -0.571 -0.499 -0.514 -0.510 -0.510
 0.026  0.394 -0.565 -0.498 -0.511 -0.508 -0.508
 0.028  0.398 -0.560 -0.497 -0.508 -0.508 -0.508
 0.030  0.401 -0.555 -0.495 -0.505 -0.507 -0.507
 0.032  0.403 -0.550 -0.493 -0.503 -0.506 -0.506
 0.034  0.407 -0.546 -0.492 -0.500 -0.505 -0.505
 0.036  0.411 -0.541 -0.490 -0.498 -0.504 -0.504
 0.038  0.414 -0.536 -0.488 -0.495 -0.503 -0.503
 0.040  0.417 -0.530 -0.486 -0.492 -0.502 -0.502
 0.042  0.421 -0.526 -0.484 -0.489 -0.501 -0.501
 0.044  0.425 -0.521 -0.481 -0.487 -0.500 -0.500
 0.046  0.428 -0.516 -0.479 -0.484 -0.499 -0.499
 0.048  0.432 -0.511 -0.476 -0.481 -0.497 -0.497
 0.050  0.436 -0.505 -0.473 -0.478 -0.496 -0.496
 0.052  0.440 -0.501 -0.471 -0.476 -0.495 -0.495
 0.054  0.444 -0.496 -0.468 -0.473 -0.493 -0.493
 0.056  0.448 -0.491 -0.465 -0.470 -0.492 -0.492
 0.058  0.453 -0.485 -0.462 -0.467 -0.490 -0.490
 0.060  0.457 -0.480 -0.459 -0.464 -0.489 -0.489
 0.062  0.462 -0.476 -0.456 -0.460 -0.487 -0.487
 0.064  0.467 -0.471 -0.452 -0.458 -0.486 -0.486
 0.066  0.471 -0.465 -0.449 -0.455 -0.484 -0.484
 0.068  0.476 -0.460 -0.446 -0.452 -0.482 -0.482
 0.070  0.482 -0.456 -0.442 -0.448 -0.480 -0.480
 0.072  0.487 -0.450 -0.440 -0.445 -0.479 -0.479
 0.074  0.492 -0.445 -0.436 -0.442 -0.477 -0.477
 0.076  0.497 -0.439 -0.433 -0.439 -0.475 -0.475
 0.078  0.502 -0.434 -0.429 -0.436 -0.474 -0.474
 0.080  0.508 -0.430 -0.426 -0.433 -0.471 -0.471
 0.082  0.512 -0.424 -0.423 -0.430 -0.470 -0.470
 0.084  0.517 -0.419 -0.419 -0.427 -0.468 -0.468
 0.086  0.522 -0.413 -0.417 -0.424 -0.466 -0.466
 0.088  0.527 -0.409 -0.413 -0.421 -0.465 -0.465
 0.090  0.532 -0.403 -0.410 -0.418 -0.462 -0.462
 0.092  0.537 -0.398 -0.407 -0.415 -0.461 -0.461
 0.094  0.542 -0.393 -0.404 -0.412 -0.459 -0.459
 0.096  0.547 -0.388 -0.402 -0.409 -0.458 -0.458
 0.098  0.551 -0.383 -0.399 -0.406 -0.456 -0.456
 0.100  0.556 -0.378 -0.395 -0.403 -0.454 -0.454
 0.102  0.560 -0.372 -0.393 -0.400 -0.453 -0.453
 0.104  0.565 -0.367 -0.390 -0.397 -0.451 -0.451
 0.106  0.569 -0.363 -0.387 -0.394 -0.450 -0.450
 0.108  0.573 -0.358 -0.385 -0.392 -0.448 -0.448
 0.110  0.578 -0.353 -0.382 -0.389 -0.447 -0.447
 0.112  0.582 -0.348 -0.380 -0.386 -0.445 -0.445
 0.114  0.586 -0.343 -0.377 -0.384 -0.443 -0.443
 0.116  0.591 -0.339 -0.374 -0.381 -0.442 -0.442
 0.118  0.594 -0.334 -0.372 -0.379 -0.441 -0.441
 0.120  0.598 -0.330 -0.370 -0.376 -0.439 -0.439
 0.122  0.602 -0.325 -0.367 -0.373 -0.438 -0.438
 0.124  0.605 -0.320 -0.364 -0.371 -0.436 -0.436
 0.126  0.609 -0.317 -0.362 -0.368 -0.435 -0.435
 0.128  0.613 -0.312 -0.360 -0.366 -0.434 -0.434
 0.130  0.617 -0.307 -0.358 -0.364 -0.432 -0.432
 0.132  0.620 -0.303 -0.355 -0.361 -0.431 -0.431
 0.134  0.623 -0.298 -0.353 -0.359 -0.430 -0.430
 0.136  0.627 -0.295 -0.351 -0.357 -0.429 -0.429
 0.138  0.630 -0.290 -0.349 -0.354 -0.427 -0.427
 0.140  0.633 -0.286 -0.347 -0.352 -0.426 -0.426
 0.142  0.636 -0.282 -0.345 -0.350 -0.425 -0.425
 0.144  0.639 -0.278 -0.343 -0.347 -0.423 -0.423
 0.146  0.642 -0.273 -0.341 -0.345 -0.422 -0.422
 0.148  0.646 -0.270 -0.339 -0.343 -0.421 -0.421
 0.150  0.648 -0.266 -0.336 -0.341 -0.420 -0.420
 0.152  0.651 -0.262 -0.334 -0.339 -0.418 -0.418
 0.154  0.655 -0.258 -0.332 -0.337 -0.417 -0.417
 0.156  0.657 -0.254 -0.330 -0.334 -0.416 -0.416
 0.158  0.660 -0.250 -0.328 -0.333 -0.415 -0.415
 0.160  0.663 -0.248 -0.326 -0.330 -0.414 -0.414
 0.162  0.666 -0.244 -0.323 -0.329 -0.412 -0.412
 0.164  0.669 -0.240 -0.321 -0.327 -0.411 -0.411
 0.166  0.672 -0.236 -0.319 -0.325 -0.410 -0.410
 0.168  0.674 -0.232 -0.317 -0.323 -0.408 -0.408
 0.170  0.678 -0.228 -0.315 -0.321 -0.407 -0.407
 0.172  0.680 -0.226 -0.313 -0.319 -0.406 -0.406
 0.174  0.683 -0.222 -0.310 -0.317 -0.405 -0.405
 0.176  0.687 -0.218 -0.308 -0.315 -0.404 -0.404
 0.178  0.689 -0.214 -0.306 -0.313 -0.402 -0.402
 0.180  0.692 -0.210 -0.304 -0.311 -0.401 -0.401
 0.182  0.696 -0.206 -0.302 -0.310 -0.400 -0.400
 0.184  0.698 -0.203 -0.299 -0.308 -0.398 -0.398
 0.186  0.701 -0.200 -0.297 -0.306 -0.397 -0.397
 0.188  0.705 -0.196 -0.295 -0.304 -0.396 -0.396
 0.190  0.707 -0.192 -0.293 -0.302 -0.395 -0.395
 0.192  0.710 -0.188 -0.291 -0.300 -0.393 -0.393
 0.194  0.714 -0.184 -0.288 -0.298 -0.392 -0.392
 0.196  0.716 -0.181 -0.286 -0.297 -0.390 -0.390
 0.198  0.719 -0.177 -0.284 -0.295 -0.389 -0.389
 0.200  0.723 -0.173 -0.282 -0.293 -0.388 -0.388
 0.202  0.725 -0.169 -0.280 -0.292 -0.387 -0.387
 0.204  0.728 -0.165 -0.278 -0.290 -0.385 -0.385
 0.206  0.732 -0.161 -0.275 -0.288 -0.384 -0.384
 0.208  0.735 -0.158 -0.273 -0.286 -0.382 -0.382
 0.210  0.737 -0.154 -0.271 -0.285 -0.381 -0.381
 0.212  0.741 -0.150 -0.269 -0.283 -0.380 -0.380
 0.214  0.744 -0.146 -0.267 -0.282 -0.379 -0.379
 0.216  0.747 -0.142 -0.265 -0.280 -0.377 -0.377
 0.218  0.751 -0.138 -0.263 -0.278 -0.376 -0.376
 0.220  0.753 -0.135 -0.260 -0.276 -0.375 -0.375
 0.222  0.756 -0.131 -0.258 -0.275 -0.373 -0.373
 0.224  0.760 -0.127 -0.256 -0.274 -0.372 -0.372
 0.226  0.763 -0.123 -0.254 -0.272 -0.370 -0.370
 0.228  0.765 -0.118 -0.251 -0.271 -0.369 -0.369
 0.230  0.769 -0.114 -0.249 -0.269 -0.368 -0.368
 0.232  0.772 -0.111 -0.247 -0.267 -0.367 -0.367
 0.234  0.775 -0.107 -0.245 -0.266 -0.365 -0.365
 0.236  0.778 -0.103 -0.242 -0.264 -0.364 -0.364
 0.238  0.781 -0.099 -0.240 -0.262 -0.362 -0.362
 0.240  0.784 -0.095 -0.238 -0.261 -0.361 -0.361
 0.242  0.787 -0.091 -0.236 -0.260 -0.360 -0.360
 0.244  0.790 -0.088 -0.233 -0.258 -0.359 -0.359
 0.246  0.792 -0.084 -0.231 -0.257 -0.358 -0.358
 0.248  0.796 -0.080 -0.229 -0.255 -0.356 -0.356
 0.250  0.799 -0.077 -0.227 -0.253 -0.355 -0.355
 0.252  0.802 -0.073 -0.225 -0.252 -0.353 -0.353
 0.254  0.805 -0.069 -0.223 -0.250 -0.352 -0.352
 0.256  0.807 -0.066 -0.221 -0.249 -0.351 -0.351
 0.258  0.811 -0.063 -0.219 -0.247 -0.350 -0.350
 0.260  0.813 -0.059 -0.216 -0.246 -0.349 -0.349
 0.262  0.815 -0.056 -0.214 -0.244 -0.348 -0.348
 0.264  0.819 -0.052 -0.212 -0.243 -0.346 -0.346
 0.266  0.821 -0.049 -0.210 -0.241 -0.345 -0.345
 0.268  0.825 -0.045 -0.207 -0.240 -0.344 -0.344
 0.270  0.827 -0.043 -0.205 -0.238 -0.342 -0.342
 0.272  0.829 -0.040 -0.203 -0.237 -0.341 -0.341
 0.274  0.833 -0.036 -0.200 -0.235 -0.340 -0.340
 0.276  0.835 -0.033 -0.198 -0.234 -0.339 -0.339
 0.278  0.838 -0.030 -0.196 -0.232 -0.337 -0.337
 0.280  0.841 -0.027 -0.194 -0.231 -0.336 -0.336
 0.282  0.843 -0.024 -0.191 -0.229 -0.335 -0.335
 0.284  0.846 -0.020 -0.189 -0.228 -0.334 -0.334
 0.286  0.848 -0.018 -0.187 -0.226 -0.333 -0.333
 0.288  0.852 -0.015 -0.185 -0.225 -0.332 -0.332
 0.290  0.854 -0.012 -0.183 -0.224 -0.331 -0.331
 0.292  0.857 -0.010 -0.181 -0.222 -0.329 -0.329
 0.294  0.859 -0.007 -0.179 -0.221 -0.328 -0.328
 0.296  0.861 -0.004 -0.176 -0.219 -0.327 -0.327
 0.298  0.864 -0.001 -0.174 -0.217 -0.326 -0.326
 0.300  0.867  0.002 -0.172 -0.216 -0.324 -0.324
 0.302  0.870  0.003 -0.170 -0.214 -0.323 -0.323
 0.304  0.872  0.006 -0.168 -0.213 -0.322 -0.322
 0.306  0.875  0.009 -0.166 -0.211 -0.321 -0.321
 0.308  0.877  0.012 -0.164 -0.210 -0.319 -0.319
 0.310  0.880  0.014 -0.161 -0.208 -0.318 -0.318
 0.312  0.882  0.017 -0.159 -0.207 -0.317 -0.317
 0.314  0.884  0.020 -0.157 -0.206 -0.316 -0.316
 0.316  0.887  0.022 -0.155 -0.204 -0.314 -0.314
 0.318  0.889  0.025 -0.153 -0.203 -0.313 -0.313
 0.320  0.891  0.027 -0.151 -0.201 -0.312 -0.312
 0.322  0.893  0.030 -0.149 -0.200 -0.310 -0.310
 0.324  0.896  0.032 -0.147 -0.198 -0.309 -0.309
 0.326  0.898  0.035 -0.145 -0.196 -0.308 -0.308
 0.328  0.901  0.038 -0.143 -0.195 -0.307 -0.307
 0.330  0.903  0.041 -0.141 -0.193 -0.305 -0.305
 0.332  0.905  0.044 -0.139 -0.192 -0.304 -0.304
 0.334  0.907  0.046 -0.136 -0.191 -0.303 -0.303
 0.336  0.910  0.049 -0.134 -0.189 -0.301 -0.301
 0.338  0.912  0.051 -0.132 -0.188 -0.300 -0.300
 0.340  0.914  0.054 -0.130 -0.186 -0.298 -0.298
 0.342  0.916  0.057 -0.128 -0.185 -0.297 -0.297
 0.344  0.918  0.060 -0.126 -0.183 -0.296 -0.296
 0.346  0.921  0.063 -0.124 -0.181 -0.294 -0.294
 0.348  0.923  0.066 -0.122 -0.180 -0.293 -0.293
 0.350  0.925  0.069 -0.120 -0.178 -0.291 -0.291
 0.352  0.927  0.072 -0.118 -0.177 -0.290 -0.290
 0.354  0.929  0.074 -0.116 -0.175 -0.289 -0.289
 0.356  0.931  0.077 -0.114 -0.174 -0.287 -0.287
 0.358  0.933  0.080 -0.112 -0.172 -0.286 -0.286
 0.360  0.935  0.083 -0.110 -0.171 -0.285 -0.285
 0.362  0.937  0.086 -0.109 -0.169 -0.283 -0.283
 0.364  0.939  0.089 -0.107 -0.167 -0.281 -0.281
 0.366  0.941  0.092 -0.105 -0.166 -0.280 -0.280
 0.368  0.944  0.095 -0.103 -0.164 -0.279 -0.279
 0.370  0.945  0.097 -0.101 -0.163 -0.277 -0.277
 0.372  0.947  0.100 -0.099 -0.161 -0.276 -0.276
 0.374  0.949  0.103 -0.097 -0.160 -0.274 -0.274
 0.376  0.951  0.106 -0.096 -0.158 -0.273 -0.273
 0.378  0.953  0.109 -0.094 -0.156 -0.272 -0.272
 0.380  0.955  0.112 -0.092 -0.155 -0.270 -0.270
 0.382  0.958  0.115 -0.090 -0.153 -0.269 -0.269
 0.384  0.959  0.118 -0.089 -0.152 -0.268 -0.268
 0.386  0.962  0.120 -0.087 -0.150 -0.267 -0.267
 0.388  0.963  0.123 -0.086 -0.149 -0.265 -0.265
 0.390  0.966  0.126 -0.084 -0.148 -0.263 -0.263
 0.392  0.967  0.129 -0.082 -0.146 -0.262 -0.262
 0.394  0.970  0.132 -0.080 -0.145 -0.261 -0.261
 0.396  0.972  0.135 -0.079 -0.143 -0.260 -0.260
 0.398  0.974  0.137 -0.077 -0.141 -0.258 -0.258
 0.400  0.976  0.140 -0.075 -0.140 -0.257 -0.257
 0.402  0.978  0.142 -0.074 -0.138 -0.256 -0.256
 0.404  0.980  0.144 -0.073 -0.137 -0.254 -0.254
 0.406  0.982  0.147 -0.071 -0.135 -0.253 -0.253
 0.408  0.984  0.149 -0.070 -0.134 -0.252 -0.252
 0.410  0.986  0.152 -0.068 -0.132 -0.251 -0.251
 0.412  0.988  0.154 -0.067 -0.131 -0.249 -0.249
 0.414  0.990  0.157 -0.065 -0.130 -0.248 -0.248
 0.416  0.992  0.159 -0.064 -0.128 -0.247 -0.247
 0.418  0.994  0.162 -0.063 -0.127 -0.245 -0.245
 0.420  0.996  0.164 -0.061 -0.125 -0.244 -0.244
 0.422  0.999  0.165 -0.060 -0.124 -0.243 -0.243
 0.424  1.000  0.167 -0.058 -0.123 -0.242 -0.242
 0.426  1.003  0.170 -0.057 -0.121 -0.241 -0.241
 0.428  1.004  0.172 -0.056 -0.120 -0.240 -0.240
 0.430  1.007  0.174 -0.054 -0.119 -0.238 -0.238
 0.432  1.008  0.176 -0.053 -0.117 -0.237 -0.237
 0.434  1.011  0.178 -0.052 -0.116 -0.236 -0.236
 0.436  1.013  0.180 -0.050 -0.114 -0.235 -0.235
 0.438  1.015  0.182 -0.049 -0.113 -0.233 -0.233
 0.440  1.017  0.184 -0.048 -0.112 -0.232 -0.232
 0.442  1.019  0.186 -0.046 -0.110 -0.231 -0.231
 0.444  1.021  0.188 -0.045 -0.109 -0.230 -0.230
 0.446  1.022  0.189 -0.044 -0.107 -0.228 -0.228
 0.448  1.025  0.191 -0.042 -0.106 -0.227 -0.227
 0.450  1.027  0.192 -0.041 -0.105 -0.226 -0.226
 0.452  1.028  0.194 -0.040 -0.103 -0.225 -0.225
 0.454  1.030  0.196 -0.038 -0.102 -0.224 -0.224
 0.456  1.031  0.197 -0.037 -0.101 -0.223 -0.223
 0.458  1.033  0.199 -0.036 -0.099 -0.222 -0.222
 0.460  1.035  0.201 -0.035 -0.098 -0.220 -0.220
 0.462  1.036  0.202 -0.033 -0.096 -0.219 -0.219
 0.464  1.038  0.204 -0.032 -0.095 -0.218 -0.218
 0.466  1.040  0.205 -0.031 -0.094 -0.217 -0.217
 0.468  1.041  0.207 -0.029 -0.093 -0.216 -0.216
 0.470  1.043  0.208 -0.028 -0.091 -0.215 -0.215
 0.472  1.044  0.210 -0.027 -0.090 -0.213 -0.213
 0.474  1.045  0.211 -0.025 -0.089 -0.212 -0.212
 0.476  1.047  0.212 -0.024 -0.087 -0.211 -0.211
 0.478  1.048  0.213 -0.023 -0.086 -0.210 -0.210
 0.480  1.050  0.215 -0.021 -0.085 -0.209 -0.209
 0.482  1.051  0.216 -0.020 -0.084 -0.207 -0.207
 0.484  1.052  0.217 -0.018 -0.082 -0.206 -0.206
 0.486  1.053  0.218 -0.017 -0.081 -0.205 -0.205
 0.488  1.054  0.220 -0.016 -0.080 -0.204 -0.204
 0.490  1.055  0.221 -0.015 -0.078 -0.203 -0.203
 0.492  1.056  0.222 -0.014 -0.077 -0.201 -0.201
 0.494  1.058  0.223 -0.012 -0.076 -0.200 -0.200
 0.496  1.059  0.224 -0.011 -0.074 -0.199 -0.199
 0.498  1.059  0.225 -0.010 -0.073 -0.198 -0.198
 0.500  1.060  0.226 -0.008 -0.071 -0.197 -0.197
 0.502  1.061  0.228 -0.007 -0.070 -0.196 -0.196
 0.504  1.062  0.229 -0.006 -0.069 -0.195 -0.195
 0.506  1.063  0.230 -0.005 -0.067 -0.193 -0.193
 0.508  1.063  0.231 -0.004 -0.066 -0.192 -0.192
 0.510  1.064  0.231 -0.002 -0.065 -0.191 -0.191
 0.512  1.065  0.232 -0.001 -0.064 -0.190 -0.190
 0.514  1.066  0.233 -0.000 -0.063 -0.189 -0.189
 0.516  1.067  0.234  0.001 -0.061 -0.188 -0.188
 0.518  1.068  0.234  0.003 -0.060 -0.187 -0.187
 0.520  1.068  0.235  0.003 -0.059 -0.186 -0.186
 0.522  1.069  0.235  0.005 -0.058 -0.185 -0.185
 0.524  1.069  0.236  0.006 -0.057 -0.184 -0.184
 0.526  1.070  0.237  0.007 -0.056 -0.183 -0.183
 0.528  1.071  0.238  0.008 -0.055 -0.182 -0.182
 0.530  1.072  0.238  0.009 -0.053 -0.181 -0.181
 0.532  1.073  0.239  0.010 -0.052 -0.180 -0.180
 0.534  1.073  0.240  0.011 -0.052 -0.179 -0.179
 0.536  1.073  0.240  0.012 -0.051 -0.178 -0.178
 0.538  1.074  0.241  0.013 -0.050 -0.177 -0.177
 0.540  1.075  0.241  0.013 -0.049 -0.177 -0.177
 0.542  1.075  0.242  0.015 -0.048 -0.175 -0.175
 0.544  1.076  0.242  0.015 -0.048 -0.174 -0.174
 0.546  1.077  0.243  0.017 -0.047 -0.174 -0.174
 0.548  1.077  0.243  0.017 -0.046 -0.173 -0.173
 0.550  1.077  0.244  0.018 -0.045 -0.172 -0.172
 0.552  1.078  0.244  0.019 -0.045 -0.171 -0.171
 0.554  1.079  0.244  0.020 -0.044 -0.170 -0.170
 0.556  1.079  0.245  0.021 -0.044 -0.170 -0.170
 0.558  1.080  0.245  0.022 -0.043 -0.169 -0.169
 0.560  1.080  0.246  0.023 -0.042 -0.168 -0.168
 0.562  1.081  0.246  0.024 -0.042 -0.167 -0.167
 0.564  1.082  0.246  0.024 -0.042 -0.166 -0.166
 0.566  1.082  0.246  0.025 -0.041 -0.165 -0.165
 0.568  1.082  0.247  0.026 -0.041 -0.165 -0.165
 0.570  1.082  0.247  0.026 -0.041 -0.164 -0.164
 0.572  1.083  0.247  0.027 -0.040 -0.163 -0.163
 0.574  1.083  0.247  0.028 -0.040 -0.163 -0.163
 0.576  1.084  0.247  0.028 -0.040 -0.162 -0.162
 0.578  1.084  0.247  0.029 -0.040 -0.161 -0.161
 0.580  1.085  0.247  0.030 -0.040 -0.161 -0.161
 0.582  1.085  0.247  0.030 -0.040 -0.160 -0.160
 0.584  1.086  0.247  0.031 -0.039 -0.159 -0.159
 0.586  1.086  0.247  0.031 -0.039 -0.159 -0.159
 0.588  1.086  0.247  0.032 -0.039 -0.157 -0.157
 0.590  1.086  0.247  0.032 -0.039 -0.157 -0.157
 0.592  1.086  0.247  0.033 -0.038 -0.156 -0.156
 0.594  1.087  0.247  0.033 -0.038 -0.155 -0.155
 0.596  1.087  0.247  0.034 -0.038 -0.155 -0.155
 0.598  1.087  0.247  0.034 -0.038 -0.154 -0.154
 0.600  1.088  0.247  0.034 -0.038 -0.153 -0.153
 0.602  1.088  0.247  0.035 -0.038 -0.153 -0.153
 0.604  1.088  0.247  0.035 -0.037 -0.152 -0.152
 0.606  1.089  0.247  0.036 -0.037 -0.151 -0.151
 0.608  1.089  0.247  0.036 -0.037 -0.151 -0.151
 0.610  1.089  0.246  0.036 -0.037 -0.150 -0.150
 0.612  1.089  0.246  0.036 -0.037 -0.149 -0.149
 0.614  1.090  0.246  0.036 -0.037 -0.148 -0.148
 0.616  1.090  0.246  0.036 -0.036 -0.147 -0.147
 0.618  1.090  0.246  0.037 -0.036 -0.147 -0.147
 0.620  1.090  0.246  0.037 -0.036 -0.146 -0.146
 0.622  1.090  0.246  0.037 -0.035 -0.145 -0.145
 0.624  1.090  0.246  0.037 -0.035 -0.145 -0.145
 0.626  1.091  0.246  0.037 -0.035 -0.144 -0.144
 0.628  1.091  0.246  0.037 -0.035 -0.143 -0.143
 0.630  1.091  0.245  0.037 -0.035 -0.142 -0.142
 0.632  1.091  0.245  0.037 -0.034 -0.142 -0.142
 0.634  1.091  0.245  0.037 -0.034 -0.141 -0.141
 0.636  1.091  0.245  0.037 -0.034 -0.140 -0.140
 0.638  1.091  0.245  0.037 -0.034 -0.139 -0.139
 0.640  1.091  0.245  0.037 -0.034 -0.138 -0.138
 0.642  1.091  0.245  0.037 -0.033 -0.138 -0.138
 0.644  1.091  0.245  0.037 -0.033 -0.137 -0.137
 0.646  1.091  0.244  0.038 -0.033 -0.136 -0.136
 0.648  1.091  0.244  0.038 -0.033 -0.136 -0.136
 0.650  1.091  0.244  0.038 -0.032 -0.135 -0.135
 0.652  1.091  0.244  0.038 -0.032 -0.134 -0.134
 0.654  1.091  0.244  0.038 -0.031 -0.133 -0.133
 0.656  1.090  0.244  0.038 -0.031 -0.133 -0.133
 0.658  1.090  0.243  0.039 -0.031 -0.132 -0.132
 0.660  1.090  0.243  0.040 -0.031 -0.131 -0.131
 0.662  1.090  0.243  0.040 -0.031 -0.130 -0.130
 0.664  1.090  0.243  0.041 -0.030 -0.129 -0.129
 0.666  1.090  0.243  0.041 -0.030 -0.128 -0.128
 0.668  1.089  0.243  0.042 -0.030 -0.127 -0.127
 0.670  1.089  0.243  0.043 -0.030 -0.127 -0.127
 0.672  1.089  0.243  0.043 -0.030 -0.126 -0.126
 0.674  1.089  0.243  0.044 -0.030 -0.125 -0.125
 0.676  1.088  0.243  0.045 -0.030 -0.124 -0.124
 0.678  1.088  0.243  0.046 -0.030 -0.123 -0.123
 0.680  1.088  0.244  0.047 -0.030 -0.122 -0.122
 0.682  1.087  0.244  0.048 -0.030 -0.121 -0.121
 0.684  1.087  0.244  0.049 -0.030 -0.120 -0.120
 0.686  1.087  0.245  0.050 -0.030 -0.119 -0.119
 0.688  1.086  0.245  0.051 -0.030 -0.118 -0.118
 0.690  1.086  0.246  0.052 -0.030 -0.117 -0.117
 0.692  1.086  0.246  0.053 -0.030 -0.116 -0.116
 0.694  1.086  0.247  0.054 -0.030 -0.115 -0.115
 0.696  1.086  0.248  0.055 -0.030 -0.114 -0.114
 0.698  1.086  0.248  0.057 -0.030 -0.113 -0.113
 0.700  1.085  0.249  0.058 -0.030 -0.112 -0.112
 0.702  1.085  0.250  0.059 -0.030 -0.111 -0.111
 0.704  1.084  0.251  0.062 -0.031 -0.110 -0.110
 0.706  1.084  0.252  0.063 -0.031 -0.109 -0.109
 0.708  1.083  0.253  0.064 -0.031 -0.108 -0.108
 0.710  1.083  0.254  0.066 -0.031 -0.107 -0.107
 0.712  1.082  0.255  0.068 -0.032 -0.106 -0.106
 0.714  1.082  0.256  0.069 -0.032 -0.105 -0.105
 0.716  1.082  0.257  0.071 -0.033 -0.103 -0.103
 0.718  1.081  0.257  0.073 -0.033 -0.102 -0.102
 0.720  1.081  0.259  0.074 -0.034 -0.101 -0.101
 0.722  1.080  0.260  0.076 -0.034 -0.100 -0.100
 0.724  1.080  0.261  0.078 -0.034 -0.098 -0.098
 0.726  1.080  0.263  0.081 -0.034 -0.097 -0.097
 0.728  1.080  0.264  0.083 -0.035 -0.095 -0.095
 0.730  1.080  0.266  0.085 -0.035 -0.093 -0.093
 0.732  1.080  0.267  0.087 -0.035 -0.092 -0.092
 0.734  1.080  0.269  0.089 -0.035 -0.090 -0.090
 0.736  1.081  0.271  0.091 -0.035 -0.088 -0.088
 0.738  1.082  0.272  0.094 -0.035 -0.086 -0.086
 0.740  1.082  0.274  0.096 -0.035 -0.084 -0.084
 0.742  1.083  0.276  0.099 -0.034 -0.082 -0.082
 0.744  1.085  0.277  0.101 -0.034 -0.080 -0.080
 0.746  1.086  0.279  0.104 -0.034 -0.078 -0.078
 0.748  1.087  0.280  0.106 -0.033 -0.075 -0.075
 0.750  1.088  0.282  0.109 -0.033 -0.073 -0.073
 0.752  1.090  0.284  0.112 -0.031 -0.070 -0.070
 0.754  1.091  0.286  0.114 -0.031 -0.067 -0.067
 0.756  1.094  0.288  0.117 -0.030 -0.065 -0.065
 0.758  1.095  0.290  0.120 -0.029 -0.063 -0.063
 0.760  1.097  0.293  0.123 -0.028 -0.060 -0.060
 0.762  1.100  0.295  0.126 -0.027 -0.057 -0.057
 0.764  1.102  0.297  0.129 -0.025 -0.054 -0.054
 0.766  1.105  0.299  0.132 -0.024 -0.051 -0.051
 0.768  1.107  0.301  0.135 -0.023 -0.048 -0.048
 0.770  1.110  0.303  0.138 -0.021 -0.045 -0.045
 0.772  1.114  0.305  0.142 -0.019 -0.042 -0.042
 0.774  1.117  0.307  0.145 -0.017 -0.038 -0.038
 0.776  1.120  0.309  0.148 -0.016 -0.034 -0.034
 0.778  1.124  0.312  0.152 -0.013 -0.030 -0.030
 0.780  1.128  0.314  0.154 -0.012 -0.027 -0.027
 0.782  1.132  0.316  0.158 -0.009 -0.023 -0.023
 0.784  1.135  0.319  0.161 -0.007 -0.019 -0.019
 0.786  1.139  0.321  0.163 -0.005 -0.016 -0.016
 0.788  1.143  0.324  0.165 -0.002 -0.012 -0.012
 0.790  1.147  0.326  0.167 -0.000 -0.009 -0.009
 0.792  1.151  0.329  0.169  0.002 -0.006 -0.006
 0.794  1.155  0.332  0.170  0.005 -0.002 -0.002
 0.796  1.159  0.335  0.171  0.007  0.000  0.000
 0.798  1.162  0.338  0.171  0.010  0.003  0.003
 0.800  1.165  0.341  0.171  0.013  0.006  0.006
 0.802  1.169  0.344  0.170  0.015  0.008  0.008
 0.804  1.172  0.347  0.169  0.017  0.009  0.009
 0.806  1.175  0.349  0.168  0.020  0.011  0.011
 0.808  1.178  0.350  0.167  0.022  0.012  0.012
