# IsPeriodic    : True
# Period        : 0.613534 days
# Normalization : <g_mag>=0
# 
# Phase u_mag  g_mag  r_mag  i_mag  z_mag  y_mag
 0.000  0.803 -0.393 -0.465 -0.461 -0.472 -0.472
 0.002  0.804 -0.392 -0.465 -0.461 -0.472 -0.472
 0.004  0.804 -0.391 -0.465 -0.460 -0.472 -0.472
 0.006  0.804 -0.391 -0.465 -0.460 -0.471 -0.471
 0.008  0.805 -0.389 -0.464 -0.459 -0.471 -0.471
 0.010  0.805 -0.388 -0.464 -0.457 -0.470 -0.470
 0.012  0.806 -0.387 -0.463 -0.456 -0.470 -0.470
 0.014  0.806 -0.385 -0.463 -0.454 -0.469 -0.469
 0.016  0.807 -0.383 -0.463 -0.452 -0.468 -0.468
 0.018  0.808 -0.380 -0.462 -0.450 -0.467 -0.467
 0.020  0.809 -0.378 -0.461 -0.448 -0.466 -0.466
 0.022  0.810 -0.376 -0.461 -0.446 -0.465 -0.465
 0.024  0.811 -0.373 -0.460 -0.444 -0.464 -0.464
 0.026  0.812 -0.371 -0.459 -0.442 -0.464 -0.464
 0.028  0.813 -0.369 -0.458 -0.440 -0.463 -0.463
 0.030  0.814 -0.366 -0.458 -0.438 -0.462 -0.462
 0.032  0.816 -0.364 -0.457 -0.436 -0.461 -0.461
 0.034  0.817 -0.362 -0.456 -0.434 -0.460 -0.460
 0.036  0.818 -0.359 -0.454 -0.432 -0.460 -0.460
 0.038  0.819 -0.357 -0.454 -0.430 -0.459 -0.459
 0.040  0.820 -0.355 -0.453 -0.428 -0.458 -0.458
 0.042  0.822 -0.352 -0.451 -0.426 -0.457 -0.457
 0.044  0.823 -0.350 -0.450 -0.424 -0.456 -0.456
 0.046  0.825 -0.347 -0.449 -0.423 -0.456 -0.456
 0.048  0.826 -0.344 -0.448 -0.421 -0.455 -0.455
 0.050  0.828 -0.342 -0.446 -0.419 -0.454 -0.454
 0.052  0.829 -0.339 -0.445 -0.418 -0.453 -0.453
 0.054  0.831 -0.337 -0.443 -0.416 -0.453 -0.453
 0.056  0.833 -0.333 -0.442 -0.414 -0.452 -0.452
 0.058  0.835 -0.331 -0.440 -0.412 -0.451 -0.451
 0.060  0.836 -0.327 -0.439 -0.411 -0.450 -0.450
 0.062  0.838 -0.324 -0.437 -0.409 -0.450 -0.450
 0.064  0.840 -0.321 -0.435 -0.408 -0.449 -0.449
 0.066  0.842 -0.318 -0.433 -0.406 -0.448 -0.448
 0.068  0.844 -0.315 -0.432 -0.405 -0.447 -0.447
 0.070  0.846 -0.312 -0.430 -0.403 -0.447 -0.447
 0.072  0.848 -0.309 -0.428 -0.402 -0.446 -0.446
 0.074  0.850 -0.305 -0.426 -0.400 -0.445 -0.445
 0.076  0.852 -0.302 -0.424 -0.399 -0.445 -0.445
 0.078  0.854 -0.298 -0.422 -0.398 -0.444 -0.444
 0.080  0.856 -0.295 -0.420 -0.396 -0.443 -0.443
 0.082  0.859 -0.292 -0.419 -0.395 -0.443 -0.443
 0.084  0.861 -0.289 -0.416 -0.394 -0.442 -0.442
 0.086  0.863 -0.285 -0.414 -0.392 -0.441 -0.441
 0.088  0.865 -0.282 -0.413 -0.391 -0.440 -0.440
 0.090  0.867 -0.279 -0.411 -0.390 -0.440 -0.440
 0.092  0.869 -0.276 -0.409 -0.389 -0.439 -0.439
 0.094  0.871 -0.272 -0.407 -0.388 -0.438 -0.438
 0.096  0.874 -0.269 -0.405 -0.386 -0.438 -0.438
 0.098  0.876 -0.265 -0.403 -0.385 -0.437 -0.437
 0.100  0.878 -0.262 -0.401 -0.384 -0.436 -0.436
 0.102  0.880 -0.259 -0.399 -0.383 -0.435 -0.435
 0.104  0.882 -0.256 -0.397 -0.381 -0.434 -0.434
 0.106  0.884 -0.253 -0.395 -0.380 -0.433 -0.433
 0.108  0.886 -0.250 -0.393 -0.379 -0.433 -0.433
 0.110  0.889 -0.247 -0.392 -0.378 -0.432 -0.432
 0.112  0.890 -0.243 -0.390 -0.377 -0.431 -0.431
 0.114  0.893 -0.240 -0.388 -0.376 -0.430 -0.430
 0.116  0.895 -0.238 -0.386 -0.374 -0.429 -0.429
 0.118  0.897 -0.234 -0.384 -0.373 -0.428 -0.428
 0.120  0.899 -0.231 -0.382 -0.372 -0.427 -0.427
 0.122  0.901 -0.229 -0.380 -0.371 -0.426 -0.426
 0.124  0.903 -0.225 -0.378 -0.370 -0.425 -0.425
 0.126  0.905 -0.223 -0.376 -0.369 -0.424 -0.424
 0.128  0.907 -0.220 -0.374 -0.367 -0.423 -0.423
 0.130  0.909 -0.217 -0.372 -0.366 -0.422 -0.422
 0.132  0.911 -0.214 -0.370 -0.365 -0.421 -0.421
 0.134  0.913 -0.211 -0.369 -0.364 -0.420 -0.420
 0.136  0.915 -0.208 -0.366 -0.363 -0.419 -0.419
 0.138  0.918 -0.205 -0.365 -0.362 -0.417 -0.417
 0.140  0.920 -0.203 -0.363 -0.360 -0.416 -0.416
 0.142  0.921 -0.200 -0.361 -0.359 -0.415 -0.415
 0.144  0.924 -0.197 -0.359 -0.358 -0.414 -0.414
 0.146  0.926 -0.194 -0.357 -0.357 -0.413 -0.413
 0.148  0.928 -0.191 -0.355 -0.356 -0.412 -0.412
 0.150  0.930 -0.189 -0.353 -0.355 -0.411 -0.411
 0.152  0.932 -0.186 -0.352 -0.354 -0.409 -0.409
 0.154  0.934 -0.183 -0.350 -0.353 -0.408 -0.408
 0.156  0.936 -0.181 -0.348 -0.352 -0.407 -0.407
 0.158  0.938 -0.178 -0.346 -0.351 -0.405 -0.405
 0.160  0.940 -0.176 -0.344 -0.349 -0.404 -0.404
 0.162  0.942 -0.172 -0.343 -0.348 -0.403 -0.403
 0.164  0.944 -0.170 -0.341 -0.348 -0.402 -0.402
 0.166  0.946 -0.167 -0.339 -0.346 -0.400 -0.400
 0.168  0.948 -0.165 -0.338 -0.345 -0.399 -0.399
 0.170  0.950 -0.162 -0.336 -0.344 -0.398 -0.398
 0.172  0.952 -0.160 -0.334 -0.343 -0.397 -0.397
 0.174  0.954 -0.157 -0.333 -0.342 -0.396 -0.396
 0.176  0.956 -0.154 -0.331 -0.341 -0.395 -0.395
 0.178  0.957 -0.152 -0.330 -0.340 -0.394 -0.394
 0.180  0.959 -0.149 -0.328 -0.339 -0.393 -0.393
 0.182  0.961 -0.147 -0.326 -0.338 -0.392 -0.392
 0.184  0.963 -0.145 -0.325 -0.337 -0.391 -0.391
 0.186  0.965 -0.142 -0.323 -0.336 -0.390 -0.390
 0.188  0.967 -0.139 -0.322 -0.335 -0.389 -0.389
 0.190  0.969 -0.137 -0.321 -0.334 -0.388 -0.388
 0.192  0.971 -0.134 -0.319 -0.333 -0.387 -0.387
 0.194  0.973 -0.132 -0.317 -0.332 -0.386 -0.386
 0.196  0.975 -0.129 -0.316 -0.331 -0.385 -0.385
 0.198  0.976 -0.127 -0.315 -0.330 -0.384 -0.384
 0.200  0.978 -0.125 -0.313 -0.329 -0.383 -0.383
 0.202  0.980 -0.122 -0.312 -0.328 -0.382 -0.382
 0.204  0.982 -0.119 -0.311 -0.328 -0.382 -0.382
 0.206  0.984 -0.118 -0.309 -0.327 -0.381 -0.381
 0.208  0.986 -0.115 -0.309 -0.326 -0.380 -0.380
 0.210  0.987 -0.112 -0.307 -0.325 -0.379 -0.379
 0.212  0.990 -0.110 -0.306 -0.324 -0.378 -0.378
 0.214  0.991 -0.108 -0.304 -0.323 -0.378 -0.378
 0.216  0.993 -0.105 -0.304 -0.322 -0.377 -0.377
 0.218  0.995 -0.103 -0.302 -0.322 -0.376 -0.376
 0.220  0.997 -0.101 -0.301 -0.321 -0.376 -0.376
 0.222  0.998 -0.098 -0.300 -0.320 -0.375 -0.375
 0.224  1.000 -0.096 -0.299 -0.319 -0.374 -0.374
 0.226  1.002 -0.094 -0.297 -0.318 -0.374 -0.374
 0.228  1.004 -0.092 -0.296 -0.317 -0.373 -0.373
 0.230  1.005 -0.089 -0.295 -0.317 -0.373 -0.373
 0.232  1.007 -0.087 -0.294 -0.316 -0.372 -0.372
 0.234  1.009 -0.085 -0.293 -0.315 -0.371 -0.371
 0.236  1.011 -0.082 -0.291 -0.314 -0.371 -0.371
 0.238  1.012 -0.080 -0.290 -0.313 -0.370 -0.370
 0.240  1.014 -0.078 -0.289 -0.313 -0.369 -0.369
 0.242  1.015 -0.076 -0.288 -0.312 -0.369 -0.369
 0.244  1.017 -0.074 -0.287 -0.311 -0.368 -0.368
 0.246  1.019 -0.071 -0.285 -0.310 -0.367 -0.367
 0.248  1.020 -0.069 -0.284 -0.309 -0.367 -0.367
 0.250  1.022 -0.067 -0.282 -0.309 -0.366 -0.366
 0.252  1.024 -0.065 -0.282 -0.308 -0.365 -0.365
 0.254  1.025 -0.063 -0.280 -0.307 -0.364 -0.364
 0.256  1.027 -0.061 -0.279 -0.306 -0.364 -0.364
 0.258  1.029 -0.058 -0.278 -0.306 -0.363 -0.363
 0.260  1.030 -0.056 -0.276 -0.305 -0.362 -0.362
 0.262  1.032 -0.054 -0.275 -0.304 -0.361 -0.361
 0.264  1.033 -0.052 -0.273 -0.303 -0.360 -0.360
 0.266  1.035 -0.050 -0.273 -0.302 -0.360 -0.360
 0.268  1.037 -0.048 -0.271 -0.301 -0.359 -0.359
 0.270  1.038 -0.046 -0.270 -0.301 -0.358 -0.358
 0.272  1.039 -0.044 -0.269 -0.300 -0.357 -0.357
 0.274  1.041 -0.041 -0.267 -0.299 -0.356 -0.356
 0.276  1.042 -0.039 -0.266 -0.298 -0.355 -0.355
 0.278  1.044 -0.037 -0.265 -0.297 -0.355 -0.355
 0.280  1.045 -0.035 -0.263 -0.297 -0.354 -0.354
 0.282  1.047 -0.034 -0.262 -0.296 -0.353 -0.353
 0.284  1.048 -0.032 -0.260 -0.295 -0.352 -0.352
 0.286  1.050 -0.030 -0.259 -0.295 -0.351 -0.351
 0.288  1.051 -0.028 -0.258 -0.294 -0.350 -0.350
 0.290  1.053 -0.026 -0.256 -0.293 -0.349 -0.349
 0.292  1.054 -0.024 -0.255 -0.292 -0.348 -0.348
 0.294  1.055 -0.022 -0.254 -0.291 -0.347 -0.347
 0.296  1.057 -0.020 -0.253 -0.291 -0.346 -0.346
 0.298  1.059 -0.018 -0.251 -0.290 -0.345 -0.345
 0.300  1.060 -0.016 -0.250 -0.289 -0.344 -0.344
 0.302  1.061 -0.014 -0.249 -0.288 -0.343 -0.343
 0.304  1.062 -0.012 -0.247 -0.287 -0.342 -0.342
 0.306  1.064 -0.010 -0.246 -0.286 -0.341 -0.341
 0.308  1.066 -0.008 -0.245 -0.286 -0.340 -0.340
 0.310  1.067 -0.006 -0.243 -0.285 -0.339 -0.339
 0.312  1.068 -0.004 -0.242 -0.284 -0.338 -0.338
 0.314  1.069 -0.003 -0.241 -0.284 -0.337 -0.337
 0.316  1.071 -0.001 -0.239 -0.283 -0.336 -0.336
 0.318  1.073  0.001 -0.238 -0.282 -0.335 -0.335
 0.320  1.074  0.003 -0.237 -0.281 -0.335 -0.335
 0.322  1.075  0.005 -0.236 -0.280 -0.334 -0.334
 0.324  1.077  0.007 -0.234 -0.280 -0.333 -0.333
 0.326  1.078  0.008 -0.233 -0.279 -0.332 -0.332
 0.328  1.080  0.010 -0.232 -0.278 -0.331 -0.331
 0.330  1.081  0.012 -0.231 -0.277 -0.330 -0.330
 0.332  1.082  0.014 -0.229 -0.276 -0.329 -0.329
 0.334  1.084  0.016 -0.228 -0.275 -0.328 -0.328
 0.336  1.085  0.018 -0.227 -0.275 -0.328 -0.328
 0.338  1.087  0.019 -0.225 -0.274 -0.327 -0.327
 0.340  1.088  0.021 -0.225 -0.273 -0.326 -0.326
 0.342  1.089  0.023 -0.223 -0.273 -0.325 -0.325
 0.344  1.091  0.025 -0.222 -0.272 -0.324 -0.324
 0.346  1.092  0.026 -0.221 -0.271 -0.324 -0.324
 0.348  1.093  0.028 -0.219 -0.270 -0.323 -0.323
 0.350  1.095  0.030 -0.218 -0.269 -0.322 -0.322
 0.352  1.096  0.031 -0.217 -0.268 -0.321 -0.321
 0.354  1.098  0.033 -0.216 -0.268 -0.321 -0.321
 0.356  1.099  0.035 -0.214 -0.267 -0.320 -0.320
 0.358  1.100  0.036 -0.213 -0.266 -0.319 -0.319
 0.360  1.102  0.038 -0.212 -0.265 -0.319 -0.319
 0.362  1.103  0.040 -0.211 -0.265 -0.318 -0.318
 0.364  1.105  0.041 -0.210 -0.264 -0.317 -0.317
 0.366  1.106  0.043 -0.208 -0.263 -0.317 -0.317
 0.368  1.107  0.045 -0.207 -0.262 -0.316 -0.316
 0.370  1.109  0.047 -0.206 -0.261 -0.315 -0.315
 0.372  1.110  0.049 -0.205 -0.260 -0.315 -0.315
 0.374  1.111  0.050 -0.203 -0.260 -0.314 -0.314
 0.376  1.112  0.052 -0.203 -0.259 -0.314 -0.314
 0.378  1.113  0.053 -0.201 -0.258 -0.313 -0.313
 0.380  1.115  0.055 -0.200 -0.257 -0.312 -0.312
 0.382  1.116  0.056 -0.199 -0.256 -0.312 -0.312
 0.384  1.117  0.058 -0.198 -0.255 -0.311 -0.311
 0.386  1.118  0.059 -0.197 -0.255 -0.310 -0.310
 0.388  1.120  0.061 -0.196 -0.254 -0.310 -0.310
 0.390  1.121  0.063 -0.194 -0.253 -0.309 -0.309
 0.392  1.122  0.064 -0.194 -0.252 -0.308 -0.308
 0.394  1.123  0.066 -0.192 -0.252 -0.308 -0.308
 0.396  1.124  0.067 -0.191 -0.251 -0.307 -0.307
 0.398  1.125  0.069 -0.190 -0.250 -0.306 -0.306
 0.400  1.126  0.070 -0.189 -0.249 -0.305 -0.305
 0.402  1.127  0.072 -0.188 -0.248 -0.304 -0.304
 0.404  1.128  0.073 -0.187 -0.248 -0.304 -0.304
 0.406  1.130  0.074 -0.186 -0.247 -0.303 -0.303
 0.408  1.131  0.076 -0.185 -0.246 -0.302 -0.302
 0.410  1.131  0.078 -0.184 -0.245 -0.301 -0.301
 0.412  1.132  0.079 -0.183 -0.244 -0.301 -0.301
 0.414  1.134  0.080 -0.182 -0.244 -0.300 -0.300
 0.416  1.134  0.081 -0.181 -0.243 -0.299 -0.299
 0.418  1.135  0.083 -0.180 -0.242 -0.298 -0.298
 0.420  1.136  0.085 -0.179 -0.242 -0.297 -0.297
 0.422  1.137  0.086 -0.177 -0.241 -0.297 -0.297
 0.424  1.138  0.087 -0.177 -0.240 -0.296 -0.296
 0.426  1.139  0.089 -0.176 -0.239 -0.295 -0.295
 0.428  1.140  0.090 -0.175 -0.239 -0.294 -0.294
 0.430  1.141  0.091 -0.174 -0.238 -0.293 -0.293
 0.432  1.142  0.092 -0.172 -0.237 -0.292 -0.292
 0.434  1.142  0.094 -0.172 -0.236 -0.291 -0.291
 0.436  1.143  0.095 -0.171 -0.236 -0.290 -0.290
 0.438  1.144  0.096 -0.170 -0.235 -0.290 -0.290
 0.440  1.145  0.098 -0.169 -0.234 -0.289 -0.289
 0.442  1.146  0.099 -0.168 -0.234 -0.288 -0.288
 0.444  1.147  0.100 -0.167 -0.233 -0.287 -0.287
 0.446  1.148  0.101 -0.166 -0.232 -0.286 -0.286
 0.448  1.149  0.103 -0.165 -0.232 -0.285 -0.285
 0.450  1.149  0.104 -0.164 -0.231 -0.284 -0.284
 0.452  1.150  0.105 -0.163 -0.230 -0.283 -0.283
 0.454  1.151  0.106 -0.162 -0.229 -0.283 -0.283
 0.456  1.152  0.107 -0.161 -0.229 -0.282 -0.282
 0.458  1.153  0.109 -0.160 -0.228 -0.281 -0.281
 0.460  1.154  0.110 -0.159 -0.227 -0.280 -0.280
 0.462  1.155  0.111 -0.159 -0.227 -0.279 -0.279
 0.464  1.156  0.112 -0.158 -0.226 -0.279 -0.279
 0.466  1.156  0.113 -0.156 -0.225 -0.278 -0.278
 0.468  1.158  0.114 -0.155 -0.224 -0.277 -0.277
 0.470  1.159  0.115 -0.155 -0.224 -0.276 -0.276
 0.472  1.160  0.116 -0.154 -0.223 -0.276 -0.276
 0.474  1.160  0.118 -0.153 -0.223 -0.275 -0.275
 0.476  1.161  0.118 -0.152 -0.222 -0.274 -0.274
 0.478  1.162  0.120 -0.151 -0.221 -0.273 -0.273
 0.480  1.163  0.121 -0.150 -0.221 -0.273 -0.273
 0.482  1.164  0.122 -0.149 -0.220 -0.272 -0.272
 0.484  1.165  0.123 -0.148 -0.219 -0.271 -0.271
 0.486  1.166  0.123 -0.147 -0.218 -0.271 -0.271
 0.488  1.167  0.125 -0.146 -0.218 -0.270 -0.270
 0.490  1.168  0.125 -0.146 -0.217 -0.270 -0.270
 0.492  1.169  0.127 -0.145 -0.216 -0.269 -0.269
 0.494  1.170  0.127 -0.144 -0.216 -0.268 -0.268
 0.496  1.171  0.129 -0.143 -0.215 -0.268 -0.268
 0.498  1.173  0.129 -0.142 -0.214 -0.267 -0.267
 0.500  1.174  0.130 -0.141 -0.214 -0.266 -0.266
 0.502  1.175  0.131 -0.141 -0.213 -0.266 -0.266
 0.504  1.176  0.132 -0.140 -0.213 -0.265 -0.265
 0.506  1.177  0.133 -0.139 -0.212 -0.265 -0.265
 0.508  1.178  0.134 -0.138 -0.211 -0.264 -0.264
 0.510  1.179  0.134 -0.137 -0.211 -0.264 -0.264
 0.512  1.180  0.135 -0.136 -0.210 -0.263 -0.263
 0.514  1.181  0.136 -0.135 -0.209 -0.263 -0.263
 0.516  1.181  0.137 -0.135 -0.209 -0.262 -0.262
 0.518  1.182  0.138 -0.134 -0.208 -0.262 -0.262
 0.520  1.183  0.138 -0.133 -0.207 -0.261 -0.261
 0.522  1.184  0.139 -0.132 -0.207 -0.261 -0.261
 0.524  1.185  0.140 -0.132 -0.206 -0.260 -0.260
 0.526  1.185  0.141 -0.131 -0.206 -0.260 -0.260
 0.528  1.186  0.142 -0.130 -0.205 -0.259 -0.259
 0.530  1.187  0.142 -0.129 -0.205 -0.259 -0.259
 0.532  1.187  0.143 -0.128 -0.204 -0.258 -0.258
 0.534  1.188  0.143 -0.128 -0.204 -0.258 -0.258
 0.536  1.188  0.144 -0.127 -0.203 -0.257 -0.257
 0.538  1.189  0.145 -0.126 -0.203 -0.257 -0.257
 0.540  1.189  0.145 -0.126 -0.203 -0.256 -0.256
 0.542  1.190  0.145 -0.125 -0.202 -0.256 -0.256
 0.544  1.190  0.146 -0.124 -0.202 -0.256 -0.256
 0.546  1.191  0.147 -0.124 -0.201 -0.255 -0.255
 0.548  1.191  0.147 -0.123 -0.201 -0.255 -0.255
 0.550  1.191  0.148 -0.122 -0.201 -0.254 -0.254
 0.552  1.191  0.148 -0.122 -0.200 -0.254 -0.254
 0.554  1.192  0.149 -0.121 -0.200 -0.253 -0.253
 0.556  1.192  0.149 -0.120 -0.200 -0.253 -0.253
 0.558  1.192  0.150 -0.120 -0.199 -0.252 -0.252
 0.560  1.192  0.150 -0.119 -0.199 -0.252 -0.252
 0.562  1.192  0.151 -0.119 -0.199 -0.252 -0.252
 0.564  1.192  0.151 -0.118 -0.199 -0.251 -0.251
 0.566  1.192  0.151 -0.117 -0.198 -0.251 -0.251
 0.568  1.192  0.152 -0.117 -0.198 -0.250 -0.250
 0.570  1.192  0.152 -0.116 -0.198 -0.250 -0.250
 0.572  1.192  0.153 -0.116 -0.198 -0.250 -0.250
 0.574  1.192  0.153 -0.115 -0.198 -0.249 -0.249
 0.576  1.192  0.153 -0.115 -0.198 -0.249 -0.249
 0.578  1.191  0.153 -0.114 -0.198 -0.248 -0.248
 0.580  1.191  0.153 -0.114 -0.198 -0.248 -0.248
 0.582  1.191  0.154 -0.113 -0.198 -0.248 -0.248
 0.584  1.191  0.154 -0.113 -0.198 -0.247 -0.247
 0.586  1.191  0.154 -0.112 -0.198 -0.247 -0.247
 0.588  1.191  0.154 -0.112 -0.198 -0.246 -0.246
 0.590  1.190  0.154 -0.111 -0.198 -0.246 -0.246
 0.592  1.190  0.154 -0.111 -0.198 -0.245 -0.245
 0.594  1.190  0.155 -0.111 -0.198 -0.245 -0.245
 0.596  1.190  0.155 -0.111 -0.198 -0.245 -0.245
 0.598  1.190  0.155 -0.110 -0.197 -0.244 -0.244
 0.600  1.190  0.156 -0.110 -0.197 -0.244 -0.244
 0.602  1.190  0.156 -0.109 -0.197 -0.243 -0.243
 0.604  1.190  0.156 -0.109 -0.197 -0.243 -0.243
 0.606  1.190  0.156 -0.109 -0.197 -0.243 -0.243
 0.608  1.189  0.156 -0.109 -0.197 -0.242 -0.242
 0.610  1.189  0.156 -0.108 -0.197 -0.242 -0.242
 0.612  1.189  0.157 -0.108 -0.197 -0.241 -0.241
 0.614  1.189  0.157 -0.108 -0.197 -0.241 -0.241
 0.616  1.189  0.157 -0.108 -0.197 -0.241 -0.241
 0.618  1.189  0.158 -0.107 -0.197 -0.240 -0.240
 0.620  1.189  0.158 -0.107 -0.197 -0.240 -0.240
 0.622  1.189  0.158 -0.107 -0.197 -0.239 -0.239
 0.624  1.189  0.158 -0.107 -0.196 -0.239 -0.239
 0.626  1.189  0.158 -0.107 -0.196 -0.239 -0.239
 0.628  1.189  0.158 -0.107 -0.196 -0.238 -0.238
 0.630  1.189  0.158 -0.106 -0.196 -0.238 -0.238
 0.632  1.189  0.159 -0.106 -0.196 -0.237 -0.237
 0.634  1.189  0.159 -0.106 -0.196 -0.237 -0.237
 0.636  1.190  0.159 -0.106 -0.196 -0.236 -0.236
 0.638  1.190  0.159 -0.106 -0.195 -0.236 -0.236
 0.640  1.190  0.160 -0.106 -0.195 -0.236 -0.236
 0.642  1.190  0.160 -0.106 -0.195 -0.235 -0.235
 0.644  1.190  0.160 -0.106 -0.195 -0.235 -0.235
 0.646  1.190  0.160 -0.106 -0.195 -0.234 -0.234
 0.648  1.190  0.160 -0.106 -0.194 -0.234 -0.234
 0.650  1.190  0.160 -0.106 -0.194 -0.234 -0.234
 0.652  1.191  0.160 -0.106 -0.194 -0.233 -0.233
 0.654  1.191  0.160 -0.106 -0.194 -0.233 -0.233
 0.656  1.191  0.161 -0.106 -0.193 -0.232 -0.232
 0.658  1.191  0.161 -0.106 -0.193 -0.232 -0.232
 0.660  1.191  0.161 -0.106 -0.193 -0.231 -0.231
 0.662  1.191  0.161 -0.106 -0.193 -0.231 -0.231
 0.664  1.192  0.161 -0.106 -0.192 -0.230 -0.230
 0.666  1.192  0.162 -0.105 -0.192 -0.230 -0.230
 0.668  1.192  0.162 -0.105 -0.192 -0.230 -0.230
 0.670  1.192  0.162 -0.105 -0.192 -0.229 -0.229
 0.672  1.192  0.162 -0.104 -0.192 -0.229 -0.229
 0.674  1.192  0.162 -0.104 -0.192 -0.228 -0.228
 0.676  1.192  0.162 -0.104 -0.192 -0.228 -0.228
 0.678  1.192  0.162 -0.103 -0.191 -0.227 -0.227
 0.680  1.193  0.162 -0.103 -0.191 -0.227 -0.227
 0.682  1.193  0.162 -0.102 -0.191 -0.226 -0.226
 0.684  1.193  0.162 -0.102 -0.191 -0.226 -0.226
 0.686  1.193  0.162 -0.102 -0.191 -0.225 -0.225
 0.688  1.194  0.163 -0.101 -0.191 -0.225 -0.225
 0.690  1.194  0.163 -0.100 -0.191 -0.224 -0.224
 0.692  1.194  0.163 -0.100 -0.191 -0.224 -0.224
 0.694  1.194  0.163 -0.099 -0.191 -0.223 -0.223
 0.696  1.195  0.163 -0.099 -0.191 -0.223 -0.223
 0.698  1.195  0.163 -0.098 -0.191 -0.223 -0.223
 0.700  1.195  0.164 -0.097 -0.191 -0.222 -0.222
 0.702  1.196  0.164 -0.097 -0.191 -0.221 -0.221
 0.704  1.196  0.164 -0.096 -0.191 -0.221 -0.221
 0.706  1.196  0.164 -0.095 -0.191 -0.221 -0.221
 0.708  1.196  0.164 -0.094 -0.191 -0.220 -0.220
 0.710  1.196  0.164 -0.094 -0.192 -0.219 -0.219
 0.712  1.197  0.164 -0.093 -0.192 -0.219 -0.219
 0.714  1.197  0.164 -0.092 -0.192 -0.218 -0.218
 0.716  1.197  0.164 -0.091 -0.192 -0.218 -0.218
 0.718  1.198  0.164 -0.090 -0.192 -0.217 -0.217
 0.720  1.198  0.164 -0.089 -0.192 -0.217 -0.217
 0.722  1.198  0.164 -0.089 -0.193 -0.216 -0.216
 0.724  1.199  0.164 -0.088 -0.193 -0.216 -0.216
 0.726  1.199  0.164 -0.086 -0.193 -0.215 -0.215
 0.728  1.199  0.165 -0.085 -0.193 -0.215 -0.215
 0.730  1.200  0.165 -0.084 -0.194 -0.214 -0.214
 0.732  1.201  0.165 -0.083 -0.194 -0.214 -0.214
 0.734  1.201  0.166 -0.082 -0.194 -0.213 -0.213
 0.736  1.202  0.167 -0.080 -0.194 -0.212 -0.212
 0.738  1.203  0.168 -0.079 -0.194 -0.212 -0.212
 0.740  1.203  0.169 -0.078 -0.194 -0.211 -0.211
 0.742  1.204  0.169 -0.076 -0.194 -0.210 -0.210
 0.744  1.205  0.171 -0.075 -0.194 -0.210 -0.210
 0.746  1.206  0.172 -0.073 -0.194 -0.209 -0.209
 0.748  1.207  0.173 -0.072 -0.194 -0.208 -0.208
 0.750  1.208  0.174 -0.071 -0.193 -0.207 -0.207
 0.752  1.209  0.176 -0.069 -0.193 -0.207 -0.207
 0.754  1.210  0.178 -0.067 -0.192 -0.206 -0.206
 0.756  1.210  0.179 -0.066 -0.192 -0.205 -0.205
 0.758  1.211  0.181 -0.064 -0.191 -0.205 -0.205
 0.760  1.213  0.183 -0.062 -0.190 -0.204 -0.204
 0.762  1.214  0.184 -0.061 -0.189 -0.203 -0.203
 0.764  1.215  0.187 -0.059 -0.188 -0.202 -0.202
 0.766  1.216  0.189 -0.057 -0.187 -0.201 -0.201
 0.768  1.217  0.191 -0.055 -0.186 -0.201 -0.201
 0.770  1.219  0.193 -0.053 -0.185 -0.200 -0.200
 0.772  1.220  0.196 -0.051 -0.184 -0.199 -0.199
 0.774  1.222  0.198 -0.049 -0.183 -0.198 -0.198
 0.776  1.223  0.202 -0.046 -0.182 -0.197 -0.197
 0.778  1.225  0.204 -0.044 -0.180 -0.196 -0.196
 0.780  1.227  0.207 -0.042 -0.179 -0.195 -0.195
 0.782  1.228  0.210 -0.040 -0.177 -0.194 -0.194
 0.784  1.230  0.213 -0.037 -0.175 -0.193 -0.193
 0.786  1.232  0.216 -0.036 -0.174 -0.192 -0.192
 0.788  1.233  0.220 -0.033 -0.172 -0.191 -0.191
 0.790  1.235  0.223 -0.031 -0.170 -0.190 -0.190
 0.792  1.236  0.226 -0.029 -0.168 -0.189 -0.189
 0.794  1.237  0.229 -0.027 -0.166 -0.188 -0.188
 0.796  1.239  0.233 -0.026 -0.164 -0.187 -0.187
 0.798  1.239  0.235 -0.024 -0.162 -0.186 -0.186
 0.800  1.240  0.238 -0.023 -0.160 -0.185 -0.185
 0.802  1.241  0.241 -0.022 -0.157 -0.184 -0.184
 0.804  1.242  0.244 -0.020 -0.155 -0.183 -0.183
 0.806  1.242  0.246 -0.019 -0.153 -0.183 -0.183
 0.808  1.243  0.247 -0.018 -0.151 -0.182 -0.182
