# IsPeriodic    : True
# Period        : 0.600652 days
# Normalization : <g_mag>=0
# 
# Phase u_mag  g_mag  r_mag  i_mag  z_mag  y_mag
 0.000  0.604 -0.503 -0.518 -0.495 -0.539 -0.539
 0.002  0.604 -0.503 -0.518 -0.495 -0.539 -0.539
 0.004  0.605 -0.502 -0.518 -0.494 -0.539 -0.539
 0.006  0.606 -0.501 -0.518 -0.494 -0.539 -0.539
 0.008  0.606 -0.500 -0.517 -0.493 -0.538 -0.538
 0.010  0.608 -0.497 -0.517 -0.492 -0.538 -0.538
 0.012  0.609 -0.495 -0.516 -0.491 -0.537 -0.537
 0.014  0.611 -0.492 -0.515 -0.490 -0.536 -0.536
 0.016  0.613 -0.488 -0.515 -0.490 -0.536 -0.536
 0.018  0.615 -0.485 -0.514 -0.488 -0.535 -0.535
 0.020  0.617 -0.481 -0.513 -0.487 -0.534 -0.534
 0.022  0.619 -0.478 -0.512 -0.486 -0.533 -0.533
 0.024  0.622 -0.474 -0.511 -0.485 -0.532 -0.532
 0.026  0.624 -0.469 -0.510 -0.483 -0.531 -0.531
 0.028  0.626 -0.465 -0.509 -0.482 -0.530 -0.530
 0.030  0.628 -0.461 -0.508 -0.481 -0.529 -0.529
 0.032  0.631 -0.457 -0.507 -0.480 -0.527 -0.527
 0.034  0.633 -0.453 -0.506 -0.479 -0.526 -0.526
 0.036  0.636 -0.449 -0.504 -0.478 -0.524 -0.524
 0.038  0.639 -0.445 -0.503 -0.476 -0.523 -0.523
 0.040  0.642 -0.441 -0.502 -0.475 -0.521 -0.521
 0.042  0.644 -0.437 -0.500 -0.474 -0.519 -0.519
 0.044  0.647 -0.433 -0.499 -0.473 -0.517 -0.517
 0.046  0.650 -0.429 -0.497 -0.472 -0.515 -0.515
 0.048  0.653 -0.425 -0.495 -0.470 -0.512 -0.512
 0.050  0.655 -0.420 -0.494 -0.469 -0.510 -0.510
 0.052  0.658 -0.416 -0.492 -0.468 -0.508 -0.508
 0.054  0.661 -0.412 -0.489 -0.466 -0.506 -0.506
 0.056  0.664 -0.408 -0.488 -0.465 -0.504 -0.504
 0.058  0.668 -0.403 -0.485 -0.463 -0.501 -0.501
 0.060  0.670 -0.399 -0.484 -0.462 -0.499 -0.499
 0.062  0.674 -0.395 -0.481 -0.460 -0.496 -0.496
 0.064  0.677 -0.391 -0.479 -0.459 -0.494 -0.494
 0.066  0.681 -0.387 -0.477 -0.458 -0.492 -0.492
 0.068  0.684 -0.383 -0.474 -0.456 -0.490 -0.490
 0.070  0.688 -0.379 -0.472 -0.454 -0.488 -0.488
 0.072  0.691 -0.374 -0.469 -0.453 -0.486 -0.486
 0.074  0.695 -0.370 -0.467 -0.451 -0.484 -0.484
 0.076  0.699 -0.365 -0.465 -0.450 -0.482 -0.482
 0.078  0.702 -0.361 -0.462 -0.448 -0.480 -0.480
 0.080  0.706 -0.357 -0.460 -0.447 -0.478 -0.478
 0.082  0.710 -0.352 -0.457 -0.445 -0.476 -0.476
 0.084  0.713 -0.348 -0.454 -0.443 -0.474 -0.474
 0.086  0.717 -0.343 -0.452 -0.442 -0.473 -0.473
 0.088  0.721 -0.340 -0.450 -0.440 -0.471 -0.471
 0.090  0.725 -0.335 -0.447 -0.439 -0.469 -0.469
 0.092  0.728 -0.331 -0.444 -0.437 -0.468 -0.468
 0.094  0.732 -0.327 -0.442 -0.436 -0.466 -0.466
 0.096  0.736 -0.322 -0.440 -0.434 -0.465 -0.465
 0.098  0.740 -0.318 -0.437 -0.433 -0.463 -0.463
 0.100  0.743 -0.314 -0.434 -0.431 -0.462 -0.462
 0.102  0.748 -0.309 -0.432 -0.430 -0.461 -0.461
 0.104  0.751 -0.305 -0.430 -0.428 -0.459 -0.459
 0.106  0.755 -0.301 -0.427 -0.426 -0.458 -0.458
 0.108  0.759 -0.297 -0.424 -0.425 -0.457 -0.457
 0.110  0.762 -0.293 -0.422 -0.424 -0.455 -0.455
 0.112  0.765 -0.289 -0.420 -0.422 -0.455 -0.455
 0.114  0.769 -0.285 -0.417 -0.420 -0.453 -0.453
 0.116  0.772 -0.281 -0.414 -0.419 -0.453 -0.453
 0.118  0.776 -0.277 -0.412 -0.418 -0.452 -0.452
 0.120  0.779 -0.274 -0.410 -0.416 -0.451 -0.451
 0.122  0.783 -0.270 -0.407 -0.415 -0.450 -0.450
 0.124  0.785 -0.266 -0.404 -0.413 -0.449 -0.449
 0.126  0.789 -0.263 -0.402 -0.412 -0.448 -0.448
 0.128  0.792 -0.259 -0.399 -0.410 -0.447 -0.447
 0.130  0.795 -0.255 -0.397 -0.409 -0.446 -0.446
 0.132  0.798 -0.252 -0.394 -0.408 -0.445 -0.445
 0.134  0.802 -0.248 -0.392 -0.406 -0.445 -0.445
 0.136  0.805 -0.245 -0.389 -0.405 -0.444 -0.444
 0.138  0.808 -0.241 -0.387 -0.403 -0.443 -0.443
 0.140  0.811 -0.238 -0.384 -0.402 -0.442 -0.442
 0.142  0.814 -0.234 -0.381 -0.401 -0.441 -0.441
 0.144  0.817 -0.231 -0.379 -0.399 -0.440 -0.440
 0.146  0.820 -0.227 -0.377 -0.398 -0.439 -0.439
 0.148  0.822 -0.224 -0.374 -0.397 -0.438 -0.438
 0.150  0.825 -0.221 -0.372 -0.395 -0.437 -0.437
 0.152  0.828 -0.218 -0.370 -0.394 -0.436 -0.436
 0.154  0.831 -0.214 -0.367 -0.392 -0.435 -0.435
 0.156  0.834 -0.211 -0.365 -0.391 -0.434 -0.434
 0.158  0.836 -0.208 -0.362 -0.390 -0.433 -0.433
 0.160  0.839 -0.206 -0.360 -0.388 -0.432 -0.432
 0.162  0.842 -0.203 -0.358 -0.387 -0.431 -0.431
 0.164  0.845 -0.199 -0.355 -0.386 -0.430 -0.430
 0.166  0.847 -0.196 -0.353 -0.384 -0.429 -0.429
 0.168  0.850 -0.193 -0.351 -0.383 -0.428 -0.428
 0.170  0.853 -0.190 -0.349 -0.382 -0.427 -0.427
 0.172  0.856 -0.187 -0.347 -0.381 -0.426 -0.426
 0.174  0.858 -0.184 -0.345 -0.379 -0.424 -0.424
 0.176  0.861 -0.181 -0.343 -0.378 -0.423 -0.423
 0.178  0.864 -0.178 -0.341 -0.376 -0.422 -0.422
 0.180  0.867 -0.175 -0.338 -0.375 -0.421 -0.421
 0.182  0.870 -0.171 -0.337 -0.374 -0.420 -0.420
 0.184  0.873 -0.168 -0.334 -0.373 -0.419 -0.419
 0.186  0.875 -0.166 -0.333 -0.371 -0.418 -0.418
 0.188  0.878 -0.163 -0.331 -0.370 -0.416 -0.416
 0.190  0.881 -0.160 -0.329 -0.369 -0.415 -0.415
 0.192  0.884 -0.156 -0.327 -0.368 -0.414 -0.414
 0.194  0.887 -0.153 -0.325 -0.366 -0.412 -0.412
 0.196  0.890 -0.150 -0.323 -0.365 -0.411 -0.411
 0.198  0.893 -0.147 -0.321 -0.364 -0.410 -0.410
 0.200  0.896 -0.144 -0.320 -0.363 -0.409 -0.409
 0.202  0.900 -0.140 -0.318 -0.362 -0.407 -0.407
 0.204  0.902 -0.137 -0.316 -0.360 -0.406 -0.406
 0.206  0.905 -0.134 -0.314 -0.359 -0.405 -0.405
 0.208  0.909 -0.131 -0.313 -0.358 -0.404 -0.404
 0.210  0.911 -0.128 -0.311 -0.357 -0.402 -0.402
 0.212  0.915 -0.125 -0.310 -0.355 -0.401 -0.401
 0.214  0.918 -0.121 -0.308 -0.354 -0.400 -0.400
 0.216  0.921 -0.118 -0.307 -0.353 -0.399 -0.399
 0.218  0.924 -0.115 -0.305 -0.352 -0.398 -0.398
 0.220  0.927 -0.112 -0.303 -0.351 -0.396 -0.396
 0.222  0.931 -0.109 -0.302 -0.349 -0.396 -0.396
 0.224  0.934 -0.105 -0.300 -0.348 -0.394 -0.394
 0.226  0.937 -0.102 -0.298 -0.347 -0.393 -0.393
 0.228  0.940 -0.098 -0.297 -0.346 -0.392 -0.392
 0.230  0.944 -0.095 -0.295 -0.345 -0.391 -0.391
 0.232  0.947 -0.092 -0.294 -0.344 -0.390 -0.390
 0.234  0.950 -0.089 -0.293 -0.342 -0.389 -0.389
 0.236  0.953 -0.085 -0.291 -0.341 -0.388 -0.388
 0.238  0.957 -0.082 -0.289 -0.340 -0.386 -0.386
 0.240  0.959 -0.079 -0.287 -0.339 -0.385 -0.385
 0.242  0.963 -0.076 -0.286 -0.338 -0.384 -0.384
 0.244  0.966 -0.073 -0.284 -0.337 -0.383 -0.383
 0.246  0.969 -0.070 -0.283 -0.335 -0.382 -0.382
 0.248  0.972 -0.066 -0.281 -0.334 -0.381 -0.381
 0.250  0.975 -0.064 -0.279 -0.333 -0.380 -0.380
 0.252  0.978 -0.061 -0.278 -0.331 -0.379 -0.379
 0.254  0.981 -0.058 -0.276 -0.331 -0.378 -0.378
 0.256  0.983 -0.055 -0.274 -0.329 -0.377 -0.377
 0.258  0.986 -0.052 -0.273 -0.328 -0.376 -0.376
 0.260  0.989 -0.049 -0.271 -0.327 -0.375 -0.375
 0.262  0.992 -0.046 -0.269 -0.326 -0.374 -0.374
 0.264  0.995 -0.043 -0.267 -0.324 -0.373 -0.373
 0.266  0.997 -0.041 -0.266 -0.323 -0.372 -0.372
 0.268  1.000 -0.038 -0.264 -0.322 -0.372 -0.372
 0.270  1.003 -0.035 -0.263 -0.320 -0.371 -0.371
 0.272  1.006 -0.033 -0.261 -0.320 -0.369 -0.369
 0.274  1.008 -0.030 -0.259 -0.318 -0.369 -0.369
 0.276  1.011 -0.027 -0.257 -0.317 -0.368 -0.368
 0.278  1.013 -0.025 -0.256 -0.315 -0.367 -0.367
 0.280  1.016 -0.023 -0.254 -0.315 -0.366 -0.366
 0.282  1.019 -0.020 -0.252 -0.313 -0.365 -0.365
 0.284  1.021 -0.017 -0.250 -0.312 -0.364 -0.364
 0.286  1.023 -0.015 -0.248 -0.311 -0.363 -0.363
 0.288  1.025 -0.012 -0.247 -0.309 -0.362 -0.362
 0.290  1.028 -0.010 -0.245 -0.308 -0.361 -0.361
 0.292  1.030 -0.008 -0.243 -0.307 -0.360 -0.360
 0.294  1.032 -0.006 -0.241 -0.306 -0.359 -0.359
 0.296  1.034 -0.003 -0.240 -0.304 -0.358 -0.358
 0.298  1.037 -0.001 -0.238 -0.303 -0.357 -0.357
 0.300  1.039  0.001 -0.237 -0.302 -0.356 -0.356
 0.302  1.041  0.003 -0.235 -0.301 -0.356 -0.356
 0.304  1.043  0.005 -0.233 -0.299 -0.355 -0.355
 0.306  1.045  0.008 -0.231 -0.298 -0.353 -0.353
 0.308  1.047  0.010 -0.230 -0.297 -0.353 -0.353
 0.310  1.050  0.012 -0.228 -0.296 -0.352 -0.352
 0.312  1.052  0.014 -0.226 -0.294 -0.350 -0.350
 0.314  1.054  0.016 -0.224 -0.293 -0.350 -0.350
 0.316  1.056  0.018 -0.223 -0.292 -0.349 -0.349
 0.318  1.058  0.020 -0.221 -0.291 -0.348 -0.348
 0.320  1.061  0.023 -0.220 -0.290 -0.347 -0.347
 0.322  1.063  0.025 -0.218 -0.288 -0.346 -0.346
 0.324  1.065  0.027 -0.216 -0.287 -0.345 -0.345
 0.326  1.067  0.029 -0.214 -0.286 -0.344 -0.344
 0.328  1.069  0.032 -0.213 -0.285 -0.343 -0.343
 0.330  1.072  0.034 -0.211 -0.284 -0.342 -0.342
 0.332  1.074  0.036 -0.210 -0.283 -0.341 -0.341
 0.334  1.076  0.038 -0.208 -0.282 -0.340 -0.340
 0.336  1.078  0.040 -0.206 -0.281 -0.339 -0.339
 0.338  1.080  0.043 -0.204 -0.279 -0.338 -0.338
 0.340  1.082  0.045 -0.203 -0.278 -0.337 -0.337
 0.342  1.084  0.047 -0.201 -0.277 -0.336 -0.336
 0.344  1.086  0.050 -0.200 -0.276 -0.335 -0.335
 0.346  1.089  0.052 -0.198 -0.275 -0.334 -0.334
 0.348  1.091  0.055 -0.196 -0.274 -0.333 -0.333
 0.350  1.093  0.057 -0.195 -0.272 -0.331 -0.331
 0.352  1.095  0.059 -0.193 -0.271 -0.331 -0.331
 0.354  1.097  0.062 -0.191 -0.271 -0.329 -0.329
 0.356  1.099  0.064 -0.190 -0.269 -0.329 -0.329
 0.358  1.101  0.067 -0.188 -0.268 -0.327 -0.327
 0.360  1.103  0.069 -0.187 -0.267 -0.326 -0.326
 0.362  1.105  0.071 -0.185 -0.266 -0.326 -0.326
 0.364  1.108  0.074 -0.184 -0.265 -0.324 -0.324
 0.366  1.110  0.076 -0.182 -0.264 -0.323 -0.323
 0.368  1.112  0.079 -0.180 -0.263 -0.322 -0.322
 0.370  1.114  0.081 -0.179 -0.262 -0.321 -0.321
 0.372  1.116  0.083 -0.177 -0.260 -0.320 -0.320
 0.374  1.118  0.086 -0.176 -0.260 -0.319 -0.319
 0.376  1.120  0.088 -0.174 -0.258 -0.318 -0.318
 0.378  1.122  0.090 -0.173 -0.257 -0.317 -0.317
 0.380  1.125  0.093 -0.171 -0.256 -0.316 -0.316
 0.382  1.127  0.095 -0.170 -0.255 -0.315 -0.315
 0.384  1.129  0.098 -0.168 -0.254 -0.314 -0.314
 0.386  1.131  0.100 -0.167 -0.253 -0.313 -0.313
 0.388  1.133  0.102 -0.166 -0.252 -0.312 -0.312
 0.390  1.136  0.105 -0.164 -0.251 -0.310 -0.310
 0.392  1.138  0.107 -0.163 -0.249 -0.309 -0.309
 0.394  1.139  0.110 -0.161 -0.249 -0.308 -0.308
 0.396  1.141  0.112 -0.160 -0.248 -0.307 -0.307
 0.398  1.143  0.114 -0.158 -0.246 -0.306 -0.306
 0.400  1.145  0.116 -0.157 -0.245 -0.305 -0.305
 0.402  1.147  0.118 -0.156 -0.244 -0.304 -0.304
 0.404  1.149  0.120 -0.154 -0.243 -0.303 -0.303
 0.406  1.151  0.122 -0.153 -0.242 -0.302 -0.302
 0.408  1.153  0.124 -0.151 -0.241 -0.300 -0.300
 0.410  1.156  0.126 -0.150 -0.240 -0.299 -0.299
 0.412  1.157  0.128 -0.149 -0.238 -0.298 -0.298
 0.414  1.159  0.130 -0.147 -0.238 -0.297 -0.297
 0.416  1.161  0.132 -0.146 -0.236 -0.296 -0.296
 0.418  1.163  0.134 -0.144 -0.235 -0.295 -0.295
 0.420  1.164  0.136 -0.143 -0.234 -0.294 -0.294
 0.422  1.167  0.137 -0.141 -0.233 -0.293 -0.293
 0.424  1.169  0.139 -0.140 -0.232 -0.291 -0.291
 0.426  1.171  0.141 -0.139 -0.231 -0.291 -0.291
 0.428  1.172  0.143 -0.138 -0.230 -0.289 -0.289
 0.430  1.174  0.145 -0.137 -0.228 -0.288 -0.288
 0.432  1.176  0.146 -0.135 -0.227 -0.287 -0.287
 0.434  1.178  0.148 -0.134 -0.226 -0.286 -0.286
 0.436  1.180  0.149 -0.133 -0.225 -0.285 -0.285
 0.438  1.181  0.151 -0.131 -0.224 -0.284 -0.284
 0.440  1.183  0.153 -0.130 -0.223 -0.283 -0.283
 0.442  1.185  0.154 -0.129 -0.222 -0.282 -0.282
 0.444  1.186  0.156 -0.128 -0.221 -0.281 -0.281
 0.446  1.189  0.157 -0.126 -0.220 -0.280 -0.280
 0.448  1.190  0.159 -0.125 -0.218 -0.279 -0.279
 0.450  1.191  0.160 -0.124 -0.217 -0.278 -0.278
 0.452  1.193  0.161 -0.123 -0.216 -0.278 -0.278
 0.454  1.195  0.163 -0.121 -0.216 -0.276 -0.276
 0.456  1.196  0.164 -0.120 -0.214 -0.275 -0.275
 0.458  1.198  0.165 -0.119 -0.213 -0.275 -0.275
 0.460  1.200  0.167 -0.118 -0.212 -0.274 -0.274
 0.462  1.201  0.168 -0.117 -0.211 -0.273 -0.273
 0.464  1.202  0.169 -0.116 -0.211 -0.272 -0.272
 0.466  1.204  0.170 -0.114 -0.210 -0.271 -0.271
 0.468  1.205  0.172 -0.113 -0.209 -0.270 -0.270
 0.470  1.206  0.173 -0.111 -0.208 -0.269 -0.269
 0.472  1.208  0.174 -0.110 -0.206 -0.268 -0.268
 0.474  1.209  0.175 -0.109 -0.205 -0.267 -0.267
 0.476  1.211  0.176 -0.108 -0.205 -0.267 -0.267
 0.478  1.212  0.177 -0.107 -0.204 -0.266 -0.266
 0.480  1.213  0.179 -0.106 -0.203 -0.265 -0.265
 0.482  1.214  0.180 -0.104 -0.202 -0.264 -0.264
 0.484  1.215  0.180 -0.103 -0.201 -0.263 -0.263
 0.486  1.217  0.181 -0.102 -0.200 -0.262 -0.262
 0.488  1.217  0.183 -0.101 -0.200 -0.261 -0.261
 0.490  1.219  0.184 -0.100 -0.199 -0.261 -0.261
 0.492  1.219  0.184 -0.099 -0.198 -0.260 -0.260
 0.494  1.220  0.185 -0.097 -0.197 -0.259 -0.259
 0.496  1.222  0.186 -0.096 -0.196 -0.259 -0.259
 0.498  1.222  0.187 -0.095 -0.195 -0.258 -0.258
 0.500  1.223  0.188 -0.094 -0.195 -0.257 -0.257
 0.502  1.224  0.189 -0.093 -0.194 -0.256 -0.256
 0.504  1.225  0.190 -0.092 -0.193 -0.255 -0.255
 0.506  1.226  0.191 -0.091 -0.193 -0.255 -0.255
 0.508  1.226  0.192 -0.090 -0.192 -0.254 -0.254
 0.510  1.227  0.192 -0.089 -0.191 -0.253 -0.253
 0.512  1.228  0.192 -0.087 -0.190 -0.253 -0.253
 0.514  1.228  0.193 -0.086 -0.189 -0.252 -0.252
 0.516  1.229  0.194 -0.086 -0.189 -0.251 -0.251
 0.518  1.230  0.195 -0.084 -0.188 -0.251 -0.251
 0.520  1.230  0.196 -0.083 -0.187 -0.250 -0.250
 0.522  1.231  0.196 -0.082 -0.187 -0.249 -0.249
 0.524  1.232  0.196 -0.081 -0.186 -0.248 -0.248
 0.526  1.233  0.197 -0.080 -0.185 -0.248 -0.248
 0.528  1.233  0.198 -0.079 -0.184 -0.247 -0.247
 0.530  1.233  0.198 -0.079 -0.183 -0.246 -0.246
 0.532  1.234  0.199 -0.077 -0.183 -0.246 -0.246
 0.534  1.235  0.200 -0.076 -0.182 -0.245 -0.245
 0.536  1.235  0.200 -0.076 -0.182 -0.245 -0.245
 0.538  1.236  0.200 -0.074 -0.181 -0.244 -0.244
 0.540  1.237  0.200 -0.074 -0.180 -0.243 -0.243
 0.542  1.237  0.201 -0.073 -0.179 -0.243 -0.243
 0.544  1.237  0.201 -0.072 -0.178 -0.242 -0.242
 0.546  1.238  0.202 -0.071 -0.178 -0.242 -0.242
 0.548  1.239  0.202 -0.070 -0.177 -0.241 -0.241
 0.550  1.239  0.203 -0.069 -0.176 -0.240 -0.240
 0.552  1.239  0.203 -0.069 -0.176 -0.240 -0.240
 0.554  1.240  0.203 -0.067 -0.175 -0.240 -0.240
 0.556  1.241  0.204 -0.067 -0.174 -0.239 -0.239
 0.558  1.242  0.204 -0.066 -0.173 -0.238 -0.238
 0.560  1.242  0.204 -0.065 -0.173 -0.238 -0.238
 0.562  1.242  0.204 -0.064 -0.172 -0.237 -0.237
 0.564  1.243  0.204 -0.064 -0.171 -0.237 -0.237
 0.566  1.244  0.204 -0.063 -0.171 -0.237 -0.237
 0.568  1.244  0.205 -0.062 -0.170 -0.236 -0.236
 0.570  1.244  0.205 -0.061 -0.169 -0.235 -0.235
 0.572  1.245  0.205 -0.061 -0.168 -0.235 -0.235
 0.574  1.246  0.205 -0.060 -0.168 -0.234 -0.234
 0.576  1.246  0.205 -0.059 -0.167 -0.234 -0.234
 0.578  1.246  0.205 -0.059 -0.167 -0.233 -0.233
 0.580  1.247  0.205 -0.058 -0.166 -0.233 -0.233
 0.582  1.247  0.205 -0.057 -0.165 -0.232 -0.232
 0.584  1.248  0.205 -0.057 -0.164 -0.232 -0.232
 0.586  1.248  0.205 -0.056 -0.164 -0.231 -0.231
 0.588  1.248  0.205 -0.056 -0.163 -0.231 -0.231
 0.590  1.249  0.205 -0.055 -0.162 -0.230 -0.230
 0.592  1.250  0.205 -0.054 -0.162 -0.230 -0.230
 0.594  1.250  0.205 -0.054 -0.161 -0.229 -0.229
 0.596  1.250  0.205 -0.054 -0.161 -0.229 -0.229
 0.598  1.251  0.205 -0.053 -0.160 -0.228 -0.228
 0.600  1.251  0.205 -0.053 -0.160 -0.228 -0.228
 0.602  1.252  0.205 -0.052 -0.159 -0.227 -0.227
 0.604  1.252  0.205 -0.052 -0.159 -0.227 -0.227
 0.606  1.253  0.205 -0.052 -0.158 -0.226 -0.226
 0.608  1.253  0.205 -0.052 -0.158 -0.226 -0.226
 0.610  1.253  0.204 -0.051 -0.157 -0.225 -0.225
 0.612  1.253  0.204 -0.051 -0.157 -0.225 -0.225
 0.614  1.254  0.204 -0.050 -0.156 -0.224 -0.224
 0.616  1.254  0.204 -0.050 -0.156 -0.224 -0.224
 0.618  1.255  0.204 -0.050 -0.156 -0.224 -0.224
 0.620  1.255  0.204 -0.050 -0.156 -0.223 -0.223
 0.622  1.255  0.204 -0.049 -0.155 -0.222 -0.222
 0.624  1.255  0.204 -0.049 -0.155 -0.222 -0.222
 0.626  1.255  0.204 -0.049 -0.155 -0.221 -0.221
 0.628  1.255  0.204 -0.049 -0.154 -0.221 -0.221
 0.630  1.256  0.204 -0.049 -0.154 -0.221 -0.221
 0.632  1.256  0.204 -0.049 -0.154 -0.220 -0.220
 0.634  1.256  0.204 -0.049 -0.154 -0.220 -0.220
 0.636  1.256  0.204 -0.049 -0.153 -0.219 -0.219
 0.638  1.257  0.204 -0.049 -0.153 -0.219 -0.219
 0.640  1.257  0.204 -0.049 -0.153 -0.218 -0.218
 0.642  1.257  0.204 -0.049 -0.153 -0.218 -0.218
 0.644  1.257  0.204 -0.049 -0.153 -0.218 -0.218
 0.646  1.257  0.203 -0.049 -0.153 -0.217 -0.217
 0.648  1.257  0.203 -0.049 -0.152 -0.217 -0.217
 0.650  1.257  0.203 -0.049 -0.152 -0.216 -0.216
 0.652  1.257  0.203 -0.049 -0.152 -0.216 -0.216
 0.654  1.257  0.203 -0.048 -0.152 -0.216 -0.216
 0.656  1.257  0.203 -0.048 -0.152 -0.216 -0.216
 0.658  1.257  0.202 -0.048 -0.152 -0.215 -0.215
 0.660  1.257  0.202 -0.048 -0.151 -0.215 -0.215
 0.662  1.257  0.202 -0.047 -0.151 -0.214 -0.214
 0.664  1.258  0.202 -0.047 -0.151 -0.214 -0.214
 0.666  1.258  0.202 -0.047 -0.150 -0.214 -0.214
 0.668  1.258  0.202 -0.047 -0.150 -0.213 -0.213
 0.670  1.258  0.202 -0.046 -0.150 -0.213 -0.213
 0.672  1.258  0.202 -0.046 -0.150 -0.213 -0.213
 0.674  1.259  0.202 -0.045 -0.149 -0.213 -0.213
 0.676  1.259  0.202 -0.045 -0.149 -0.213 -0.213
 0.678  1.259  0.202 -0.044 -0.148 -0.212 -0.212
 0.680  1.259  0.203 -0.044 -0.148 -0.212 -0.212
 0.682  1.260  0.203 -0.043 -0.147 -0.212 -0.212
 0.684  1.260  0.203 -0.043 -0.147 -0.211 -0.211
 0.686  1.261  0.204 -0.042 -0.146 -0.211 -0.211
 0.688  1.261  0.204 -0.042 -0.145 -0.211 -0.211
 0.690  1.261  0.204 -0.040 -0.145 -0.211 -0.211
 0.692  1.262  0.204 -0.040 -0.144 -0.210 -0.210
 0.694  1.262  0.205 -0.039 -0.143 -0.210 -0.210
 0.696  1.263  0.206 -0.039 -0.142 -0.210 -0.210
 0.698  1.264  0.206 -0.037 -0.142 -0.210 -0.210
 0.700  1.264  0.207 -0.037 -0.141 -0.210 -0.210
 0.702  1.264  0.208 -0.036 -0.140 -0.210 -0.210
 0.704  1.265  0.208 -0.035 -0.139 -0.209 -0.209
 0.706  1.266  0.209 -0.034 -0.138 -0.209 -0.209
 0.708  1.266  0.210 -0.033 -0.137 -0.209 -0.209
 0.710  1.267  0.211 -0.032 -0.136 -0.208 -0.208
 0.712  1.268  0.212 -0.031 -0.135 -0.208 -0.208
 0.714  1.269  0.212 -0.030 -0.134 -0.207 -0.207
 0.716  1.270  0.213 -0.029 -0.134 -0.207 -0.207
 0.718  1.270  0.214 -0.027 -0.132 -0.206 -0.206
 0.720  1.271  0.216 -0.026 -0.131 -0.206 -0.206
 0.722  1.272  0.216 -0.025 -0.130 -0.205 -0.205
 0.724  1.273  0.217 -0.024 -0.129 -0.205 -0.205
 0.726  1.274  0.219 -0.022 -0.128 -0.204 -0.204
 0.728  1.275  0.219 -0.021 -0.126 -0.203 -0.203
 0.730  1.276  0.221 -0.019 -0.125 -0.202 -0.202
 0.732  1.277  0.222 -0.018 -0.123 -0.202 -0.202
 0.734  1.278  0.223 -0.016 -0.122 -0.201 -0.201
 0.736  1.279  0.225 -0.014 -0.121 -0.200 -0.200
 0.738  1.279  0.226 -0.013 -0.119 -0.199 -0.199
 0.740  1.280  0.227 -0.011 -0.117 -0.199 -0.199
 0.742  1.281  0.229 -0.009 -0.116 -0.197 -0.197
 0.744  1.282  0.230 -0.007 -0.114 -0.197 -0.197
 0.746  1.283  0.231 -0.005 -0.112 -0.196 -0.196
 0.748  1.283  0.233 -0.003 -0.110 -0.194 -0.194
 0.750  1.284  0.235 -0.002 -0.108 -0.194 -0.194
 0.752  1.285  0.236  0.001 -0.106 -0.192 -0.192
 0.754  1.286  0.238  0.003 -0.105 -0.191 -0.191
 0.756  1.286  0.239  0.005 -0.103 -0.190 -0.190
 0.758  1.287  0.241  0.007 -0.101 -0.189 -0.189
 0.760  1.288  0.243  0.009 -0.099 -0.188 -0.188
 0.762  1.288  0.245  0.011 -0.096 -0.186 -0.186
 0.764  1.288  0.247  0.014 -0.095 -0.185 -0.185
 0.766  1.289  0.248  0.017 -0.092 -0.184 -0.184
 0.768  1.290  0.250  0.019 -0.090 -0.183 -0.183
 0.770  1.290  0.252  0.021 -0.087 -0.181 -0.181
 0.772  1.290  0.254  0.024 -0.085 -0.180 -0.180
 0.774  1.290  0.255  0.027 -0.082 -0.178 -0.178
 0.776  1.290  0.257  0.030 -0.079 -0.177 -0.177
 0.778  1.291  0.259  0.033 -0.077 -0.175 -0.175
 0.780  1.291  0.261  0.036 -0.074 -0.174 -0.174
 0.782  1.291  0.263  0.039 -0.071 -0.172 -0.172
 0.784  1.292  0.265  0.042 -0.068 -0.171 -0.171
 0.786  1.292  0.266  0.044 -0.066 -0.170 -0.170
 0.788  1.292  0.269  0.047 -0.063 -0.168 -0.168
 0.790  1.292  0.271  0.050 -0.060 -0.166 -0.166
 0.792  1.292  0.274  0.053 -0.057 -0.165 -0.165
 0.794  1.292  0.276  0.055 -0.055 -0.163 -0.163
 0.796  1.292  0.278  0.057 -0.052 -0.162 -0.162
 0.798  1.292  0.281  0.059 -0.050 -0.160 -0.160
 0.800  1.292  0.283  0.061 -0.048 -0.158 -0.158
 0.802  1.292  0.286  0.063 -0.046 -0.156 -0.156
 0.804  1.292  0.288  0.064 -0.044 -0.155 -0.155
 0.806  1.291  0.290  0.065 -0.042 -0.153 -0.153
 0.808  1.290  0.291  0.067 -0.041 -0.151 -0.151
