# IsPeriodic    : True
# Period        : 0.625055 days
# Normalization : <g_mag>=0
# 
# Phase u_mag  g_mag  r_mag  i_mag  z_mag  y_mag
 0.000  0.824 -0.372 -0.438 -0.445 -0.424 -0.424
 0.002  0.824 -0.372 -0.438 -0.445 -0.424 -0.424
 0.004  0.824 -0.372 -0.438 -0.445 -0.424 -0.424
 0.006  0.825 -0.371 -0.438 -0.445 -0.424 -0.424
 0.008  0.826 -0.371 -0.437 -0.445 -0.424 -0.424
 0.010  0.827 -0.370 -0.437 -0.445 -0.423 -0.423
 0.012  0.828 -0.370 -0.436 -0.445 -0.422 -0.422
 0.014  0.829 -0.368 -0.436 -0.444 -0.422 -0.422
 0.016  0.831 -0.368 -0.435 -0.444 -0.421 -0.421
 0.018  0.832 -0.367 -0.434 -0.444 -0.420 -0.420
 0.020  0.834 -0.366 -0.434 -0.443 -0.419 -0.419
 0.022  0.836 -0.365 -0.433 -0.443 -0.418 -0.418
 0.024  0.838 -0.363 -0.432 -0.443 -0.417 -0.417
 0.026  0.840 -0.362 -0.431 -0.442 -0.416 -0.416
 0.028  0.842 -0.361 -0.430 -0.442 -0.415 -0.415
 0.030  0.844 -0.359 -0.429 -0.441 -0.414 -0.414
 0.032  0.846 -0.357 -0.428 -0.440 -0.413 -0.413
 0.034  0.848 -0.356 -0.427 -0.439 -0.412 -0.412
 0.036  0.850 -0.354 -0.425 -0.439 -0.411 -0.411
 0.038  0.852 -0.352 -0.424 -0.438 -0.410 -0.410
 0.040  0.855 -0.350 -0.423 -0.437 -0.409 -0.409
 0.042  0.857 -0.348 -0.421 -0.436 -0.408 -0.408
 0.044  0.859 -0.345 -0.420 -0.435 -0.407 -0.407
 0.046  0.862 -0.343 -0.419 -0.434 -0.406 -0.406
 0.048  0.864 -0.340 -0.417 -0.433 -0.405 -0.405
 0.050  0.867 -0.338 -0.415 -0.432 -0.404 -0.404
 0.052  0.870 -0.335 -0.414 -0.431 -0.403 -0.403
 0.054  0.872 -0.332 -0.412 -0.430 -0.402 -0.402
 0.056  0.875 -0.329 -0.410 -0.428 -0.401 -0.401
 0.058  0.878 -0.326 -0.409 -0.427 -0.400 -0.400
 0.060  0.881 -0.323 -0.407 -0.426 -0.399 -0.399
 0.062  0.884 -0.319 -0.405 -0.424 -0.398 -0.398
 0.064  0.887 -0.316 -0.403 -0.423 -0.397 -0.397
 0.066  0.891 -0.313 -0.401 -0.422 -0.396 -0.396
 0.068  0.894 -0.309 -0.399 -0.420 -0.395 -0.395
 0.070  0.897 -0.305 -0.396 -0.418 -0.394 -0.394
 0.072  0.901 -0.302 -0.394 -0.417 -0.393 -0.393
 0.074  0.904 -0.298 -0.392 -0.415 -0.392 -0.392
 0.076  0.907 -0.295 -0.389 -0.414 -0.391 -0.391
 0.078  0.911 -0.291 -0.387 -0.412 -0.390 -0.390
 0.080  0.915 -0.287 -0.385 -0.411 -0.389 -0.389
 0.082  0.919 -0.283 -0.383 -0.409 -0.388 -0.388
 0.084  0.922 -0.280 -0.380 -0.408 -0.387 -0.387
 0.086  0.925 -0.276 -0.378 -0.406 -0.386 -0.386
 0.088  0.929 -0.273 -0.376 -0.405 -0.386 -0.386
 0.090  0.933 -0.269 -0.374 -0.403 -0.385 -0.385
 0.092  0.936 -0.266 -0.372 -0.402 -0.384 -0.384
 0.094  0.940 -0.263 -0.370 -0.401 -0.383 -0.383
 0.096  0.943 -0.259 -0.368 -0.399 -0.382 -0.382
 0.098  0.946 -0.256 -0.366 -0.398 -0.381 -0.381
 0.100  0.950 -0.253 -0.364 -0.397 -0.380 -0.380
 0.102  0.953 -0.250 -0.362 -0.395 -0.379 -0.379
 0.104  0.956 -0.247 -0.360 -0.394 -0.379 -0.379
 0.106  0.959 -0.244 -0.358 -0.393 -0.378 -0.378
 0.108  0.963 -0.241 -0.357 -0.392 -0.377 -0.377
 0.110  0.966 -0.238 -0.355 -0.391 -0.376 -0.376
 0.112  0.969 -0.235 -0.353 -0.390 -0.375 -0.375
 0.114  0.972 -0.232 -0.351 -0.389 -0.374 -0.374
 0.116  0.975 -0.229 -0.350 -0.388 -0.374 -0.374
 0.118  0.978 -0.227 -0.348 -0.387 -0.373 -0.373
 0.120  0.980 -0.223 -0.347 -0.386 -0.372 -0.372
 0.122  0.984 -0.221 -0.345 -0.385 -0.371 -0.371
 0.124  0.986 -0.218 -0.344 -0.384 -0.370 -0.370
 0.126  0.989 -0.216 -0.343 -0.383 -0.369 -0.369
 0.128  0.992 -0.213 -0.341 -0.382 -0.368 -0.368
 0.130  0.994 -0.211 -0.340 -0.381 -0.367 -0.367
 0.132  0.997 -0.208 -0.339 -0.380 -0.367 -0.367
 0.134  1.000 -0.206 -0.338 -0.380 -0.366 -0.366
 0.136  1.002 -0.203 -0.337 -0.379 -0.365 -0.365
 0.138  1.005 -0.201 -0.335 -0.378 -0.364 -0.364
 0.140  1.007 -0.199 -0.334 -0.377 -0.363 -0.363
 0.142  1.009 -0.196 -0.333 -0.376 -0.363 -0.363
 0.144  1.011 -0.194 -0.332 -0.376 -0.362 -0.362
 0.146  1.014 -0.192 -0.331 -0.375 -0.361 -0.361
 0.148  1.016 -0.189 -0.330 -0.374 -0.360 -0.360
 0.150  1.018 -0.187 -0.329 -0.374 -0.360 -0.360
 0.152  1.021 -0.185 -0.328 -0.373 -0.359 -0.359
 0.154  1.023 -0.182 -0.327 -0.372 -0.358 -0.358
 0.156  1.025 -0.181 -0.326 -0.371 -0.357 -0.357
 0.158  1.027 -0.178 -0.326 -0.370 -0.357 -0.357
 0.160  1.029 -0.176 -0.325 -0.370 -0.356 -0.356
 0.162  1.031 -0.173 -0.324 -0.369 -0.355 -0.355
 0.164  1.033 -0.171 -0.322 -0.368 -0.354 -0.354
 0.166  1.036 -0.169 -0.322 -0.368 -0.354 -0.354
 0.168  1.037 -0.166 -0.320 -0.367 -0.353 -0.353
 0.170  1.040 -0.164 -0.319 -0.366 -0.352 -0.352
 0.172  1.042 -0.161 -0.318 -0.365 -0.351 -0.351
 0.174  1.044 -0.158 -0.317 -0.364 -0.351 -0.351
 0.176  1.046 -0.156 -0.316 -0.364 -0.350 -0.350
 0.178  1.049 -0.153 -0.315 -0.363 -0.349 -0.349
 0.180  1.050 -0.151 -0.313 -0.362 -0.348 -0.348
 0.182  1.053 -0.148 -0.312 -0.361 -0.347 -0.347
 0.184  1.055 -0.146 -0.311 -0.360 -0.347 -0.347
 0.186  1.057 -0.143 -0.309 -0.359 -0.346 -0.346
 0.188  1.060 -0.141 -0.308 -0.359 -0.345 -0.345
 0.190  1.062 -0.138 -0.307 -0.357 -0.344 -0.344
 0.192  1.064 -0.135 -0.305 -0.357 -0.344 -0.344
 0.194  1.067 -0.133 -0.304 -0.356 -0.343 -0.343
 0.196  1.068 -0.130 -0.302 -0.355 -0.342 -0.342
 0.198  1.071 -0.127 -0.301 -0.354 -0.341 -0.341
 0.200  1.073 -0.124 -0.299 -0.353 -0.341 -0.341
 0.202  1.075 -0.122 -0.298 -0.352 -0.340 -0.340
 0.204  1.078 -0.119 -0.296 -0.351 -0.339 -0.339
 0.206  1.080 -0.116 -0.295 -0.350 -0.339 -0.339
 0.208  1.082 -0.113 -0.293 -0.349 -0.338 -0.338
 0.210  1.085 -0.111 -0.291 -0.348 -0.337 -0.337
 0.212  1.086 -0.107 -0.290 -0.347 -0.336 -0.336
 0.214  1.089 -0.105 -0.288 -0.346 -0.336 -0.336
 0.216  1.091 -0.102 -0.286 -0.345 -0.335 -0.335
 0.218  1.094 -0.099 -0.284 -0.344 -0.334 -0.334
 0.220  1.096 -0.096 -0.283 -0.343 -0.334 -0.334
 0.222  1.098 -0.094 -0.281 -0.342 -0.333 -0.333
 0.224  1.101 -0.091 -0.279 -0.341 -0.332 -0.332
 0.226  1.103 -0.088 -0.277 -0.340 -0.332 -0.332
 0.228  1.105 -0.085 -0.276 -0.339 -0.331 -0.331
 0.230  1.107 -0.083 -0.274 -0.338 -0.330 -0.330
 0.232  1.110 -0.080 -0.273 -0.337 -0.329 -0.329
 0.234  1.112 -0.077 -0.271 -0.336 -0.329 -0.329
 0.236  1.114 -0.075 -0.269 -0.335 -0.328 -0.328
 0.238  1.117 -0.072 -0.267 -0.334 -0.327 -0.327
 0.240  1.119 -0.070 -0.266 -0.333 -0.326 -0.326
 0.242  1.121 -0.067 -0.264 -0.332 -0.326 -0.326
 0.244  1.123 -0.065 -0.263 -0.331 -0.325 -0.325
 0.246  1.125 -0.063 -0.261 -0.330 -0.324 -0.324
 0.248  1.127 -0.060 -0.259 -0.329 -0.323 -0.323
 0.250  1.130 -0.058 -0.258 -0.328 -0.323 -0.323
 0.252  1.132 -0.055 -0.256 -0.327 -0.322 -0.322
 0.254  1.134 -0.053 -0.255 -0.326 -0.321 -0.321
 0.256  1.136 -0.051 -0.254 -0.325 -0.320 -0.320
 0.258  1.138 -0.048 -0.252 -0.324 -0.319 -0.319
 0.260  1.140 -0.046 -0.251 -0.323 -0.319 -0.319
 0.262  1.143 -0.044 -0.249 -0.322 -0.318 -0.318
 0.264  1.145 -0.042 -0.248 -0.322 -0.317 -0.317
 0.266  1.147 -0.040 -0.246 -0.320 -0.316 -0.316
 0.268  1.149 -0.037 -0.245 -0.319 -0.315 -0.315
 0.270  1.151 -0.036 -0.244 -0.318 -0.315 -0.315
 0.272  1.153 -0.034 -0.242 -0.318 -0.314 -0.314
 0.274  1.155 -0.032 -0.241 -0.316 -0.313 -0.313
 0.276  1.157 -0.029 -0.240 -0.315 -0.312 -0.312
 0.278  1.159 -0.027 -0.238 -0.315 -0.311 -0.311
 0.280  1.161 -0.025 -0.238 -0.314 -0.310 -0.310
 0.282  1.163 -0.024 -0.236 -0.312 -0.309 -0.309
 0.284  1.165 -0.022 -0.235 -0.312 -0.308 -0.308
 0.286  1.167 -0.020 -0.234 -0.311 -0.308 -0.308
 0.288  1.169 -0.018 -0.232 -0.310 -0.307 -0.307
 0.290  1.171 -0.016 -0.231 -0.309 -0.306 -0.306
 0.292  1.173 -0.014 -0.230 -0.308 -0.304 -0.304
 0.294  1.174 -0.012 -0.229 -0.307 -0.303 -0.303
 0.296  1.176 -0.010 -0.228 -0.306 -0.302 -0.302
 0.298  1.178 -0.008 -0.227 -0.305 -0.301 -0.301
 0.300  1.180 -0.007 -0.225 -0.304 -0.301 -0.301
 0.302  1.182 -0.005 -0.224 -0.303 -0.300 -0.300
 0.304  1.184 -0.003 -0.223 -0.302 -0.299 -0.299
 0.306  1.186 -0.001 -0.222 -0.301 -0.298 -0.298
 0.308  1.187  0.001 -0.221 -0.299 -0.297 -0.297
 0.310  1.189  0.003 -0.220 -0.298 -0.296 -0.296
 0.312  1.191  0.005 -0.218 -0.297 -0.295 -0.295
 0.314  1.193  0.007 -0.217 -0.296 -0.294 -0.294
 0.316  1.195  0.009 -0.216 -0.295 -0.293 -0.293
 0.318  1.197  0.010 -0.214 -0.294 -0.292 -0.292
 0.320  1.199  0.012 -0.213 -0.293 -0.291 -0.291
 0.322  1.200  0.015 -0.212 -0.292 -0.290 -0.290
 0.324  1.202  0.017 -0.210 -0.291 -0.289 -0.289
 0.326  1.204  0.019 -0.209 -0.290 -0.288 -0.288
 0.328  1.205  0.021 -0.208 -0.289 -0.287 -0.287
 0.330  1.207  0.022 -0.206 -0.287 -0.286 -0.286
 0.332  1.208  0.024 -0.205 -0.286 -0.285 -0.285
 0.334  1.210  0.027 -0.204 -0.285 -0.284 -0.284
 0.336  1.212  0.029 -0.203 -0.284 -0.283 -0.283
 0.338  1.213  0.031 -0.201 -0.283 -0.282 -0.282
 0.340  1.215  0.033 -0.200 -0.282 -0.281 -0.281
 0.342  1.217  0.035 -0.199 -0.280 -0.280 -0.280
 0.344  1.218  0.037 -0.197 -0.279 -0.279 -0.279
 0.346  1.220  0.039 -0.196 -0.278 -0.278 -0.278
 0.348  1.222  0.041 -0.194 -0.277 -0.278 -0.278
 0.350  1.223  0.043 -0.193 -0.276 -0.277 -0.277
 0.352  1.225  0.045 -0.192 -0.274 -0.276 -0.276
 0.354  1.226  0.048 -0.190 -0.273 -0.275 -0.275
 0.356  1.228  0.050 -0.189 -0.272 -0.274 -0.274
 0.358  1.230  0.051 -0.187 -0.270 -0.273 -0.273
 0.360  1.231  0.054 -0.186 -0.269 -0.272 -0.272
 0.362  1.233  0.056 -0.184 -0.268 -0.272 -0.272
 0.364  1.234  0.058 -0.183 -0.267 -0.271 -0.271
 0.366  1.236  0.060 -0.181 -0.265 -0.270 -0.270
 0.368  1.238  0.062 -0.180 -0.264 -0.269 -0.269
 0.370  1.239  0.064 -0.178 -0.263 -0.268 -0.268
 0.372  1.241  0.066 -0.177 -0.262 -0.268 -0.268
 0.374  1.242  0.068 -0.175 -0.261 -0.267 -0.267
 0.376  1.244  0.070 -0.174 -0.260 -0.266 -0.266
 0.378  1.245  0.072 -0.173 -0.258 -0.265 -0.265
 0.380  1.247  0.074 -0.171 -0.257 -0.265 -0.265
 0.382  1.248  0.075 -0.170 -0.256 -0.264 -0.264
 0.384  1.250  0.077 -0.168 -0.255 -0.263 -0.263
 0.386  1.251  0.079 -0.167 -0.254 -0.262 -0.262
 0.388  1.253  0.081 -0.166 -0.253 -0.262 -0.262
 0.390  1.254  0.083 -0.164 -0.252 -0.261 -0.261
 0.392  1.256  0.084 -0.163 -0.251 -0.260 -0.260
 0.394  1.257  0.086 -0.162 -0.249 -0.259 -0.259
 0.396  1.259  0.088 -0.160 -0.248 -0.258 -0.258
 0.398  1.261  0.090 -0.159 -0.247 -0.257 -0.257
 0.400  1.262  0.091 -0.158 -0.246 -0.256 -0.256
 0.402  1.264  0.093 -0.157 -0.245 -0.255 -0.255
 0.404  1.265  0.095 -0.155 -0.244 -0.255 -0.255
 0.406  1.267  0.096 -0.154 -0.243 -0.254 -0.254
 0.408  1.269  0.098 -0.153 -0.242 -0.253 -0.253
 0.410  1.270  0.099 -0.152 -0.241 -0.252 -0.252
 0.412  1.272  0.101 -0.150 -0.240 -0.251 -0.251
 0.414  1.274  0.103 -0.149 -0.239 -0.250 -0.250
 0.416  1.275  0.104 -0.148 -0.239 -0.249 -0.249
 0.418  1.277  0.106 -0.147 -0.237 -0.248 -0.248
 0.420  1.278  0.107 -0.146 -0.236 -0.247 -0.247
 0.422  1.280  0.108 -0.144 -0.236 -0.246 -0.246
 0.424  1.282  0.109 -0.143 -0.235 -0.245 -0.245
 0.426  1.283  0.111 -0.142 -0.234 -0.245 -0.245
 0.428  1.285  0.113 -0.141 -0.233 -0.244 -0.244
 0.430  1.287  0.114 -0.140 -0.232 -0.243 -0.243
 0.432  1.289  0.115 -0.139 -0.231 -0.242 -0.242
 0.434  1.290  0.116 -0.138 -0.230 -0.241 -0.241
 0.436  1.292  0.118 -0.136 -0.229 -0.240 -0.240
 0.438  1.294  0.119 -0.136 -0.228 -0.238 -0.238
 0.440  1.295  0.120 -0.134 -0.228 -0.237 -0.237
 0.442  1.297  0.121 -0.133 -0.227 -0.236 -0.236
 0.444  1.299  0.123 -0.132 -0.226 -0.235 -0.235
 0.446  1.300  0.124 -0.131 -0.225 -0.234 -0.234
 0.448  1.302  0.125 -0.130 -0.224 -0.233 -0.233
 0.450  1.304  0.126 -0.129 -0.223 -0.232 -0.232
 0.452  1.305  0.128 -0.128 -0.223 -0.231 -0.231
 0.454  1.306  0.129 -0.127 -0.222 -0.230 -0.230
 0.456  1.308  0.130 -0.126 -0.221 -0.229 -0.229
 0.458  1.309  0.132 -0.125 -0.220 -0.228 -0.228
 0.460  1.311  0.133 -0.125 -0.219 -0.227 -0.227
 0.462  1.313  0.134 -0.124 -0.219 -0.226 -0.226
 0.464  1.314  0.135 -0.123 -0.218 -0.225 -0.225
 0.466  1.315  0.137 -0.122 -0.217 -0.224 -0.224
 0.468  1.316  0.137 -0.121 -0.216 -0.223 -0.223
 0.470  1.318  0.138 -0.120 -0.216 -0.222 -0.222
 0.472  1.319  0.140 -0.119 -0.215 -0.221 -0.221
 0.474  1.320  0.141 -0.118 -0.214 -0.220 -0.220
 0.476  1.321  0.142 -0.118 -0.214 -0.219 -0.219
 0.478  1.322  0.143 -0.117 -0.213 -0.218 -0.218
 0.480  1.324  0.144 -0.116 -0.212 -0.217 -0.217
 0.482  1.325  0.145 -0.115 -0.211 -0.217 -0.217
 0.484  1.326  0.147 -0.115 -0.211 -0.215 -0.215
 0.486  1.327  0.147 -0.114 -0.210 -0.215 -0.215
 0.488  1.328  0.149 -0.113 -0.209 -0.214 -0.214
 0.490  1.329  0.150 -0.113 -0.209 -0.213 -0.213
 0.492  1.330  0.150 -0.112 -0.208 -0.212 -0.212
 0.494  1.331  0.152 -0.111 -0.207 -0.212 -0.212
 0.496  1.332  0.152 -0.111 -0.207 -0.211 -0.211
 0.498  1.332  0.154 -0.110 -0.206 -0.210 -0.210
 0.500  1.334  0.155 -0.110 -0.205 -0.210 -0.210
 0.502  1.334  0.155 -0.109 -0.205 -0.209 -0.209
 0.504  1.335  0.157 -0.108 -0.204 -0.208 -0.208
 0.506  1.335  0.157 -0.108 -0.203 -0.208 -0.208
 0.508  1.337  0.159 -0.107 -0.203 -0.207 -0.207
 0.510  1.337  0.159 -0.107 -0.202 -0.206 -0.206
 0.512  1.338  0.160 -0.106 -0.202 -0.206 -0.206
 0.514  1.339  0.161 -0.106 -0.201 -0.205 -0.205
 0.516  1.339  0.162 -0.105 -0.200 -0.205 -0.205
 0.518  1.340  0.162 -0.104 -0.200 -0.204 -0.204
 0.520  1.340  0.163 -0.104 -0.199 -0.204 -0.204
 0.522  1.341  0.164 -0.104 -0.199 -0.203 -0.203
 0.524  1.342  0.164 -0.103 -0.198 -0.203 -0.203
 0.526  1.342  0.165 -0.102 -0.197 -0.202 -0.202
 0.528  1.343  0.166 -0.102 -0.197 -0.202 -0.202
 0.530  1.344  0.166 -0.101 -0.196 -0.201 -0.201
 0.532  1.344  0.167 -0.101 -0.195 -0.201 -0.201
 0.534  1.345  0.167 -0.101 -0.195 -0.200 -0.200
 0.536  1.345  0.168 -0.100 -0.194 -0.200 -0.200
 0.538  1.346  0.169 -0.100 -0.194 -0.199 -0.199
 0.540  1.346  0.169 -0.099 -0.193 -0.199 -0.199
 0.542  1.347  0.169 -0.098 -0.193 -0.199 -0.199
 0.544  1.347  0.170 -0.098 -0.192 -0.198 -0.198
 0.546  1.348  0.170 -0.097 -0.191 -0.198 -0.198
 0.548  1.348  0.171 -0.097 -0.191 -0.197 -0.197
 0.550  1.348  0.171 -0.097 -0.190 -0.197 -0.197
 0.552  1.349  0.171 -0.096 -0.190 -0.196 -0.196
 0.554  1.350  0.171 -0.096 -0.189 -0.196 -0.196
 0.556  1.350  0.171 -0.095 -0.188 -0.195 -0.195
 0.558  1.350  0.172 -0.095 -0.188 -0.195 -0.195
 0.560  1.350  0.172 -0.094 -0.187 -0.194 -0.194
 0.562  1.351  0.172 -0.094 -0.187 -0.193 -0.193
 0.564  1.352  0.172 -0.094 -0.186 -0.193 -0.193
 0.566  1.352  0.172 -0.093 -0.185 -0.192 -0.192
 0.568  1.352  0.172 -0.093 -0.185 -0.192 -0.192
 0.570  1.352  0.172 -0.092 -0.184 -0.191 -0.191
 0.572  1.353  0.172 -0.092 -0.184 -0.191 -0.191
 0.574  1.353  0.172 -0.091 -0.183 -0.190 -0.190
 0.576  1.353  0.172 -0.091 -0.182 -0.190 -0.190
 0.578  1.353  0.172 -0.090 -0.182 -0.189 -0.189
 0.580  1.353  0.172 -0.090 -0.181 -0.189 -0.189
 0.582  1.354  0.172 -0.090 -0.181 -0.188 -0.188
 0.584  1.354  0.172 -0.089 -0.180 -0.188 -0.188
 0.586  1.355  0.172 -0.089 -0.179 -0.187 -0.187
 0.588  1.355  0.172 -0.088 -0.179 -0.187 -0.187
 0.590  1.355  0.172 -0.088 -0.178 -0.186 -0.186
 0.592  1.355  0.172 -0.087 -0.177 -0.186 -0.186
 0.594  1.355  0.172 -0.087 -0.177 -0.185 -0.185
 0.596  1.356  0.172 -0.086 -0.176 -0.185 -0.185
 0.598  1.356  0.173 -0.086 -0.175 -0.184 -0.184
 0.600  1.356  0.173 -0.085 -0.175 -0.184 -0.184
 0.602  1.357  0.173 -0.085 -0.174 -0.183 -0.183
 0.604  1.357  0.173 -0.084 -0.173 -0.183 -0.183
 0.606  1.357  0.174 -0.084 -0.173 -0.182 -0.182
 0.608  1.357  0.174 -0.083 -0.171 -0.181 -0.181
 0.610  1.357  0.174 -0.083 -0.171 -0.181 -0.181
 0.612  1.358  0.174 -0.082 -0.170 -0.180 -0.180
 0.614  1.358  0.174 -0.082 -0.169 -0.180 -0.180
 0.616  1.358  0.174 -0.081 -0.169 -0.179 -0.179
 0.618  1.358  0.174 -0.081 -0.168 -0.178 -0.178
 0.620  1.359  0.175 -0.080 -0.167 -0.178 -0.178
 0.622  1.359  0.175 -0.079 -0.166 -0.177 -0.177
 0.624  1.360  0.175 -0.079 -0.165 -0.177 -0.177
 0.626  1.360  0.176 -0.079 -0.164 -0.176 -0.176
 0.628  1.360  0.176 -0.078 -0.164 -0.175 -0.175
 0.630  1.360  0.176 -0.077 -0.162 -0.175 -0.175
 0.632  1.360  0.176 -0.077 -0.162 -0.174 -0.174
 0.634  1.361  0.176 -0.076 -0.161 -0.173 -0.173
 0.636  1.361  0.177 -0.076 -0.160 -0.173 -0.173
 0.638  1.361  0.177 -0.075 -0.159 -0.171 -0.171
 0.640  1.361  0.177 -0.075 -0.158 -0.171 -0.171
 0.642  1.362  0.178 -0.074 -0.157 -0.170 -0.170
 0.644  1.362  0.178 -0.073 -0.156 -0.169 -0.169
 0.646  1.363  0.178 -0.073 -0.155 -0.169 -0.169
 0.648  1.363  0.179 -0.072 -0.154 -0.168 -0.168
 0.650  1.363  0.179 -0.072 -0.153 -0.167 -0.167
 0.652  1.363  0.179 -0.071 -0.152 -0.166 -0.166
 0.654  1.363  0.180 -0.070 -0.151 -0.165 -0.165
 0.656  1.364  0.181 -0.069 -0.150 -0.165 -0.165
 0.658  1.364  0.181 -0.069 -0.149 -0.164 -0.164
 0.660  1.365  0.181 -0.068 -0.148 -0.163 -0.163
 0.662  1.365  0.182 -0.067 -0.146 -0.162 -0.162
 0.664  1.365  0.183 -0.066 -0.145 -0.161 -0.161
 0.666  1.366  0.184 -0.065 -0.144 -0.161 -0.161
 0.668  1.366  0.184 -0.064 -0.143 -0.160 -0.160
 0.670  1.366  0.185 -0.063 -0.142 -0.159 -0.159
 0.672  1.366  0.186 -0.062 -0.141 -0.158 -0.158
 0.674  1.367  0.186 -0.061 -0.140 -0.157 -0.157
 0.676  1.368  0.188 -0.060 -0.139 -0.156 -0.156
 0.678  1.368  0.188 -0.059 -0.137 -0.155 -0.155
 0.680  1.368  0.190 -0.058 -0.136 -0.154 -0.154
 0.682  1.368  0.190 -0.057 -0.135 -0.153 -0.153
 0.684  1.369  0.191 -0.055 -0.134 -0.152 -0.152
 0.686  1.370  0.192 -0.054 -0.132 -0.150 -0.150
 0.688  1.370  0.193 -0.053 -0.131 -0.149 -0.149
 0.690  1.370  0.195 -0.051 -0.130 -0.148 -0.148
 0.692  1.371  0.196 -0.050 -0.128 -0.147 -0.147
 0.694  1.371  0.196 -0.048 -0.127 -0.145 -0.145
 0.696  1.371  0.198 -0.047 -0.126 -0.144 -0.144
 0.698  1.372  0.199 -0.045 -0.124 -0.143 -0.143
 0.700  1.373  0.200 -0.044 -0.123 -0.141 -0.141
 0.702  1.373  0.202 -0.042 -0.121 -0.140 -0.140
 0.704  1.374  0.203 -0.041 -0.120 -0.139 -0.139
 0.706  1.374  0.205 -0.039 -0.119 -0.137 -0.137
 0.708  1.375  0.206 -0.037 -0.117 -0.136 -0.136
 0.710  1.375  0.207 -0.036 -0.116 -0.134 -0.134
 0.712  1.376  0.209 -0.034 -0.115 -0.133 -0.133
 0.714  1.376  0.210 -0.032 -0.113 -0.131 -0.131
 0.716  1.376  0.212 -0.030 -0.112 -0.129 -0.129
 0.718  1.377  0.213 -0.028 -0.110 -0.128 -0.128
 0.720  1.378  0.215 -0.027 -0.109 -0.126 -0.126
 0.722  1.378  0.216 -0.025 -0.107 -0.124 -0.124
 0.724  1.379  0.218 -0.023 -0.106 -0.122 -0.122
 0.726  1.379  0.219 -0.021 -0.105 -0.120 -0.120
 0.728  1.380  0.220 -0.019 -0.103 -0.119 -0.119
 0.730  1.381  0.222 -0.018 -0.102 -0.117 -0.117
 0.732  1.382  0.224 -0.016 -0.101 -0.115 -0.115
 0.734  1.383  0.225 -0.015 -0.100 -0.113 -0.113
 0.736  1.383  0.227 -0.013 -0.099 -0.111 -0.111
 0.738  1.384  0.228 -0.012 -0.098 -0.109 -0.109
 0.740  1.385  0.229 -0.010 -0.096 -0.108 -0.108
 0.742  1.386  0.230 -0.009 -0.095 -0.106 -0.106
 0.744  1.388  0.232 -0.008 -0.095 -0.104 -0.104
 0.746  1.389  0.234 -0.007 -0.094 -0.102 -0.102
 0.748  1.390  0.235 -0.006 -0.093 -0.101 -0.101
 0.750  1.391  0.236 -0.005 -0.092 -0.099 -0.099
 0.752  1.392  0.237 -0.005 -0.091 -0.098 -0.098
 0.754  1.394  0.239 -0.004 -0.090 -0.096 -0.096
 0.756  1.395  0.240 -0.003 -0.090 -0.095 -0.095
 0.758  1.396  0.241 -0.002 -0.089 -0.094 -0.094
 0.760  1.398  0.242 -0.002 -0.089 -0.093 -0.093
 0.762  1.399  0.243 -0.002 -0.088 -0.092 -0.092
 0.764  1.401  0.244 -0.001 -0.087 -0.091 -0.091
 0.766  1.403  0.246 -0.001 -0.087 -0.090 -0.090
 0.768  1.404  0.247 -0.001 -0.086 -0.089 -0.089
 0.770  1.406  0.248 -0.000 -0.086 -0.089 -0.089
 0.772  1.408  0.249 -0.000 -0.085 -0.088 -0.088
 0.774  1.410  0.251 -0.000 -0.085 -0.088 -0.088
 0.776  1.412  0.252 -0.000 -0.084 -0.087 -0.087
 0.778  1.414  0.253 -0.000 -0.084 -0.087 -0.087
 0.780  1.417  0.254 -0.001 -0.083 -0.087 -0.087
 0.782  1.418  0.256 -0.001 -0.083 -0.086 -0.086
 0.784  1.421  0.257 -0.001 -0.083 -0.086 -0.086
 0.786  1.423  0.258 -0.002 -0.083 -0.086 -0.086
 0.788  1.425  0.258 -0.002 -0.083 -0.086 -0.086
 0.790  1.428  0.259 -0.003 -0.083 -0.086 -0.086
 0.792  1.430  0.259 -0.003 -0.084 -0.086 -0.086
 0.794  1.432  0.259 -0.004 -0.084 -0.086 -0.086
 0.796  1.435  0.258 -0.006 -0.085 -0.086 -0.086
 0.798  1.436  0.258 -0.007 -0.086 -0.087 -0.087
 0.800  1.438  0.256 -0.008 -0.087 -0.087 -0.087
 0.802  1.440  0.255 -0.009 -0.088 -0.088 -0.088
 0.804  1.441  0.254 -0.011 -0.090 -0.088 -0.088
 0.806  1.443  0.252 -0.013 -0.091 -0.089 -0.089
 0.808  1.443  0.249 -0.015 -0.093 -0.090 -0.090
