# IsPeriodic    : True
# Period        : 0.505623 days
# Normalization : <g_mag>=0
# 
# Phase u_mag  g_mag  r_mag  i_mag  z_mag  y_mag
 0.000  0.621 -0.492 -0.620 -0.450 -0.420 -0.420
 0.002  0.621 -0.492 -0.620 -0.450 -0.420 -0.420
 0.004  0.621 -0.491 -0.618 -0.450 -0.419 -0.419
 0.006  0.622 -0.490 -0.616 -0.449 -0.419 -0.419
 0.008  0.623 -0.489 -0.614 -0.448 -0.418 -0.418
 0.010  0.624 -0.487 -0.611 -0.448 -0.417 -0.417
 0.012  0.625 -0.485 -0.608 -0.447 -0.416 -0.416
 0.014  0.627 -0.483 -0.604 -0.445 -0.414 -0.414
 0.016  0.629 -0.480 -0.600 -0.443 -0.412 -0.412
 0.018  0.631 -0.478 -0.596 -0.442 -0.410 -0.410
 0.020  0.633 -0.474 -0.592 -0.440 -0.408 -0.408
 0.022  0.636 -0.471 -0.587 -0.439 -0.406 -0.406
 0.024  0.639 -0.468 -0.582 -0.436 -0.403 -0.403
 0.026  0.643 -0.465 -0.578 -0.434 -0.400 -0.400
 0.028  0.646 -0.462 -0.574 -0.433 -0.398 -0.398
 0.030  0.650 -0.459 -0.570 -0.431 -0.396 -0.396
 0.032  0.655 -0.456 -0.566 -0.428 -0.393 -0.393
 0.034  0.659 -0.453 -0.562 -0.426 -0.391 -0.391
 0.036  0.664 -0.449 -0.558 -0.423 -0.388 -0.388
 0.038  0.670 -0.446 -0.554 -0.421 -0.385 -0.385
 0.040  0.676 -0.442 -0.550 -0.419 -0.383 -0.383
 0.042  0.681 -0.439 -0.547 -0.417 -0.381 -0.381
 0.044  0.687 -0.435 -0.543 -0.414 -0.379 -0.379
 0.046  0.693 -0.432 -0.539 -0.412 -0.376 -0.376
 0.048  0.699 -0.428 -0.535 -0.410 -0.374 -0.374
 0.050  0.706 -0.424 -0.531 -0.408 -0.372 -0.372
 0.052  0.712 -0.420 -0.527 -0.406 -0.369 -0.369
 0.054  0.719 -0.417 -0.522 -0.404 -0.367 -0.367
 0.056  0.725 -0.413 -0.518 -0.402 -0.365 -0.365
 0.058  0.732 -0.408 -0.514 -0.400 -0.363 -0.363
 0.060  0.738 -0.404 -0.509 -0.397 -0.361 -0.361
 0.062  0.746 -0.399 -0.505 -0.396 -0.359 -0.359
 0.064  0.752 -0.395 -0.501 -0.394 -0.357 -0.357
 0.066  0.759 -0.390 -0.497 -0.392 -0.355 -0.355
 0.068  0.765 -0.385 -0.493 -0.389 -0.353 -0.353
 0.070  0.771 -0.380 -0.489 -0.388 -0.351 -0.351
 0.072  0.777 -0.376 -0.485 -0.386 -0.349 -0.349
 0.074  0.783 -0.371 -0.481 -0.383 -0.347 -0.347
 0.076  0.789 -0.366 -0.476 -0.381 -0.345 -0.345
 0.078  0.794 -0.361 -0.472 -0.380 -0.344 -0.344
 0.080  0.800 -0.356 -0.468 -0.377 -0.341 -0.341
 0.082  0.805 -0.351 -0.464 -0.375 -0.340 -0.340
 0.084  0.811 -0.346 -0.460 -0.374 -0.338 -0.338
 0.086  0.816 -0.341 -0.456 -0.372 -0.336 -0.336
 0.088  0.822 -0.337 -0.452 -0.370 -0.334 -0.334
 0.090  0.827 -0.332 -0.447 -0.368 -0.333 -0.333
 0.092  0.833 -0.327 -0.443 -0.366 -0.331 -0.331
 0.094  0.838 -0.323 -0.439 -0.364 -0.330 -0.330
 0.096  0.843 -0.318 -0.435 -0.362 -0.328 -0.328
 0.098  0.848 -0.313 -0.431 -0.360 -0.327 -0.327
 0.100  0.853 -0.308 -0.427 -0.359 -0.325 -0.325
 0.102  0.858 -0.304 -0.423 -0.356 -0.323 -0.323
 0.104  0.862 -0.300 -0.419 -0.355 -0.322 -0.322
 0.106  0.867 -0.296 -0.415 -0.353 -0.320 -0.320
 0.108  0.872 -0.291 -0.411 -0.351 -0.318 -0.318
 0.110  0.876 -0.287 -0.407 -0.349 -0.316 -0.316
 0.112  0.880 -0.283 -0.404 -0.347 -0.315 -0.315
 0.114  0.885 -0.279 -0.400 -0.346 -0.313 -0.313
 0.116  0.889 -0.276 -0.396 -0.343 -0.312 -0.312
 0.118  0.893 -0.272 -0.392 -0.342 -0.310 -0.310
 0.120  0.898 -0.268 -0.389 -0.340 -0.308 -0.308
 0.122  0.902 -0.265 -0.385 -0.338 -0.306 -0.306
 0.124  0.906 -0.261 -0.381 -0.336 -0.305 -0.305
 0.126  0.910 -0.258 -0.378 -0.334 -0.303 -0.303
 0.128  0.914 -0.254 -0.374 -0.333 -0.302 -0.302
 0.130  0.918 -0.251 -0.370 -0.331 -0.300 -0.300
 0.132  0.922 -0.248 -0.366 -0.329 -0.298 -0.298
 0.134  0.926 -0.245 -0.363 -0.327 -0.296 -0.296
 0.136  0.931 -0.242 -0.359 -0.325 -0.295 -0.295
 0.138  0.935 -0.239 -0.356 -0.323 -0.293 -0.293
 0.140  0.939 -0.236 -0.353 -0.322 -0.291 -0.291
 0.142  0.943 -0.233 -0.349 -0.320 -0.289 -0.289
 0.144  0.947 -0.230 -0.346 -0.318 -0.288 -0.288
 0.146  0.951 -0.228 -0.342 -0.316 -0.286 -0.286
 0.148  0.955 -0.225 -0.338 -0.315 -0.285 -0.285
 0.150  0.959 -0.222 -0.335 -0.313 -0.282 -0.282
 0.152  0.963 -0.220 -0.332 -0.311 -0.281 -0.281
 0.154  0.967 -0.218 -0.329 -0.309 -0.279 -0.279
 0.156  0.971 -0.214 -0.325 -0.308 -0.277 -0.277
 0.158  0.976 -0.212 -0.322 -0.305 -0.276 -0.276
 0.160  0.980 -0.210 -0.318 -0.304 -0.274 -0.274
 0.162  0.984 -0.207 -0.315 -0.302 -0.272 -0.272
 0.164  0.988 -0.205 -0.312 -0.300 -0.270 -0.270
 0.166  0.992 -0.203 -0.309 -0.298 -0.269 -0.269
 0.168  0.997 -0.200 -0.306 -0.297 -0.267 -0.267
 0.170  1.001 -0.197 -0.302 -0.295 -0.265 -0.265
 0.172  1.005 -0.195 -0.299 -0.294 -0.263 -0.263
 0.174  1.009 -0.192 -0.296 -0.292 -0.261 -0.261
 0.176  1.013 -0.189 -0.294 -0.290 -0.260 -0.260
 0.178  1.017 -0.186 -0.290 -0.288 -0.258 -0.258
 0.180  1.021 -0.184 -0.287 -0.287 -0.256 -0.256
 0.182  1.025 -0.181 -0.284 -0.285 -0.255 -0.255
 0.184  1.029 -0.178 -0.281 -0.283 -0.253 -0.253
 0.186  1.033 -0.175 -0.278 -0.282 -0.251 -0.251
 0.188  1.038 -0.172 -0.275 -0.280 -0.250 -0.250
 0.190  1.042 -0.170 -0.272 -0.278 -0.248 -0.248
 0.192  1.046 -0.167 -0.270 -0.277 -0.246 -0.246
 0.194  1.051 -0.164 -0.266 -0.276 -0.245 -0.245
 0.196  1.055 -0.161 -0.263 -0.274 -0.243 -0.243
 0.198  1.059 -0.158 -0.261 -0.272 -0.242 -0.242
 0.200  1.063 -0.155 -0.258 -0.271 -0.240 -0.240
 0.202  1.067 -0.152 -0.255 -0.269 -0.239 -0.239
 0.204  1.071 -0.149 -0.252 -0.268 -0.237 -0.237
 0.206  1.075 -0.146 -0.250 -0.266 -0.236 -0.236
 0.208  1.079 -0.143 -0.247 -0.265 -0.234 -0.234
 0.210  1.083 -0.140 -0.244 -0.264 -0.233 -0.233
 0.212  1.087 -0.136 -0.242 -0.262 -0.231 -0.231
 0.214  1.091 -0.133 -0.239 -0.261 -0.230 -0.230
 0.216  1.095 -0.130 -0.236 -0.259 -0.228 -0.228
 0.218  1.098 -0.127 -0.234 -0.258 -0.227 -0.227
 0.220  1.102 -0.124 -0.231 -0.257 -0.226 -0.226
 0.222  1.106 -0.120 -0.228 -0.255 -0.224 -0.224
 0.224  1.110 -0.117 -0.226 -0.254 -0.223 -0.223
 0.226  1.113 -0.113 -0.223 -0.253 -0.221 -0.221
 0.228  1.117 -0.110 -0.221 -0.251 -0.220 -0.220
 0.230  1.121 -0.107 -0.219 -0.250 -0.219 -0.219
 0.232  1.124 -0.104 -0.216 -0.249 -0.218 -0.218
 0.234  1.129 -0.101 -0.214 -0.248 -0.216 -0.216
 0.236  1.133 -0.098 -0.211 -0.246 -0.215 -0.215
 0.238  1.136 -0.095 -0.209 -0.245 -0.213 -0.213
 0.240  1.140 -0.091 -0.207 -0.244 -0.212 -0.212
 0.242  1.143 -0.088 -0.204 -0.243 -0.211 -0.211
 0.244  1.147 -0.085 -0.202 -0.242 -0.210 -0.210
 0.246  1.150 -0.082 -0.199 -0.241 -0.208 -0.208
 0.248  1.154 -0.079 -0.197 -0.239 -0.207 -0.207
 0.250  1.157 -0.077 -0.195 -0.238 -0.205 -0.205
 0.252  1.160 -0.073 -0.192 -0.237 -0.204 -0.204
 0.254  1.164 -0.070 -0.190 -0.235 -0.203 -0.203
 0.256  1.167 -0.067 -0.187 -0.234 -0.202 -0.202
 0.258  1.170 -0.065 -0.186 -0.232 -0.200 -0.200
 0.260  1.174 -0.062 -0.183 -0.231 -0.199 -0.199
 0.262  1.177 -0.059 -0.181 -0.230 -0.197 -0.197
 0.264  1.180 -0.056 -0.179 -0.229 -0.196 -0.196
 0.266  1.183 -0.054 -0.176 -0.227 -0.195 -0.195
 0.268  1.187 -0.051 -0.175 -0.226 -0.193 -0.193
 0.270  1.190 -0.048 -0.172 -0.224 -0.192 -0.192
 0.272  1.193 -0.046 -0.170 -0.223 -0.191 -0.191
 0.274  1.196 -0.043 -0.168 -0.222 -0.189 -0.189
 0.276  1.200 -0.041 -0.166 -0.220 -0.187 -0.187
 0.278  1.204 -0.038 -0.163 -0.219 -0.186 -0.186
 0.280  1.207 -0.036 -0.162 -0.217 -0.185 -0.185
 0.282  1.210 -0.033 -0.159 -0.216 -0.183 -0.183
 0.284  1.213 -0.030 -0.158 -0.214 -0.182 -0.182
 0.286  1.217 -0.028 -0.155 -0.212 -0.180 -0.180
 0.288  1.220 -0.026 -0.154 -0.211 -0.179 -0.179
 0.290  1.223 -0.023 -0.151 -0.210 -0.177 -0.177
 0.292  1.226 -0.021 -0.150 -0.208 -0.176 -0.176
 0.294  1.229 -0.019 -0.147 -0.206 -0.174 -0.174
 0.296  1.233 -0.017 -0.146 -0.205 -0.173 -0.173
 0.298  1.236 -0.015 -0.144 -0.203 -0.171 -0.171
 0.300  1.239 -0.012 -0.142 -0.202 -0.169 -0.169
 0.302  1.242 -0.010 -0.140 -0.200 -0.168 -0.168
 0.304  1.245 -0.008 -0.138 -0.198 -0.166 -0.166
 0.306  1.249 -0.005 -0.136 -0.197 -0.165 -0.165
 0.308  1.252 -0.003 -0.134 -0.195 -0.163 -0.163
 0.310  1.255 -0.001 -0.132 -0.193 -0.161 -0.161
 0.312  1.258  0.001 -0.130 -0.192 -0.160 -0.160
 0.314  1.261  0.003 -0.128 -0.190 -0.158 -0.158
 0.316  1.264  0.006 -0.126 -0.188 -0.157 -0.157
 0.318  1.268  0.008 -0.124 -0.186 -0.155 -0.155
 0.320  1.271  0.010 -0.122 -0.185 -0.153 -0.153
 0.322  1.274  0.013 -0.120 -0.183 -0.152 -0.152
 0.324  1.277  0.015 -0.118 -0.182 -0.150 -0.150
 0.326  1.281  0.017 -0.116 -0.180 -0.149 -0.149
 0.328  1.284  0.020 -0.114 -0.178 -0.147 -0.147
 0.330  1.288  0.022 -0.112 -0.177 -0.145 -0.145
 0.332  1.291  0.024 -0.110 -0.176 -0.144 -0.144
 0.334  1.294  0.026 -0.107 -0.174 -0.143 -0.143
 0.336  1.297  0.028 -0.106 -0.172 -0.141 -0.141
 0.338  1.300  0.031 -0.104 -0.171 -0.140 -0.140
 0.340  1.303  0.033 -0.102 -0.169 -0.138 -0.138
 0.342  1.306  0.035 -0.100 -0.167 -0.136 -0.136
 0.344  1.309  0.038 -0.097 -0.166 -0.135 -0.135
 0.346  1.312  0.040 -0.096 -0.165 -0.133 -0.133
 0.348  1.316  0.042 -0.093 -0.163 -0.132 -0.132
 0.350  1.319  0.045 -0.092 -0.162 -0.131 -0.131
 0.352  1.322  0.047 -0.089 -0.160 -0.129 -0.129
 0.354  1.325  0.050 -0.087 -0.159 -0.127 -0.127
 0.356  1.327  0.052 -0.084 -0.158 -0.126 -0.126
 0.358  1.330  0.054 -0.083 -0.156 -0.124 -0.124
 0.360  1.333  0.057 -0.080 -0.154 -0.123 -0.123
 0.362  1.336  0.059 -0.078 -0.153 -0.122 -0.122
 0.364  1.339  0.061 -0.076 -0.152 -0.120 -0.120
 0.366  1.342  0.064 -0.074 -0.151 -0.118 -0.118
 0.368  1.345  0.065 -0.072 -0.149 -0.117 -0.117
 0.370  1.348  0.068 -0.070 -0.148 -0.115 -0.115
 0.372  1.350  0.070 -0.068 -0.146 -0.114 -0.114
 0.374  1.353  0.072 -0.065 -0.145 -0.112 -0.112
 0.376  1.357  0.075 -0.063 -0.144 -0.111 -0.111
 0.378  1.360  0.077 -0.061 -0.143 -0.109 -0.109
 0.380  1.362  0.079 -0.059 -0.141 -0.108 -0.108
 0.382  1.365  0.081 -0.056 -0.140 -0.107 -0.107
 0.384  1.368  0.083 -0.055 -0.139 -0.105 -0.105
 0.386  1.370  0.086 -0.052 -0.138 -0.104 -0.104
 0.388  1.373  0.088 -0.050 -0.136 -0.102 -0.102
 0.390  1.376  0.089 -0.048 -0.135 -0.101 -0.101
 0.392  1.378  0.092 -0.046 -0.134 -0.099 -0.099
 0.394  1.381  0.094 -0.044 -0.132 -0.098 -0.098
 0.396  1.383  0.096 -0.042 -0.131 -0.097 -0.097
 0.398  1.386  0.098 -0.040 -0.130 -0.095 -0.095
 0.400  1.388  0.100 -0.037 -0.128 -0.094 -0.094
 0.402  1.391  0.102 -0.036 -0.127 -0.092 -0.092
 0.404  1.393  0.104 -0.033 -0.126 -0.091 -0.091
 0.406  1.396  0.106 -0.031 -0.125 -0.090 -0.090
 0.408  1.398  0.108 -0.029 -0.123 -0.088 -0.088
 0.410  1.401  0.110 -0.027 -0.122 -0.087 -0.087
 0.412  1.403  0.111 -0.025 -0.120 -0.085 -0.085
 0.414  1.406  0.114 -0.023 -0.119 -0.084 -0.084
 0.416  1.408  0.115 -0.020 -0.118 -0.083 -0.083
 0.418  1.410  0.117 -0.019 -0.117 -0.081 -0.081
 0.420  1.413  0.118 -0.016 -0.115 -0.080 -0.080
 0.422  1.415  0.121 -0.015 -0.114 -0.079 -0.079
 0.424  1.417  0.122 -0.012 -0.112 -0.077 -0.077
 0.426  1.420  0.124 -0.010 -0.111 -0.076 -0.076
 0.428  1.422  0.126 -0.008 -0.110 -0.074 -0.074
 0.430  1.424  0.128 -0.006 -0.108 -0.073 -0.073
 0.432  1.426  0.129 -0.004 -0.107 -0.072 -0.072
 0.434  1.428  0.131 -0.002 -0.105 -0.071 -0.071
 0.436  1.431  0.133  0.000 -0.104 -0.069 -0.069
 0.438  1.434  0.134  0.002 -0.102 -0.068 -0.068
 0.440  1.436  0.136  0.004 -0.101 -0.066 -0.066
 0.442  1.438  0.137  0.006 -0.099 -0.065 -0.065
 0.444  1.440  0.139  0.008 -0.098 -0.064 -0.064
 0.446  1.442  0.140  0.010 -0.097 -0.063 -0.063
 0.448  1.444  0.142  0.012 -0.095 -0.061 -0.061
 0.450  1.446  0.144  0.014 -0.094 -0.060 -0.060
 0.452  1.448  0.145  0.016 -0.092 -0.059 -0.059
 0.454  1.450  0.146  0.017 -0.091 -0.057 -0.057
 0.456  1.453  0.147  0.020 -0.089 -0.056 -0.056
 0.458  1.454  0.149  0.021 -0.088 -0.055 -0.055
 0.460  1.456  0.151  0.023 -0.086 -0.054 -0.054
 0.462  1.458  0.151  0.024 -0.085 -0.052 -0.052
 0.464  1.460  0.153  0.027 -0.084 -0.051 -0.051
 0.466  1.462  0.155  0.028 -0.082 -0.050 -0.050
 0.468  1.464  0.155  0.030 -0.081 -0.049 -0.049
 0.470  1.466  0.157  0.032 -0.080 -0.047 -0.047
 0.472  1.468  0.158  0.033 -0.078 -0.046 -0.046
 0.474  1.470  0.159  0.035 -0.077 -0.045 -0.045
 0.476  1.472  0.160  0.036 -0.076 -0.044 -0.044
 0.478  1.473  0.162  0.038 -0.074 -0.042 -0.042
 0.480  1.475  0.162  0.039 -0.073 -0.041 -0.041
 0.482  1.477  0.164  0.041 -0.072 -0.040 -0.040
 0.484  1.479  0.165  0.042 -0.071 -0.039 -0.039
 0.486  1.480  0.165  0.043 -0.069 -0.038 -0.038
 0.488  1.482  0.166  0.045 -0.068 -0.037 -0.037
 0.490  1.484  0.168  0.047 -0.067 -0.035 -0.035
 0.492  1.485  0.169  0.048 -0.066 -0.034 -0.034
 0.494  1.487  0.169  0.049 -0.065 -0.033 -0.033
 0.496  1.488  0.170  0.051 -0.064 -0.032 -0.032
 0.498  1.490  0.171  0.052 -0.063 -0.031 -0.031
 0.500  1.491  0.172  0.053 -0.062 -0.030 -0.030
 0.502  1.493  0.173  0.055 -0.061 -0.029 -0.029
 0.504  1.494  0.173  0.055 -0.060 -0.028 -0.028
 0.506  1.496  0.174  0.057 -0.059 -0.027 -0.027
 0.508  1.497  0.175  0.058 -0.058 -0.026 -0.026
 0.510  1.498  0.176  0.059 -0.057 -0.025 -0.025
 0.512  1.500  0.176  0.060 -0.056 -0.024 -0.024
 0.514  1.501  0.177  0.061 -0.055 -0.023 -0.023
 0.516  1.502  0.178  0.063 -0.054 -0.022 -0.022
 0.518  1.504  0.179  0.063 -0.054 -0.021 -0.021
 0.520  1.505  0.179  0.064 -0.053 -0.020 -0.020
 0.522  1.506  0.180  0.065 -0.052 -0.019 -0.019
 0.524  1.507  0.180  0.067 -0.051 -0.018 -0.018
 0.526  1.509  0.181  0.067 -0.050 -0.017 -0.017
 0.528  1.510  0.182  0.068 -0.049 -0.016 -0.016
 0.530  1.511  0.183  0.069 -0.048 -0.015 -0.015
 0.532  1.512  0.183  0.070 -0.048 -0.014 -0.014
 0.534  1.513  0.183  0.071 -0.047 -0.013 -0.013
 0.536  1.514  0.184  0.071 -0.046 -0.012 -0.012
 0.538  1.515  0.185  0.072 -0.046 -0.012 -0.012
 0.540  1.516  0.185  0.073 -0.045 -0.011 -0.011
 0.542  1.517  0.186  0.074 -0.044 -0.009 -0.009
 0.544  1.518  0.187  0.075 -0.043 -0.009 -0.009
 0.546  1.519  0.187  0.075 -0.043 -0.008 -0.008
 0.548  1.520  0.187  0.075 -0.042 -0.007 -0.007
 0.550  1.520  0.188  0.076 -0.041 -0.006 -0.006
 0.552  1.521  0.189  0.076 -0.041 -0.005 -0.005
 0.554  1.522  0.189  0.077 -0.040 -0.004 -0.004
 0.556  1.522  0.190  0.078 -0.040 -0.004 -0.004
 0.558  1.523  0.191  0.078 -0.039 -0.003 -0.003
 0.560  1.524  0.191  0.079 -0.038 -0.001 -0.001
 0.562  1.524  0.191  0.079 -0.038 -0.001 -0.001
 0.564  1.525  0.192  0.079 -0.037  0.000  0.000
 0.566  1.525  0.192  0.079 -0.036  0.001  0.001
 0.568  1.525  0.193  0.080 -0.036  0.002  0.002
 0.570  1.526  0.194  0.080 -0.035  0.003  0.003
 0.572  1.526  0.194  0.080 -0.035  0.003  0.003
 0.574  1.527  0.194  0.081 -0.034  0.004  0.004
 0.576  1.527  0.195  0.081 -0.034  0.005  0.005
 0.578  1.527  0.195  0.081 -0.033  0.006  0.006
 0.580  1.527  0.196  0.081 -0.033  0.006  0.006
 0.582  1.527  0.196  0.081 -0.032  0.008  0.008
 0.584  1.527  0.197  0.082 -0.032  0.008  0.008
 0.586  1.528  0.197  0.082 -0.031  0.009  0.009
 0.588  1.528  0.198  0.082 -0.030  0.010  0.010
 0.590  1.528  0.198  0.082 -0.030  0.011  0.011
 0.592  1.528  0.198  0.082 -0.029  0.011  0.011
 0.594  1.527  0.198  0.082 -0.029  0.012  0.012
 0.596  1.527  0.199  0.083 -0.029  0.013  0.013
 0.598  1.527  0.199  0.083 -0.028  0.013  0.013
 0.600  1.527  0.199  0.083 -0.028  0.014  0.014
 0.602  1.527  0.200  0.083 -0.027  0.015  0.015
 0.604  1.527  0.200  0.083 -0.027  0.016  0.016
 0.606  1.526  0.200  0.083 -0.027  0.017  0.017
 0.608  1.526  0.200  0.083 -0.026  0.017  0.017
 0.610  1.526  0.201  0.083 -0.026  0.018  0.018
 0.612  1.525  0.201  0.083 -0.025  0.019  0.019
 0.614  1.525  0.201  0.084 -0.025  0.019  0.019
 0.616  1.524  0.201  0.084 -0.024  0.020  0.020
 0.618  1.524  0.202  0.084 -0.024  0.021  0.021
 0.620  1.523  0.202  0.084 -0.023  0.021  0.021
 0.622  1.522  0.202  0.085 -0.023  0.022  0.022
 0.624  1.522  0.202  0.085 -0.022  0.023  0.023
 0.626  1.521  0.202  0.085 -0.022  0.023  0.023
 0.628  1.521  0.202  0.086 -0.021  0.024  0.024
 0.630  1.520  0.202  0.086 -0.021  0.025  0.025
 0.632  1.520  0.202  0.086 -0.021  0.026  0.026
 0.634  1.519  0.202  0.087 -0.020  0.026  0.026
 0.636  1.519  0.202  0.087 -0.020  0.027  0.027
 0.638  1.518  0.202  0.087 -0.019  0.028  0.028
 0.640  1.518  0.202  0.087 -0.019  0.028  0.028
 0.642  1.517  0.201  0.087 -0.018  0.029  0.029
 0.644  1.517  0.201  0.087 -0.017  0.029  0.029
 0.646  1.517  0.201  0.088 -0.017  0.030  0.030
 0.648  1.516  0.201  0.088 -0.016  0.031  0.031
 0.650  1.516  0.201  0.088 -0.016  0.031  0.031
 0.652  1.516  0.201  0.089 -0.015  0.032  0.032
 0.654  1.515  0.200  0.089 -0.015  0.033  0.033
 0.656  1.515  0.200  0.089 -0.015  0.033  0.033
 0.658  1.515  0.200  0.090 -0.014  0.034  0.034
 0.660  1.514  0.200  0.090 -0.014  0.034  0.034
 0.662  1.514  0.199  0.090 -0.013  0.035  0.035
 0.664  1.514  0.199  0.091 -0.013  0.036  0.036
 0.666  1.514  0.199  0.091 -0.012  0.036  0.036
 0.668  1.514  0.199  0.091 -0.012  0.037  0.037
 0.670  1.513  0.198  0.091 -0.011  0.037  0.037
 0.672  1.513  0.198  0.091 -0.010  0.038  0.038
 0.674  1.513  0.198  0.091 -0.009  0.039  0.039
 0.676  1.513  0.198  0.091 -0.009  0.039  0.039
 0.678  1.513  0.198  0.091 -0.008  0.040  0.040
 0.680  1.513  0.198  0.091 -0.007  0.041  0.041
 0.682  1.513  0.198  0.091 -0.006  0.042  0.042
 0.684  1.513  0.198  0.092 -0.006  0.043  0.043
 0.686  1.513  0.198  0.092 -0.005  0.044  0.044
 0.688  1.513  0.197  0.092 -0.003  0.045  0.045
 0.690  1.513  0.197  0.092 -0.002  0.046  0.046
 0.692  1.513  0.197  0.092 -0.001  0.047  0.047
 0.694  1.513  0.197  0.092 -0.000  0.048  0.048
 0.696  1.513  0.197  0.092  0.001  0.049  0.049
 0.698  1.513  0.197  0.092  0.003  0.050  0.050
 0.700  1.513  0.197  0.092  0.004  0.051  0.051
 0.702  1.513  0.197  0.092  0.005  0.052  0.052
 0.704  1.513  0.196  0.092  0.007  0.053  0.053
 0.706  1.513  0.196  0.092  0.008  0.054  0.054
 0.708  1.513  0.196  0.091  0.010  0.056  0.056
 0.710  1.514  0.196  0.091  0.011  0.057  0.057
 0.712  1.514  0.196  0.091  0.013  0.059  0.059
 0.714  1.514  0.195  0.091  0.015  0.060  0.060
 0.716  1.514  0.195  0.091  0.017  0.061  0.061
 0.718  1.514  0.195  0.091  0.018  0.062  0.062
 0.720  1.514  0.195  0.091  0.020  0.064  0.064
 0.722  1.514  0.195  0.091  0.022  0.065  0.065
 0.724  1.515  0.195  0.091  0.024  0.067  0.067
 0.726  1.515  0.195  0.090  0.026  0.069  0.069
 0.728  1.515  0.195  0.090  0.029  0.070  0.070
 0.730  1.515  0.195  0.090  0.031  0.072  0.072
 0.732  1.516  0.196  0.090  0.033  0.073  0.073
 0.734  1.516  0.196  0.091  0.035  0.075  0.075
 0.736  1.516  0.197  0.091  0.037  0.077  0.077
 0.738  1.517  0.198  0.091  0.039  0.078  0.078
 0.740  1.517  0.198  0.091  0.042  0.080  0.080
 0.742  1.517  0.199  0.092  0.044  0.081  0.081
 0.744  1.518  0.201  0.092  0.046  0.083  0.083
 0.746  1.518  0.202  0.093  0.049  0.085  0.085
 0.748  1.518  0.203  0.094  0.051  0.086  0.086
 0.750  1.519  0.205  0.095  0.053  0.087  0.087
 0.752  1.519  0.205  0.095  0.054  0.089  0.089
 0.754  1.519  0.207  0.097  0.057  0.090  0.090
 0.756  1.519  0.209  0.098  0.059  0.091  0.091
 0.758  1.520  0.211  0.099  0.060  0.093  0.093
 0.760  1.520  0.212  0.100  0.063  0.094  0.094
 0.762  1.521  0.215  0.102  0.064  0.095  0.095
 0.764  1.521  0.217  0.103  0.066  0.096  0.096
 0.766  1.522  0.220  0.104  0.067  0.097  0.097
 0.768  1.522  0.222  0.106  0.069  0.098  0.098
 0.770  1.523  0.224  0.108  0.071  0.099  0.099
 0.772  1.524  0.227  0.110  0.072  0.100  0.100
 0.774  1.525  0.230  0.111  0.074  0.102  0.102
 0.776  1.526  0.233  0.114  0.075  0.102  0.102
 0.778  1.528  0.236  0.116  0.076  0.103  0.103
 0.780  1.529  0.239  0.118  0.078  0.104  0.104
 0.782  1.531  0.243  0.120  0.079  0.105  0.105
 0.784  1.532  0.246  0.123  0.080  0.105  0.105
 0.786  1.534  0.249  0.125  0.081  0.106  0.106
 0.788  1.536  0.253  0.127  0.082  0.106  0.106
 0.790  1.538  0.257  0.131  0.083  0.107  0.107
 0.792  1.540  0.260  0.133  0.084  0.108  0.108
 0.794  1.542  0.264  0.135  0.085  0.108  0.108
 0.796  1.545  0.267  0.138  0.086  0.109  0.109
 0.798  1.547  0.271  0.140  0.088  0.110  0.110
 0.800  1.550  0.274  0.143  0.089  0.110  0.110
 0.802  1.553  0.277  0.146  0.089  0.111  0.111
 0.804  1.555  0.281  0.148  0.090  0.111  0.111
 0.806  1.558  0.283  0.151  0.091  0.111  0.111
 0.808  1.562  0.285  0.153  0.091  0.111  0.111
