# IsPeriodic    : True
# Period        : 0.605805 days
# Normalization : <g_mag>=0
# 
# Phase u_mag  g_mag  r_mag  i_mag  z_mag  y_mag
 0.000  0.709 -0.498 -0.542 -0.593 -0.514 -0.514
 0.002  0.709 -0.497 -0.542 -0.593 -0.514 -0.514
 0.004  0.710 -0.496 -0.542 -0.592 -0.513 -0.513
 0.006  0.710 -0.495 -0.542 -0.591 -0.513 -0.513
 0.008  0.711 -0.493 -0.541 -0.590 -0.513 -0.513
 0.010  0.712 -0.492 -0.541 -0.588 -0.513 -0.513
 0.012  0.714 -0.490 -0.540 -0.586 -0.513 -0.513
 0.014  0.715 -0.488 -0.539 -0.583 -0.512 -0.512
 0.016  0.717 -0.485 -0.539 -0.580 -0.512 -0.512
 0.018  0.719 -0.482 -0.538 -0.577 -0.511 -0.511
 0.020  0.721 -0.480 -0.537 -0.574 -0.511 -0.511
 0.022  0.723 -0.476 -0.535 -0.570 -0.510 -0.510
 0.024  0.725 -0.473 -0.534 -0.567 -0.510 -0.510
 0.026  0.727 -0.471 -0.533 -0.564 -0.509 -0.509
 0.028  0.729 -0.467 -0.531 -0.561 -0.509 -0.509
 0.030  0.732 -0.464 -0.530 -0.558 -0.508 -0.508
 0.032  0.734 -0.462 -0.528 -0.555 -0.508 -0.508
 0.034  0.736 -0.458 -0.527 -0.552 -0.507 -0.507
 0.036  0.739 -0.455 -0.526 -0.549 -0.507 -0.507
 0.038  0.741 -0.453 -0.524 -0.546 -0.506 -0.506
 0.040  0.744 -0.449 -0.522 -0.543 -0.505 -0.505
 0.042  0.746 -0.446 -0.521 -0.540 -0.505 -0.505
 0.044  0.749 -0.444 -0.519 -0.537 -0.504 -0.504
 0.046  0.752 -0.440 -0.518 -0.535 -0.503 -0.503
 0.048  0.754 -0.436 -0.515 -0.532 -0.503 -0.503
 0.050  0.757 -0.433 -0.514 -0.529 -0.502 -0.502
 0.052  0.759 -0.430 -0.512 -0.527 -0.501 -0.501
 0.054  0.762 -0.426 -0.509 -0.524 -0.500 -0.500
 0.056  0.765 -0.422 -0.507 -0.521 -0.499 -0.499
 0.058  0.768 -0.419 -0.505 -0.519 -0.498 -0.498
 0.060  0.771 -0.415 -0.502 -0.516 -0.498 -0.498
 0.062  0.774 -0.411 -0.500 -0.514 -0.497 -0.497
 0.064  0.777 -0.407 -0.497 -0.511 -0.496 -0.496
 0.066  0.780 -0.403 -0.495 -0.509 -0.495 -0.495
 0.068  0.784 -0.399 -0.493 -0.507 -0.494 -0.494
 0.070  0.787 -0.395 -0.490 -0.504 -0.493 -0.493
 0.072  0.790 -0.391 -0.487 -0.502 -0.492 -0.492
 0.074  0.793 -0.387 -0.484 -0.500 -0.491 -0.491
 0.076  0.797 -0.382 -0.482 -0.498 -0.490 -0.490
 0.078  0.800 -0.378 -0.479 -0.496 -0.489 -0.489
 0.080  0.804 -0.374 -0.476 -0.494 -0.488 -0.488
 0.082  0.807 -0.370 -0.474 -0.492 -0.486 -0.486
 0.084  0.811 -0.366 -0.471 -0.490 -0.486 -0.486
 0.086  0.815 -0.362 -0.468 -0.488 -0.484 -0.484
 0.088  0.818 -0.358 -0.466 -0.486 -0.484 -0.484
 0.090  0.822 -0.353 -0.463 -0.484 -0.483 -0.483
 0.092  0.825 -0.349 -0.460 -0.482 -0.482 -0.482
 0.094  0.829 -0.344 -0.457 -0.481 -0.481 -0.481
 0.096  0.832 -0.340 -0.455 -0.479 -0.480 -0.480
 0.098  0.836 -0.336 -0.452 -0.477 -0.479 -0.479
 0.100  0.839 -0.332 -0.449 -0.475 -0.478 -0.478
 0.102  0.843 -0.328 -0.447 -0.473 -0.477 -0.477
 0.104  0.846 -0.324 -0.444 -0.471 -0.476 -0.476
 0.106  0.850 -0.321 -0.441 -0.469 -0.475 -0.475
 0.108  0.853 -0.317 -0.438 -0.468 -0.474 -0.474
 0.110  0.856 -0.313 -0.436 -0.466 -0.473 -0.473
 0.112  0.859 -0.308 -0.434 -0.464 -0.472 -0.472
 0.114  0.863 -0.304 -0.431 -0.462 -0.472 -0.472
 0.116  0.866 -0.301 -0.428 -0.460 -0.471 -0.471
 0.118  0.869 -0.297 -0.426 -0.458 -0.470 -0.470
 0.120  0.872 -0.293 -0.423 -0.457 -0.469 -0.469
 0.122  0.876 -0.290 -0.421 -0.455 -0.468 -0.468
 0.124  0.878 -0.286 -0.418 -0.453 -0.467 -0.467
 0.126  0.881 -0.282 -0.416 -0.451 -0.467 -0.467
 0.128  0.885 -0.278 -0.414 -0.449 -0.466 -0.466
 0.130  0.887 -0.275 -0.411 -0.448 -0.465 -0.465
 0.132  0.890 -0.271 -0.409 -0.446 -0.464 -0.464
 0.134  0.893 -0.268 -0.406 -0.444 -0.463 -0.463
 0.136  0.896 -0.263 -0.404 -0.442 -0.463 -0.463
 0.138  0.899 -0.260 -0.401 -0.441 -0.462 -0.462
 0.140  0.902 -0.257 -0.399 -0.439 -0.461 -0.461
 0.142  0.904 -0.253 -0.396 -0.437 -0.460 -0.460
 0.144  0.908 -0.250 -0.394 -0.435 -0.460 -0.460
 0.146  0.910 -0.246 -0.392 -0.434 -0.459 -0.459
 0.148  0.913 -0.242 -0.389 -0.433 -0.458 -0.458
 0.150  0.915 -0.239 -0.387 -0.431 -0.458 -0.458
 0.152  0.918 -0.236 -0.385 -0.429 -0.457 -0.457
 0.154  0.920 -0.232 -0.383 -0.427 -0.456 -0.456
 0.156  0.923 -0.229 -0.380 -0.426 -0.455 -0.455
 0.158  0.926 -0.226 -0.378 -0.424 -0.455 -0.455
 0.160  0.928 -0.223 -0.376 -0.422 -0.454 -0.454
 0.162  0.931 -0.218 -0.374 -0.421 -0.453 -0.453
 0.164  0.933 -0.215 -0.372 -0.419 -0.453 -0.453
 0.166  0.936 -0.212 -0.370 -0.417 -0.452 -0.452
 0.168  0.938 -0.209 -0.367 -0.416 -0.451 -0.451
 0.170  0.941 -0.205 -0.365 -0.414 -0.451 -0.451
 0.172  0.944 -0.202 -0.363 -0.413 -0.450 -0.450
 0.174  0.946 -0.199 -0.361 -0.411 -0.449 -0.449
 0.176  0.949 -0.196 -0.359 -0.409 -0.448 -0.448
 0.178  0.951 -0.192 -0.357 -0.408 -0.448 -0.448
 0.180  0.954 -0.189 -0.356 -0.406 -0.447 -0.447
 0.182  0.957 -0.187 -0.353 -0.405 -0.446 -0.446
 0.184  0.960 -0.183 -0.351 -0.403 -0.446 -0.446
 0.186  0.962 -0.180 -0.350 -0.402 -0.445 -0.445
 0.188  0.965 -0.177 -0.348 -0.400 -0.444 -0.444
 0.190  0.967 -0.173 -0.346 -0.399 -0.444 -0.444
 0.192  0.971 -0.170 -0.344 -0.397 -0.443 -0.443
 0.194  0.973 -0.167 -0.343 -0.396 -0.442 -0.442
 0.196  0.976 -0.164 -0.340 -0.394 -0.441 -0.441
 0.198  0.979 -0.161 -0.339 -0.393 -0.441 -0.441
 0.200  0.981 -0.158 -0.337 -0.391 -0.440 -0.440
 0.202  0.985 -0.155 -0.335 -0.390 -0.439 -0.439
 0.204  0.987 -0.151 -0.334 -0.389 -0.439 -0.439
 0.206  0.990 -0.149 -0.332 -0.387 -0.438 -0.438
 0.208  0.993 -0.146 -0.331 -0.386 -0.437 -0.437
 0.210  0.996 -0.142 -0.329 -0.384 -0.436 -0.436
 0.212  0.999 -0.140 -0.327 -0.383 -0.436 -0.436
 0.214  1.002 -0.137 -0.326 -0.382 -0.435 -0.435
 0.216  1.005 -0.133 -0.324 -0.380 -0.434 -0.434
 0.218  1.008 -0.131 -0.323 -0.379 -0.434 -0.434
 0.220  1.010 -0.128 -0.321 -0.378 -0.433 -0.433
 0.222  1.014 -0.124 -0.320 -0.376 -0.432 -0.432
 0.224  1.017 -0.122 -0.318 -0.375 -0.432 -0.432
 0.226  1.019 -0.119 -0.317 -0.374 -0.431 -0.431
 0.228  1.023 -0.116 -0.315 -0.373 -0.430 -0.430
 0.230  1.026 -0.113 -0.314 -0.371 -0.429 -0.429
 0.232  1.029 -0.110 -0.312 -0.370 -0.429 -0.429
 0.234  1.032 -0.107 -0.311 -0.369 -0.428 -0.428
 0.236  1.035 -0.104 -0.309 -0.368 -0.427 -0.427
 0.238  1.038 -0.101 -0.308 -0.367 -0.427 -0.427
 0.240  1.041 -0.099 -0.306 -0.366 -0.426 -0.426
 0.242  1.044 -0.096 -0.305 -0.364 -0.425 -0.425
 0.244  1.046 -0.093 -0.304 -0.363 -0.424 -0.424
 0.246  1.050 -0.090 -0.302 -0.362 -0.424 -0.424
 0.248  1.052 -0.087 -0.300 -0.361 -0.423 -0.423
 0.250  1.055 -0.085 -0.299 -0.360 -0.422 -0.422
 0.252  1.058 -0.082 -0.297 -0.358 -0.422 -0.422
 0.254  1.060 -0.079 -0.296 -0.357 -0.421 -0.421
 0.256  1.063 -0.077 -0.294 -0.356 -0.420 -0.420
 0.258  1.066 -0.074 -0.293 -0.355 -0.419 -0.419
 0.260  1.068 -0.071 -0.291 -0.353 -0.419 -0.419
 0.262  1.071 -0.069 -0.289 -0.352 -0.418 -0.418
 0.264  1.073 -0.065 -0.288 -0.351 -0.417 -0.417
 0.266  1.076 -0.063 -0.286 -0.350 -0.417 -0.417
 0.268  1.078 -0.060 -0.285 -0.348 -0.416 -0.416
 0.270  1.081 -0.058 -0.283 -0.347 -0.415 -0.415
 0.272  1.084 -0.056 -0.282 -0.346 -0.414 -0.414
 0.274  1.086 -0.052 -0.280 -0.345 -0.414 -0.414
 0.276  1.089 -0.050 -0.279 -0.344 -0.413 -0.413
 0.278  1.091 -0.047 -0.277 -0.342 -0.412 -0.412
 0.280  1.093 -0.045 -0.275 -0.341 -0.412 -0.412
 0.282  1.096 -0.042 -0.274 -0.340 -0.411 -0.411
 0.284  1.098 -0.040 -0.272 -0.339 -0.410 -0.410
 0.286  1.100 -0.038 -0.270 -0.338 -0.409 -0.409
 0.288  1.102 -0.035 -0.269 -0.336 -0.409 -0.409
 0.290  1.105 -0.033 -0.267 -0.335 -0.408 -0.408
 0.292  1.107 -0.030 -0.266 -0.334 -0.407 -0.407
 0.294  1.109 -0.028 -0.264 -0.333 -0.407 -0.407
 0.296  1.111 -0.025 -0.263 -0.332 -0.406 -0.406
 0.298  1.113 -0.023 -0.261 -0.330 -0.405 -0.405
 0.300  1.115 -0.020 -0.260 -0.329 -0.405 -0.405
 0.302  1.117 -0.018 -0.258 -0.328 -0.404 -0.404
 0.304  1.119 -0.015 -0.256 -0.327 -0.403 -0.403
 0.306  1.121 -0.013 -0.255 -0.325 -0.402 -0.402
 0.308  1.123 -0.011 -0.253 -0.324 -0.402 -0.402
 0.310  1.125 -0.008 -0.251 -0.323 -0.401 -0.401
 0.312  1.127 -0.006 -0.250 -0.322 -0.400 -0.400
 0.314  1.129 -0.003 -0.248 -0.321 -0.399 -0.399
 0.316  1.131 -0.001 -0.247 -0.319 -0.399 -0.399
 0.318  1.133  0.001 -0.246 -0.318 -0.398 -0.398
 0.320  1.135  0.003 -0.244 -0.317 -0.397 -0.397
 0.322  1.137  0.006 -0.242 -0.316 -0.396 -0.396
 0.324  1.139  0.008 -0.241 -0.315 -0.396 -0.396
 0.326  1.141  0.011 -0.239 -0.313 -0.395 -0.395
 0.328  1.143  0.013 -0.237 -0.312 -0.394 -0.394
 0.330  1.145  0.015 -0.236 -0.311 -0.393 -0.393
 0.332  1.147  0.017 -0.235 -0.310 -0.393 -0.393
 0.334  1.149  0.020 -0.233 -0.308 -0.392 -0.392
 0.336  1.151  0.022 -0.231 -0.307 -0.391 -0.391
 0.338  1.153  0.024 -0.230 -0.306 -0.390 -0.390
 0.340  1.155  0.026 -0.229 -0.305 -0.390 -0.390
 0.342  1.157  0.029 -0.227 -0.304 -0.389 -0.389
 0.344  1.159  0.031 -0.225 -0.303 -0.388 -0.388
 0.346  1.161  0.033 -0.224 -0.302 -0.387 -0.387
 0.348  1.163  0.035 -0.222 -0.300 -0.387 -0.387
 0.350  1.165  0.038 -0.221 -0.299 -0.386 -0.386
 0.352  1.167  0.039 -0.220 -0.298 -0.385 -0.385
 0.354  1.169  0.042 -0.218 -0.297 -0.384 -0.384
 0.356  1.171  0.044 -0.216 -0.295 -0.384 -0.384
 0.358  1.173  0.046 -0.215 -0.294 -0.383 -0.383
 0.360  1.175  0.048 -0.214 -0.293 -0.382 -0.382
 0.362  1.177  0.051 -0.212 -0.292 -0.381 -0.381
 0.364  1.179  0.052 -0.210 -0.290 -0.381 -0.381
 0.366  1.181  0.055 -0.209 -0.289 -0.380 -0.380
 0.368  1.183  0.057 -0.208 -0.288 -0.379 -0.379
 0.370  1.185  0.059 -0.206 -0.287 -0.378 -0.378
 0.372  1.187  0.061 -0.205 -0.285 -0.378 -0.378
 0.374  1.189  0.063 -0.203 -0.284 -0.377 -0.377
 0.376  1.191  0.066 -0.202 -0.283 -0.376 -0.376
 0.378  1.193  0.067 -0.201 -0.281 -0.375 -0.375
 0.380  1.195  0.070 -0.199 -0.280 -0.374 -0.374
 0.382  1.197  0.071 -0.197 -0.279 -0.374 -0.374
 0.384  1.199  0.074 -0.196 -0.278 -0.373 -0.373
 0.386  1.201  0.075 -0.195 -0.277 -0.372 -0.372
 0.388  1.203  0.077 -0.193 -0.275 -0.371 -0.371
 0.390  1.205  0.079 -0.192 -0.274 -0.371 -0.371
 0.392  1.207  0.081 -0.190 -0.273 -0.370 -0.370
 0.394  1.208  0.084 -0.189 -0.272 -0.369 -0.369
 0.396  1.210  0.085 -0.188 -0.270 -0.369 -0.369
 0.398  1.212  0.087 -0.186 -0.269 -0.368 -0.368
 0.400  1.214  0.089 -0.185 -0.268 -0.367 -0.367
 0.402  1.216  0.091 -0.184 -0.267 -0.366 -0.366
 0.404  1.218  0.093 -0.182 -0.266 -0.366 -0.366
 0.406  1.220  0.094 -0.181 -0.264 -0.365 -0.365
 0.408  1.222  0.097 -0.179 -0.263 -0.364 -0.364
 0.410  1.224  0.098 -0.178 -0.262 -0.363 -0.363
 0.412  1.225  0.100 -0.177 -0.261 -0.362 -0.362
 0.414  1.227  0.102 -0.176 -0.260 -0.362 -0.362
 0.416  1.229  0.103 -0.174 -0.259 -0.361 -0.361
 0.418  1.231  0.106 -0.173 -0.257 -0.360 -0.360
 0.420  1.232  0.107 -0.171 -0.256 -0.359 -0.359
 0.422  1.234  0.109 -0.170 -0.255 -0.359 -0.359
 0.424  1.236  0.111 -0.169 -0.254 -0.358 -0.358
 0.426  1.238  0.112 -0.168 -0.253 -0.357 -0.357
 0.428  1.239  0.114 -0.166 -0.252 -0.357 -0.357
 0.430  1.241  0.115 -0.165 -0.251 -0.356 -0.356
 0.432  1.243  0.117 -0.164 -0.249 -0.355 -0.355
 0.434  1.244  0.119 -0.162 -0.248 -0.354 -0.354
 0.436  1.246  0.120 -0.161 -0.247 -0.354 -0.354
 0.438  1.247  0.122 -0.160 -0.246 -0.353 -0.353
 0.440  1.249  0.124 -0.158 -0.245 -0.352 -0.352
 0.442  1.251  0.125 -0.157 -0.244 -0.352 -0.352
 0.444  1.253  0.127 -0.156 -0.243 -0.351 -0.351
 0.446  1.254  0.129 -0.155 -0.242 -0.350 -0.350
 0.448  1.256  0.130 -0.154 -0.241 -0.349 -0.349
 0.450  1.257  0.132 -0.152 -0.240 -0.349 -0.349
 0.452  1.259  0.133 -0.151 -0.239 -0.348 -0.348
 0.454  1.260  0.134 -0.150 -0.238 -0.347 -0.347
 0.456  1.262  0.136 -0.149 -0.237 -0.347 -0.347
 0.458  1.263  0.138 -0.148 -0.236 -0.346 -0.346
 0.460  1.265  0.139 -0.147 -0.235 -0.345 -0.345
 0.462  1.266  0.141 -0.146 -0.234 -0.345 -0.345
 0.464  1.267  0.142 -0.145 -0.232 -0.344 -0.344
 0.466  1.269  0.143 -0.144 -0.231 -0.343 -0.343
 0.468  1.270  0.145 -0.143 -0.230 -0.343 -0.343
 0.470  1.271  0.146 -0.142 -0.229 -0.342 -0.342
 0.472  1.272  0.147 -0.141 -0.228 -0.342 -0.342
 0.474  1.274  0.149 -0.140 -0.227 -0.341 -0.341
 0.476  1.275  0.150 -0.139 -0.226 -0.340 -0.340
 0.478  1.276  0.151 -0.138 -0.225 -0.340 -0.340
 0.480  1.278  0.153 -0.137 -0.224 -0.339 -0.339
 0.482  1.278  0.154 -0.137 -0.223 -0.339 -0.339
 0.484  1.279  0.156 -0.136 -0.222 -0.338 -0.338
 0.486  1.281  0.156 -0.134 -0.221 -0.337 -0.337
 0.488  1.281  0.158 -0.134 -0.220 -0.337 -0.337
 0.490  1.283  0.159 -0.133 -0.219 -0.336 -0.336
 0.492  1.283  0.160 -0.132 -0.218 -0.336 -0.336
 0.494  1.284  0.161 -0.132 -0.217 -0.335 -0.335
 0.496  1.285  0.163 -0.131 -0.216 -0.335 -0.335
 0.498  1.286  0.164 -0.130 -0.215 -0.334 -0.334
 0.500  1.287  0.165 -0.129 -0.214 -0.334 -0.334
 0.502  1.288  0.166 -0.128 -0.213 -0.333 -0.333
 0.504  1.288  0.167 -0.128 -0.212 -0.333 -0.333
 0.506  1.289  0.169 -0.127 -0.211 -0.332 -0.332
 0.508  1.290  0.169 -0.126 -0.210 -0.332 -0.332
 0.510  1.290  0.170 -0.126 -0.209 -0.331 -0.331
 0.512  1.291  0.171 -0.125 -0.208 -0.331 -0.331
 0.514  1.292  0.173 -0.124 -0.207 -0.330 -0.330
 0.516  1.292  0.174 -0.124 -0.206 -0.330 -0.330
 0.518  1.293  0.174 -0.123 -0.205 -0.329 -0.329
 0.520  1.294  0.175 -0.123 -0.204 -0.328 -0.328
 0.522  1.294  0.176 -0.121 -0.203 -0.328 -0.328
 0.524  1.295  0.178 -0.121 -0.202 -0.328 -0.328
 0.526  1.296  0.179 -0.120 -0.201 -0.327 -0.327
 0.528  1.296  0.179 -0.119 -0.200 -0.326 -0.326
 0.530  1.296  0.180 -0.119 -0.200 -0.326 -0.326
 0.532  1.297  0.181 -0.118 -0.199 -0.325 -0.325
 0.534  1.297  0.182 -0.117 -0.198 -0.325 -0.325
 0.536  1.298  0.183 -0.117 -0.197 -0.324 -0.324
 0.538  1.299  0.183 -0.116 -0.197 -0.324 -0.324
 0.540  1.299  0.184 -0.115 -0.196 -0.323 -0.323
 0.542  1.299  0.184 -0.114 -0.195 -0.323 -0.323
 0.544  1.300  0.185 -0.114 -0.195 -0.322 -0.322
 0.546  1.301  0.186 -0.113 -0.194 -0.322 -0.322
 0.548  1.301  0.187 -0.112 -0.194 -0.321 -0.321
 0.550  1.302  0.188 -0.112 -0.193 -0.321 -0.321
 0.552  1.302  0.188 -0.111 -0.193 -0.320 -0.320
 0.554  1.303  0.188 -0.110 -0.192 -0.319 -0.319
 0.556  1.303  0.189 -0.110 -0.192 -0.319 -0.319
 0.558  1.304  0.190 -0.108 -0.191 -0.318 -0.318
 0.560  1.304  0.190 -0.108 -0.191 -0.318 -0.318
 0.562  1.305  0.191 -0.107 -0.191 -0.317 -0.317
 0.564  1.305  0.191 -0.106 -0.190 -0.317 -0.317
 0.566  1.306  0.192 -0.106 -0.190 -0.316 -0.316
 0.568  1.306  0.192 -0.105 -0.190 -0.316 -0.316
 0.570  1.306  0.192 -0.104 -0.189 -0.315 -0.315
 0.572  1.307  0.193 -0.104 -0.189 -0.314 -0.314
 0.574  1.308  0.193 -0.102 -0.189 -0.314 -0.314
 0.576  1.308  0.193 -0.102 -0.189 -0.313 -0.313
 0.578  1.308  0.194 -0.101 -0.189 -0.313 -0.313
 0.580  1.309  0.194 -0.100 -0.189 -0.312 -0.312
 0.582  1.309  0.195 -0.100 -0.189 -0.312 -0.312
 0.584  1.310  0.195 -0.099 -0.189 -0.311 -0.311
 0.586  1.310  0.195 -0.099 -0.189 -0.311 -0.311
 0.588  1.310  0.196 -0.098 -0.189 -0.310 -0.310
 0.590  1.311  0.196 -0.097 -0.189 -0.309 -0.309
 0.592  1.312  0.196 -0.097 -0.189 -0.309 -0.309
 0.594  1.312  0.197 -0.096 -0.189 -0.309 -0.309
 0.596  1.312  0.197 -0.095 -0.189 -0.308 -0.308
 0.598  1.313  0.197 -0.095 -0.188 -0.308 -0.308
 0.600  1.313  0.197 -0.095 -0.188 -0.307 -0.307
 0.602  1.314  0.197 -0.094 -0.188 -0.307 -0.307
 0.604  1.314  0.197 -0.094 -0.188 -0.306 -0.306
 0.606  1.314  0.198 -0.093 -0.188 -0.306 -0.306
 0.608  1.314  0.198 -0.093 -0.188 -0.305 -0.305
 0.610  1.315  0.198 -0.093 -0.188 -0.305 -0.305
 0.612  1.315  0.199 -0.092 -0.188 -0.304 -0.304
 0.614  1.315  0.199 -0.092 -0.188 -0.304 -0.304
 0.616  1.315  0.199 -0.092 -0.188 -0.304 -0.304
 0.618  1.316  0.200 -0.091 -0.188 -0.303 -0.303
 0.620  1.316  0.200 -0.091 -0.187 -0.303 -0.303
 0.622  1.316  0.200 -0.091 -0.187 -0.303 -0.303
 0.624  1.317  0.201 -0.091 -0.187 -0.302 -0.302
 0.626  1.317  0.201 -0.091 -0.187 -0.302 -0.302
 0.628  1.317  0.201 -0.090 -0.187 -0.301 -0.301
 0.630  1.317  0.201 -0.090 -0.186 -0.301 -0.301
 0.632  1.317  0.201 -0.090 -0.186 -0.301 -0.301
 0.634  1.317  0.201 -0.090 -0.186 -0.301 -0.301
 0.636  1.317  0.201 -0.090 -0.186 -0.300 -0.300
 0.638  1.318  0.201 -0.090 -0.185 -0.300 -0.300
 0.640  1.318  0.202 -0.090 -0.185 -0.300 -0.300
 0.642  1.318  0.202 -0.090 -0.185 -0.299 -0.299
 0.644  1.318  0.202 -0.090 -0.184 -0.299 -0.299
 0.646  1.319  0.202 -0.090 -0.184 -0.299 -0.299
 0.648  1.319  0.203 -0.090 -0.184 -0.299 -0.299
 0.650  1.319  0.203 -0.090 -0.183 -0.298 -0.298
 0.652  1.319  0.203 -0.090 -0.183 -0.298 -0.298
 0.654  1.319  0.203 -0.090 -0.183 -0.297 -0.297
 0.656  1.319  0.204 -0.089 -0.182 -0.297 -0.297
 0.658  1.319  0.204 -0.089 -0.182 -0.297 -0.297
 0.660  1.319  0.204 -0.089 -0.181 -0.297 -0.297
 0.662  1.319  0.204 -0.089 -0.181 -0.296 -0.296
 0.664  1.319  0.204 -0.089 -0.181 -0.296 -0.296
 0.666  1.319  0.205 -0.089 -0.180 -0.295 -0.295
 0.668  1.319  0.205 -0.089 -0.180 -0.295 -0.295
 0.670  1.319  0.205 -0.088 -0.180 -0.294 -0.294
 0.672  1.319  0.205 -0.088 -0.179 -0.294 -0.294
 0.674  1.320  0.205 -0.088 -0.179 -0.293 -0.293
 0.676  1.320  0.206 -0.087 -0.179 -0.293 -0.293
 0.678  1.321  0.206 -0.087 -0.179 -0.292 -0.292
 0.680  1.321  0.206 -0.087 -0.179 -0.292 -0.292
 0.682  1.321  0.206 -0.086 -0.179 -0.292 -0.292
 0.684  1.321  0.206 -0.086 -0.179 -0.291 -0.291
 0.686  1.322  0.206 -0.085 -0.178 -0.290 -0.290
 0.688  1.322  0.206 -0.085 -0.178 -0.290 -0.290
 0.690  1.323  0.206 -0.084 -0.178 -0.289 -0.289
 0.692  1.323  0.206 -0.084 -0.178 -0.289 -0.289
 0.694  1.323  0.206 -0.083 -0.178 -0.288 -0.288
 0.696  1.324  0.206 -0.082 -0.178 -0.287 -0.287
 0.698  1.324  0.206 -0.081 -0.178 -0.287 -0.287
 0.700  1.325  0.207 -0.081 -0.178 -0.286 -0.286
 0.702  1.325  0.207 -0.080 -0.178 -0.285 -0.285
 0.704  1.326  0.207 -0.079 -0.179 -0.285 -0.285
 0.706  1.326  0.207 -0.078 -0.179 -0.284 -0.284
 0.708  1.327  0.207 -0.078 -0.179 -0.283 -0.283
 0.710  1.328  0.207 -0.076 -0.179 -0.282 -0.282
 0.712  1.328  0.207 -0.075 -0.179 -0.282 -0.282
 0.714  1.330  0.207 -0.075 -0.180 -0.281 -0.281
 0.716  1.330  0.207 -0.074 -0.180 -0.280 -0.280
 0.718  1.331  0.207 -0.073 -0.180 -0.280 -0.280
 0.720  1.332  0.208 -0.072 -0.181 -0.279 -0.279
 0.722  1.333  0.208 -0.071 -0.181 -0.278 -0.278
 0.724  1.333  0.208 -0.069 -0.182 -0.277 -0.277
 0.726  1.334  0.208 -0.068 -0.182 -0.276 -0.276
 0.728  1.335  0.209 -0.067 -0.182 -0.275 -0.275
 0.730  1.336  0.209 -0.066 -0.183 -0.274 -0.274
 0.732  1.337  0.210 -0.065 -0.183 -0.273 -0.273
 0.734  1.338  0.210 -0.063 -0.183 -0.273 -0.273
 0.736  1.339  0.211 -0.062 -0.183 -0.271 -0.271
 0.738  1.339  0.213 -0.061 -0.183 -0.270 -0.270
 0.740  1.340  0.214 -0.059 -0.184 -0.269 -0.269
 0.742  1.341  0.215 -0.058 -0.183 -0.268 -0.268
 0.744  1.342  0.216 -0.056 -0.183 -0.267 -0.267
 0.746  1.342  0.218 -0.055 -0.183 -0.266 -0.266
 0.748  1.343  0.219 -0.053 -0.183 -0.265 -0.265
 0.750  1.344  0.221 -0.052 -0.182 -0.264 -0.264
 0.752  1.344  0.223 -0.050 -0.181 -0.263 -0.263
 0.754  1.345  0.225 -0.048 -0.181 -0.261 -0.261
 0.756  1.346  0.227 -0.047 -0.180 -0.260 -0.260
 0.758  1.346  0.229 -0.045 -0.178 -0.259 -0.259
 0.760  1.347  0.232 -0.043 -0.177 -0.258 -0.258
 0.762  1.348  0.233 -0.042 -0.176 -0.256 -0.256
 0.764  1.348  0.237 -0.040 -0.175 -0.255 -0.255
 0.766  1.348  0.239 -0.039 -0.173 -0.253 -0.253
 0.768  1.349  0.242 -0.036 -0.172 -0.252 -0.252
 0.770  1.349  0.245 -0.035 -0.170 -0.251 -0.251
 0.772  1.349  0.248 -0.033 -0.168 -0.249 -0.249
 0.774  1.349  0.251 -0.030 -0.166 -0.248 -0.248
 0.776  1.349  0.255 -0.028 -0.164 -0.246 -0.246
 0.778  1.350  0.259 -0.026 -0.162 -0.245 -0.245
 0.780  1.350  0.263 -0.024 -0.160 -0.243 -0.243
 0.782  1.350  0.266 -0.022 -0.157 -0.241 -0.241
 0.784  1.351  0.270 -0.020 -0.155 -0.240 -0.240
 0.786  1.351  0.274 -0.017 -0.152 -0.238 -0.238
 0.788  1.351  0.278 -0.015 -0.149 -0.237 -0.237
 0.790  1.351  0.282 -0.014 -0.147 -0.235 -0.235
 0.792  1.351  0.287 -0.011 -0.143 -0.234 -0.234
 0.794  1.351  0.291 -0.010 -0.140 -0.232 -0.232
 0.796  1.351  0.295 -0.008 -0.137 -0.231 -0.231
 0.798  1.351  0.298 -0.007 -0.134 -0.230 -0.230
 0.800  1.351  0.302 -0.005 -0.130 -0.229 -0.229
 0.802  1.351  0.305 -0.004 -0.127 -0.228 -0.228
 0.804  1.351  0.309 -0.003 -0.123 -0.227 -0.227
 0.806  1.350  0.311 -0.002 -0.120 -0.226 -0.226
 0.808  1.349  0.314 -0.001 -0.117 -0.225 -0.225
