# IsPeriodic    : True
# Period        : 0.716773 days
# Normalization : <g_mag>=0
# 
# Phase u_mag  g_mag  r_mag  i_mag  z_mag  y_mag
 0.000  0.738 -0.413 -0.375 -0.309 -0.322 -0.322
 0.002  0.738 -0.413 -0.375 -0.309 -0.322 -0.322
 0.004  0.738 -0.413 -0.375 -0.309 -0.321 -0.321
 0.006  0.739 -0.413 -0.375 -0.309 -0.321 -0.321
 0.008  0.739 -0.412 -0.375 -0.308 -0.320 -0.320
 0.010  0.740 -0.411 -0.374 -0.308 -0.319 -0.319
 0.012  0.742 -0.411 -0.374 -0.307 -0.318 -0.318
 0.014  0.743 -0.410 -0.373 -0.307 -0.316 -0.316
 0.016  0.744 -0.409 -0.373 -0.306 -0.315 -0.315
 0.018  0.746 -0.408 -0.372 -0.305 -0.313 -0.313
 0.020  0.748 -0.407 -0.372 -0.304 -0.311 -0.311
 0.022  0.750 -0.406 -0.371 -0.303 -0.309 -0.309
 0.024  0.752 -0.405 -0.370 -0.303 -0.308 -0.308
 0.026  0.754 -0.403 -0.369 -0.302 -0.306 -0.306
 0.028  0.756 -0.402 -0.368 -0.301 -0.305 -0.305
 0.030  0.758 -0.400 -0.367 -0.300 -0.303 -0.303
 0.032  0.760 -0.399 -0.366 -0.299 -0.301 -0.301
 0.034  0.762 -0.398 -0.365 -0.298 -0.300 -0.300
 0.036  0.765 -0.395 -0.364 -0.297 -0.298 -0.298
 0.038  0.767 -0.394 -0.363 -0.297 -0.297 -0.297
 0.040  0.769 -0.392 -0.361 -0.295 -0.295 -0.295
 0.042  0.771 -0.390 -0.360 -0.295 -0.294 -0.294
 0.044  0.774 -0.388 -0.358 -0.294 -0.293 -0.293
 0.046  0.776 -0.386 -0.357 -0.293 -0.291 -0.291
 0.048  0.779 -0.384 -0.355 -0.292 -0.290 -0.290
 0.050  0.782 -0.382 -0.354 -0.291 -0.288 -0.288
 0.052  0.785 -0.379 -0.352 -0.290 -0.287 -0.287
 0.054  0.787 -0.377 -0.350 -0.289 -0.285 -0.285
 0.056  0.791 -0.374 -0.348 -0.288 -0.284 -0.284
 0.058  0.794 -0.372 -0.346 -0.288 -0.282 -0.282
 0.060  0.796 -0.369 -0.344 -0.286 -0.281 -0.281
 0.062  0.800 -0.366 -0.342 -0.285 -0.279 -0.279
 0.064  0.803 -0.363 -0.340 -0.285 -0.278 -0.278
 0.066  0.807 -0.361 -0.338 -0.284 -0.276 -0.276
 0.068  0.810 -0.357 -0.335 -0.283 -0.275 -0.275
 0.070  0.813 -0.354 -0.333 -0.282 -0.273 -0.273
 0.072  0.817 -0.351 -0.331 -0.281 -0.272 -0.272
 0.074  0.821 -0.348 -0.328 -0.280 -0.270 -0.270
 0.076  0.824 -0.344 -0.326 -0.279 -0.269 -0.269
 0.078  0.828 -0.341 -0.324 -0.278 -0.268 -0.268
 0.080  0.832 -0.338 -0.321 -0.277 -0.266 -0.266
 0.082  0.836 -0.334 -0.319 -0.276 -0.265 -0.265
 0.084  0.839 -0.331 -0.316 -0.275 -0.264 -0.264
 0.086  0.843 -0.328 -0.314 -0.274 -0.262 -0.262
 0.088  0.847 -0.324 -0.312 -0.273 -0.261 -0.261
 0.090  0.850 -0.322 -0.310 -0.272 -0.260 -0.260
 0.092  0.854 -0.318 -0.308 -0.271 -0.259 -0.259
 0.094  0.858 -0.315 -0.305 -0.270 -0.257 -0.257
 0.096  0.861 -0.312 -0.303 -0.269 -0.256 -0.256
 0.098  0.865 -0.309 -0.301 -0.269 -0.255 -0.255
 0.100  0.868 -0.305 -0.299 -0.267 -0.253 -0.253
 0.102  0.872 -0.302 -0.297 -0.266 -0.252 -0.252
 0.104  0.875 -0.299 -0.296 -0.265 -0.251 -0.251
 0.106  0.878 -0.296 -0.294 -0.264 -0.249 -0.249
 0.108  0.881 -0.293 -0.292 -0.263 -0.248 -0.248
 0.110  0.885 -0.290 -0.290 -0.262 -0.247 -0.247
 0.112  0.888 -0.287 -0.289 -0.261 -0.246 -0.246
 0.114  0.891 -0.284 -0.287 -0.260 -0.244 -0.244
 0.116  0.894 -0.280 -0.285 -0.258 -0.243 -0.243
 0.118  0.897 -0.277 -0.283 -0.257 -0.242 -0.242
 0.120  0.900 -0.275 -0.282 -0.256 -0.241 -0.241
 0.122  0.903 -0.272 -0.280 -0.255 -0.240 -0.240
 0.124  0.906 -0.269 -0.279 -0.253 -0.239 -0.239
 0.126  0.909 -0.265 -0.277 -0.252 -0.238 -0.238
 0.128  0.912 -0.262 -0.276 -0.251 -0.237 -0.237
 0.130  0.914 -0.260 -0.274 -0.250 -0.236 -0.236
 0.132  0.917 -0.257 -0.273 -0.248 -0.235 -0.235
 0.134  0.920 -0.254 -0.271 -0.247 -0.234 -0.234
 0.136  0.922 -0.251 -0.270 -0.246 -0.233 -0.233
 0.138  0.925 -0.248 -0.269 -0.244 -0.232 -0.232
 0.140  0.928 -0.245 -0.268 -0.243 -0.231 -0.231
 0.142  0.930 -0.243 -0.266 -0.242 -0.230 -0.230
 0.144  0.932 -0.240 -0.265 -0.241 -0.229 -0.229
 0.146  0.935 -0.237 -0.264 -0.239 -0.228 -0.228
 0.148  0.937 -0.235 -0.263 -0.238 -0.227 -0.227
 0.150  0.939 -0.232 -0.262 -0.236 -0.226 -0.226
 0.152  0.942 -0.229 -0.260 -0.235 -0.225 -0.225
 0.154  0.944 -0.226 -0.259 -0.233 -0.224 -0.224
 0.156  0.946 -0.223 -0.258 -0.232 -0.223 -0.223
 0.158  0.948 -0.221 -0.257 -0.230 -0.222 -0.222
 0.160  0.951 -0.218 -0.255 -0.229 -0.221 -0.221
 0.162  0.953 -0.215 -0.254 -0.227 -0.220 -0.220
 0.164  0.955 -0.212 -0.253 -0.226 -0.219 -0.219
 0.166  0.957 -0.209 -0.251 -0.224 -0.219 -0.219
 0.168  0.959 -0.206 -0.250 -0.223 -0.218 -0.218
 0.170  0.962 -0.203 -0.248 -0.221 -0.217 -0.217
 0.172  0.964 -0.200 -0.247 -0.220 -0.216 -0.216
 0.174  0.966 -0.197 -0.245 -0.219 -0.215 -0.215
 0.176  0.968 -0.194 -0.244 -0.218 -0.214 -0.214
 0.178  0.971 -0.191 -0.242 -0.216 -0.213 -0.213
 0.180  0.973 -0.189 -0.241 -0.215 -0.212 -0.212
 0.182  0.975 -0.185 -0.239 -0.213 -0.211 -0.211
 0.184  0.978 -0.182 -0.238 -0.212 -0.210 -0.210
 0.186  0.980 -0.179 -0.236 -0.211 -0.209 -0.209
 0.188  0.982 -0.176 -0.235 -0.210 -0.208 -0.208
 0.190  0.984 -0.173 -0.233 -0.208 -0.207 -0.207
 0.192  0.987 -0.170 -0.231 -0.207 -0.206 -0.206
 0.194  0.989 -0.167 -0.229 -0.206 -0.206 -0.206
 0.196  0.991 -0.164 -0.228 -0.205 -0.204 -0.204
 0.198  0.994 -0.161 -0.226 -0.203 -0.203 -0.203
 0.200  0.996 -0.157 -0.224 -0.202 -0.203 -0.203
 0.202  0.998 -0.154 -0.222 -0.201 -0.201 -0.201
 0.204  1.001 -0.152 -0.221 -0.200 -0.201 -0.201
 0.206  1.003 -0.148 -0.219 -0.199 -0.200 -0.200
 0.208  1.005 -0.145 -0.217 -0.198 -0.198 -0.198
 0.210  1.008 -0.142 -0.215 -0.197 -0.198 -0.198
 0.212  1.010 -0.139 -0.213 -0.196 -0.197 -0.197
 0.214  1.013 -0.135 -0.211 -0.195 -0.196 -0.196
 0.216  1.015 -0.132 -0.209 -0.194 -0.194 -0.194
 0.218  1.018 -0.129 -0.207 -0.193 -0.194 -0.194
 0.220  1.020 -0.125 -0.205 -0.192 -0.193 -0.193
 0.222  1.022 -0.122 -0.203 -0.191 -0.191 -0.191
 0.224  1.025 -0.119 -0.202 -0.190 -0.191 -0.191
 0.226  1.027 -0.116 -0.200 -0.189 -0.190 -0.190
 0.228  1.029 -0.112 -0.198 -0.188 -0.188 -0.188
 0.230  1.032 -0.109 -0.196 -0.187 -0.188 -0.188
 0.232  1.034 -0.106 -0.194 -0.187 -0.187 -0.187
 0.234  1.036 -0.103 -0.192 -0.186 -0.186 -0.186
 0.236  1.039 -0.100 -0.190 -0.185 -0.184 -0.184
 0.238  1.042 -0.096 -0.188 -0.184 -0.184 -0.184
 0.240  1.043 -0.093 -0.186 -0.183 -0.183 -0.183
 0.242  1.046 -0.090 -0.184 -0.182 -0.182 -0.182
 0.244  1.048 -0.087 -0.182 -0.181 -0.181 -0.181
 0.246  1.051 -0.083 -0.180 -0.180 -0.180 -0.180
 0.248  1.052 -0.080 -0.178 -0.179 -0.179 -0.179
 0.250  1.055 -0.077 -0.176 -0.178 -0.178 -0.178
 0.252  1.057 -0.074 -0.174 -0.177 -0.177 -0.177
 0.254  1.060 -0.071 -0.172 -0.176 -0.176 -0.176
 0.256  1.061 -0.068 -0.170 -0.175 -0.175 -0.175
 0.258  1.064 -0.064 -0.168 -0.174 -0.174 -0.174
 0.260  1.066 -0.061 -0.166 -0.173 -0.173 -0.173
 0.262  1.069 -0.058 -0.164 -0.172 -0.172 -0.172
 0.264  1.070 -0.055 -0.162 -0.171 -0.171 -0.171
 0.266  1.072 -0.051 -0.160 -0.170 -0.170 -0.170
 0.268  1.075 -0.048 -0.158 -0.169 -0.170 -0.170
 0.270  1.077 -0.045 -0.156 -0.168 -0.169 -0.169
 0.272  1.079 -0.042 -0.154 -0.166 -0.168 -0.168
 0.274  1.081 -0.039 -0.152 -0.165 -0.167 -0.167
 0.276  1.083 -0.036 -0.150 -0.164 -0.166 -0.166
 0.278  1.085 -0.033 -0.148 -0.163 -0.165 -0.165
 0.280  1.087 -0.029 -0.146 -0.161 -0.164 -0.164
 0.282  1.089 -0.026 -0.144 -0.160 -0.164 -0.164
 0.284  1.092 -0.023 -0.142 -0.159 -0.163 -0.163
 0.286  1.094 -0.020 -0.140 -0.158 -0.162 -0.162
 0.288  1.096 -0.017 -0.138 -0.156 -0.161 -0.161
 0.290  1.097 -0.014 -0.136 -0.155 -0.160 -0.160
 0.292  1.099 -0.011 -0.134 -0.154 -0.160 -0.160
 0.294  1.101 -0.008 -0.132 -0.152 -0.158 -0.158
 0.296  1.103 -0.005 -0.130 -0.151 -0.158 -0.158
 0.298  1.105 -0.002 -0.129 -0.150 -0.157 -0.157
 0.300  1.107  0.001 -0.127 -0.149 -0.156 -0.156
 0.302  1.109  0.004 -0.125 -0.147 -0.155 -0.155
 0.304  1.111  0.007 -0.123 -0.146 -0.155 -0.155
 0.306  1.113  0.010 -0.121 -0.144 -0.154 -0.154
 0.308  1.115  0.013 -0.119 -0.143 -0.153 -0.153
 0.310  1.117  0.016 -0.117 -0.141 -0.152 -0.152
 0.312  1.119  0.018 -0.115 -0.140 -0.151 -0.151
 0.314  1.121  0.020 -0.114 -0.138 -0.151 -0.151
 0.316  1.123  0.023 -0.112 -0.137 -0.150 -0.150
 0.318  1.124  0.026 -0.110 -0.136 -0.149 -0.149
 0.320  1.126  0.028 -0.108 -0.135 -0.148 -0.148
 0.322  1.128  0.031 -0.107 -0.133 -0.147 -0.147
 0.324  1.130  0.033 -0.105 -0.132 -0.147 -0.147
 0.326  1.132  0.036 -0.103 -0.131 -0.145 -0.145
 0.328  1.134  0.038 -0.101 -0.129 -0.145 -0.145
 0.330  1.135  0.041 -0.100 -0.128 -0.144 -0.144
 0.332  1.137  0.043 -0.098 -0.126 -0.143 -0.143
 0.334  1.139  0.045 -0.096 -0.125 -0.142 -0.142
 0.336  1.141  0.048 -0.095 -0.124 -0.141 -0.141
 0.338  1.142  0.050 -0.093 -0.122 -0.141 -0.141
 0.340  1.144  0.052 -0.092 -0.121 -0.140 -0.140
 0.342  1.146  0.055 -0.090 -0.120 -0.139 -0.139
 0.344  1.147  0.057 -0.088 -0.119 -0.138 -0.138
 0.346  1.149  0.059 -0.087 -0.117 -0.137 -0.137
 0.348  1.151  0.061 -0.085 -0.116 -0.136 -0.136
 0.350  1.152  0.063 -0.084 -0.115 -0.135 -0.135
 0.352  1.154  0.065 -0.082 -0.113 -0.135 -0.135
 0.354  1.155  0.067 -0.081 -0.112 -0.134 -0.134
 0.356  1.157  0.069 -0.079 -0.111 -0.133 -0.133
 0.358  1.159  0.071 -0.078 -0.110 -0.132 -0.132
 0.360  1.161  0.072 -0.077 -0.108 -0.131 -0.131
 0.362  1.162  0.075 -0.076 -0.107 -0.130 -0.130
 0.364  1.164  0.077 -0.074 -0.106 -0.129 -0.129
 0.366  1.165  0.078 -0.073 -0.105 -0.128 -0.128
 0.368  1.167  0.080 -0.071 -0.104 -0.128 -0.128
 0.370  1.168  0.082 -0.070 -0.102 -0.127 -0.127
 0.372  1.170  0.084 -0.068 -0.101 -0.126 -0.126
 0.374  1.171  0.086 -0.067 -0.100 -0.125 -0.125
 0.376  1.173  0.088 -0.065 -0.099 -0.124 -0.124
 0.378  1.175  0.090 -0.064 -0.098 -0.123 -0.123
 0.380  1.177  0.092 -0.062 -0.096 -0.122 -0.122
 0.382  1.178  0.094 -0.061 -0.095 -0.121 -0.121
 0.384  1.180  0.096 -0.059 -0.094 -0.121 -0.121
 0.386  1.181  0.098 -0.058 -0.093 -0.119 -0.119
 0.388  1.183  0.100 -0.056 -0.091 -0.119 -0.119
 0.390  1.184  0.102 -0.055 -0.090 -0.118 -0.118
 0.392  1.186  0.104 -0.053 -0.089 -0.117 -0.117
 0.394  1.188  0.106 -0.052 -0.088 -0.116 -0.116
 0.396  1.189  0.108 -0.050 -0.087 -0.115 -0.115
 0.398  1.191  0.110 -0.049 -0.086 -0.114 -0.114
 0.400  1.193  0.112 -0.047 -0.085 -0.114 -0.114
 0.402  1.195  0.114 -0.045 -0.083 -0.113 -0.113
 0.404  1.196  0.116 -0.044 -0.082 -0.112 -0.112
 0.406  1.198  0.119 -0.042 -0.081 -0.111 -0.111
 0.408  1.199  0.121 -0.041 -0.080 -0.110 -0.110
 0.410  1.201  0.123 -0.039 -0.079 -0.109 -0.109
 0.412  1.203  0.125 -0.037 -0.078 -0.108 -0.108
 0.414  1.204  0.127 -0.036 -0.077 -0.108 -0.108
 0.416  1.206  0.130 -0.034 -0.076 -0.107 -0.107
 0.418  1.208  0.132 -0.033 -0.075 -0.106 -0.106
 0.420  1.209  0.134 -0.031 -0.073 -0.105 -0.105
 0.422  1.211  0.136 -0.029 -0.072 -0.104 -0.104
 0.424  1.213  0.139 -0.028 -0.072 -0.103 -0.103
 0.426  1.215  0.141 -0.026 -0.071 -0.102 -0.102
 0.428  1.216  0.144 -0.024 -0.069 -0.102 -0.102
 0.430  1.218  0.146 -0.023 -0.068 -0.101 -0.101
 0.432  1.220  0.148 -0.021 -0.067 -0.100 -0.100
 0.434  1.222  0.151 -0.020 -0.066 -0.099 -0.099
 0.436  1.224  0.153 -0.018 -0.065 -0.098 -0.098
 0.438  1.226  0.155 -0.016 -0.064 -0.097 -0.097
 0.440  1.227  0.157 -0.015 -0.063 -0.096 -0.096
 0.442  1.229  0.159 -0.013 -0.062 -0.096 -0.096
 0.444  1.231  0.161 -0.012 -0.061 -0.095 -0.095
 0.446  1.232  0.163 -0.010 -0.060 -0.094 -0.094
 0.448  1.234  0.166 -0.009 -0.059 -0.093 -0.093
 0.450  1.236  0.168 -0.008 -0.058 -0.092 -0.092
 0.452  1.237  0.170 -0.006 -0.057 -0.092 -0.092
 0.454  1.238  0.172 -0.005 -0.056 -0.091 -0.091
 0.456  1.240  0.174 -0.004 -0.055 -0.090 -0.090
 0.458  1.242  0.176 -0.002 -0.054 -0.089 -0.089
 0.460  1.243  0.178 -0.001 -0.053 -0.088 -0.088
 0.462  1.245  0.180  0.000 -0.052 -0.088 -0.088
 0.464  1.246  0.181  0.001 -0.051 -0.087 -0.087
 0.466  1.247  0.183  0.002 -0.050 -0.086 -0.086
 0.468  1.249  0.185  0.003 -0.049 -0.085 -0.085
 0.470  1.250  0.186  0.005 -0.048 -0.085 -0.085
 0.472  1.251  0.188  0.006 -0.047 -0.084 -0.084
 0.474  1.253  0.190  0.007 -0.046 -0.083 -0.083
 0.476  1.254  0.191  0.008 -0.045 -0.082 -0.082
 0.478  1.255  0.193  0.009 -0.044 -0.082 -0.082
 0.480  1.256  0.195  0.010 -0.043 -0.081 -0.081
 0.482  1.258  0.196  0.010 -0.043 -0.080 -0.080
 0.484  1.258  0.198  0.011 -0.041 -0.079 -0.079
 0.486  1.260  0.199  0.012 -0.040 -0.079 -0.079
 0.488  1.261  0.200  0.013 -0.040 -0.078 -0.078
 0.490  1.262  0.202  0.014 -0.039 -0.077 -0.077
 0.492  1.263  0.203  0.014 -0.037 -0.076 -0.076
 0.494  1.263  0.204  0.015 -0.036 -0.076 -0.076
 0.496  1.265  0.205  0.016 -0.036 -0.075 -0.075
 0.498  1.265  0.207  0.017 -0.035 -0.074 -0.074
 0.500  1.267  0.208  0.017 -0.034 -0.073 -0.073
 0.502  1.267  0.209  0.018 -0.033 -0.073 -0.073
 0.504  1.268  0.210  0.018 -0.032 -0.072 -0.072
 0.506  1.269  0.211  0.019 -0.031 -0.071 -0.071
 0.508  1.270  0.212  0.020 -0.030 -0.071 -0.071
 0.510  1.271  0.213  0.020 -0.029 -0.070 -0.070
 0.512  1.271  0.215  0.021 -0.028 -0.069 -0.069
 0.514  1.272  0.215  0.021 -0.027 -0.069 -0.069
 0.516  1.272  0.217  0.022 -0.026 -0.068 -0.068
 0.518  1.273  0.217  0.023 -0.025 -0.067 -0.067
 0.520  1.274  0.219  0.023 -0.024 -0.066 -0.066
 0.522  1.274  0.220  0.024 -0.023 -0.066 -0.066
 0.524  1.275  0.220  0.025 -0.022 -0.065 -0.065
 0.526  1.276  0.222  0.025 -0.021 -0.065 -0.065
 0.528  1.276  0.222  0.026 -0.021 -0.064 -0.064
 0.530  1.277  0.224  0.027 -0.020 -0.063 -0.063
 0.532  1.278  0.225  0.027 -0.019 -0.063 -0.063
 0.534  1.278  0.225  0.028 -0.018 -0.062 -0.062
 0.536  1.279  0.227  0.029 -0.017 -0.062 -0.062
 0.538  1.280  0.227  0.029 -0.016 -0.061 -0.061
 0.540  1.280  0.228  0.030 -0.015 -0.061 -0.061
 0.542  1.280  0.230  0.030 -0.015 -0.060 -0.060
 0.544  1.281  0.230  0.031 -0.013 -0.059 -0.059
 0.546  1.281  0.231  0.032 -0.013 -0.059 -0.059
 0.548  1.281  0.232  0.032 -0.012 -0.058 -0.058
 0.550  1.282  0.233  0.033 -0.011 -0.058 -0.058
 0.552  1.283  0.234  0.034 -0.010 -0.057 -0.057
 0.554  1.283  0.235  0.035 -0.009 -0.056 -0.056
 0.556  1.283  0.235  0.035 -0.009 -0.056 -0.056
 0.558  1.284  0.236  0.036 -0.008 -0.055 -0.055
 0.560  1.284  0.237  0.037 -0.007 -0.055 -0.055
 0.562  1.285  0.238  0.038 -0.007 -0.055 -0.055
 0.564  1.285  0.239  0.039 -0.006 -0.054 -0.054
 0.566  1.285  0.239  0.039 -0.005 -0.053 -0.053
 0.568  1.286  0.240  0.040 -0.004 -0.053 -0.053
 0.570  1.286  0.241  0.041 -0.003 -0.052 -0.052
 0.572  1.287  0.242  0.042 -0.003 -0.052 -0.052
 0.574  1.287  0.242  0.042 -0.002 -0.052 -0.052
 0.576  1.287  0.243  0.043 -0.002 -0.051 -0.051
 0.578  1.287  0.244  0.044 -0.001 -0.051 -0.051
 0.580  1.287  0.244  0.045 -0.000 -0.050 -0.050
 0.582  1.288  0.245  0.046  0.001 -0.050 -0.050
 0.584  1.288  0.246  0.046  0.001 -0.049 -0.049
 0.586  1.289  0.247  0.047  0.002 -0.049 -0.049
 0.588  1.289  0.247  0.048  0.003 -0.049 -0.049
 0.590  1.289  0.248  0.049  0.003 -0.048 -0.048
 0.592  1.289  0.249  0.050  0.004 -0.048 -0.048
 0.594  1.289  0.249  0.050  0.005 -0.048 -0.048
 0.596  1.290  0.249  0.051  0.005 -0.047 -0.047
 0.598  1.290  0.250  0.052  0.006 -0.046 -0.046
 0.600  1.290  0.251  0.053  0.006 -0.046 -0.046
 0.602  1.290  0.252  0.054  0.007 -0.046 -0.046
 0.604  1.290  0.252  0.054  0.007 -0.045 -0.045
 0.606  1.291  0.252  0.055  0.008 -0.045 -0.045
 0.608  1.291  0.252  0.056  0.008 -0.045 -0.045
 0.610  1.291  0.253  0.057  0.009 -0.044 -0.044
 0.612  1.292  0.253  0.057  0.010 -0.044 -0.044
 0.614  1.292  0.254  0.058  0.010 -0.043 -0.043
 0.616  1.292  0.254  0.059  0.011 -0.043 -0.043
 0.618  1.292  0.254  0.060  0.011 -0.043 -0.043
 0.620  1.293  0.254  0.061  0.012 -0.042 -0.042
 0.622  1.293  0.255  0.061  0.012 -0.042 -0.042
 0.624  1.294  0.255  0.062  0.013 -0.042 -0.042
 0.626  1.294  0.255  0.063  0.014 -0.041 -0.041
 0.628  1.294  0.256  0.064  0.014 -0.041 -0.041
 0.630  1.294  0.256  0.065  0.015 -0.040 -0.040
 0.632  1.294  0.256  0.065  0.015 -0.040 -0.040
 0.634  1.295  0.256  0.066  0.016 -0.040 -0.040
 0.636  1.295  0.256  0.067  0.016 -0.039 -0.039
 0.638  1.296  0.256  0.067  0.017 -0.039 -0.039
 0.640  1.296  0.257  0.068  0.017 -0.039 -0.039
 0.642  1.296  0.257  0.069  0.017 -0.038 -0.038
 0.644  1.296  0.257  0.070  0.018 -0.038 -0.038
 0.646  1.297  0.257  0.071  0.019 -0.038 -0.038
 0.648  1.297  0.257  0.071  0.019 -0.038 -0.038
 0.650  1.297  0.257  0.072  0.019 -0.037 -0.037
 0.652  1.298  0.257  0.073  0.020 -0.037 -0.037
 0.654  1.298  0.257  0.074  0.020 -0.036 -0.036
 0.656  1.298  0.257  0.075  0.021 -0.036 -0.036
 0.658  1.298  0.257  0.076  0.021 -0.036 -0.036
 0.660  1.299  0.257  0.077  0.021 -0.035 -0.035
 0.662  1.299  0.258  0.078  0.022 -0.035 -0.035
 0.664  1.299  0.258  0.079  0.023 -0.035 -0.035
 0.666  1.300  0.259  0.080  0.023 -0.035 -0.035
 0.668  1.300  0.259  0.081  0.023 -0.034 -0.034
 0.670  1.301  0.259  0.082  0.024 -0.034 -0.034
 0.672  1.301  0.260  0.083  0.024 -0.033 -0.033
 0.674  1.301  0.261  0.084  0.025 -0.033 -0.033
 0.676  1.302  0.262  0.085  0.025 -0.033 -0.033
 0.678  1.302  0.262  0.086  0.026 -0.033 -0.033
 0.680  1.303  0.263  0.087  0.026 -0.033 -0.033
 0.682  1.303  0.264  0.089  0.027 -0.032 -0.032
 0.684  1.303  0.265  0.090  0.028 -0.032 -0.032
 0.686  1.304  0.266  0.091  0.028 -0.032 -0.032
 0.688  1.305  0.267  0.092  0.029 -0.032 -0.032
 0.690  1.305  0.268  0.094  0.030 -0.031 -0.031
 0.692  1.305  0.269  0.095  0.030 -0.031 -0.031
 0.694  1.306  0.270  0.096  0.031 -0.031 -0.031
 0.696  1.306  0.271  0.098  0.031 -0.031 -0.031
 0.698  1.307  0.272  0.099  0.032 -0.030 -0.030
 0.700  1.307  0.274  0.101  0.033 -0.030 -0.030
 0.702  1.308  0.275  0.102  0.034 -0.030 -0.030
 0.704  1.308  0.276  0.104  0.034 -0.030 -0.030
 0.706  1.308  0.278  0.105  0.035 -0.030 -0.030
 0.708  1.309  0.279  0.107  0.036 -0.029 -0.029
 0.710  1.310  0.281  0.109  0.037 -0.029 -0.029
 0.712  1.310  0.283  0.110  0.038 -0.029 -0.029
 0.714  1.311  0.284  0.112  0.039 -0.029 -0.029
 0.716  1.311  0.286  0.113  0.039 -0.029 -0.029
 0.718  1.312  0.288  0.115  0.040 -0.029 -0.029
 0.720  1.312  0.289  0.116  0.041 -0.029 -0.029
 0.722  1.313  0.291  0.117  0.042 -0.029 -0.029
 0.724  1.314  0.292  0.119  0.043 -0.029 -0.029
 0.726  1.314  0.294  0.120  0.044 -0.028 -0.028
 0.728  1.315  0.294  0.121  0.045 -0.028 -0.028
 0.730  1.316  0.296  0.121  0.046 -0.028 -0.028
 0.732  1.317  0.296  0.122  0.047 -0.027 -0.027
 0.734  1.317  0.297  0.122  0.047 -0.027 -0.027
 0.736  1.318  0.297  0.123  0.048 -0.026 -0.026
 0.738  1.319  0.298  0.123  0.049 -0.026 -0.026
 0.740  1.320  0.298  0.123  0.049 -0.025 -0.025
 0.742  1.321  0.298  0.122  0.049 -0.025 -0.025
 0.744  1.323  0.298  0.122  0.050 -0.024 -0.024
 0.746  1.324  0.297  0.121  0.050 -0.023 -0.023
 0.748  1.325  0.296  0.121  0.050 -0.022 -0.022
 0.750  1.327  0.296  0.120  0.050 -0.021 -0.021
 0.752  1.328  0.295  0.119  0.050 -0.020 -0.020
 0.754  1.329  0.294  0.118  0.049 -0.019 -0.019
 0.756  1.330  0.293  0.116  0.049 -0.018 -0.018
 0.758  1.332  0.291  0.115  0.048 -0.016 -0.016
 0.760  1.334  0.290  0.113  0.048 -0.015 -0.015
 0.762  1.335  0.289  0.111  0.047 -0.014 -0.014
 0.764  1.337  0.287  0.110  0.046 -0.012 -0.012
 0.766  1.339  0.285  0.107  0.045 -0.010 -0.010
 0.768  1.340  0.283  0.105  0.044 -0.009 -0.009
 0.770  1.342  0.281  0.103  0.042 -0.007 -0.007
 0.772  1.344  0.279  0.100  0.041 -0.005 -0.005
 0.774  1.346  0.276  0.098  0.039 -0.003 -0.003
 0.776  1.348  0.274  0.095  0.038 -0.001 -0.001
 0.778  1.350  0.271  0.092  0.036  0.001  0.001
 0.780  1.353  0.268  0.089  0.034  0.003  0.003
 0.782  1.355  0.264  0.085  0.032  0.006  0.006
 0.784  1.357  0.262  0.082  0.030  0.008  0.008
 0.786  1.360  0.258  0.078  0.028  0.010  0.010
 0.788  1.362  0.254  0.074  0.025  0.013  0.013
 0.790  1.364  0.250  0.070  0.023  0.016  0.016
 0.792  1.367  0.247  0.066  0.020  0.018  0.018
 0.794  1.369  0.242  0.062  0.017  0.021  0.021
 0.796  1.372  0.238  0.058  0.015  0.023  0.023
 0.798  1.373  0.233  0.054  0.012  0.026  0.026
 0.800  1.375  0.228  0.049  0.008  0.029  0.029
 0.802  1.377  0.223  0.044  0.005  0.031  0.031
 0.804  1.379  0.218  0.040  0.002  0.034  0.034
 0.806  1.380  0.213  0.035 -0.001  0.036  0.036
 0.808  1.381  0.208  0.030 -0.004  0.039  0.039
