# IsPeriodic    : True
# Period        : 0.600623 days
# Normalization : <g_mag>=0
# 
# Phase u_mag  g_mag  r_mag  i_mag  z_mag  y_mag
 0.000  0.704 -0.516 -0.546 -0.509 -0.521 -0.521
 0.002  0.705 -0.516 -0.546 -0.509 -0.521 -0.521
 0.004  0.705 -0.515 -0.546 -0.508 -0.521 -0.521
 0.006  0.706 -0.515 -0.545 -0.508 -0.520 -0.520
 0.008  0.706 -0.513 -0.545 -0.507 -0.519 -0.519
 0.010  0.707 -0.510 -0.544 -0.507 -0.518 -0.518
 0.012  0.709 -0.508 -0.544 -0.506 -0.517 -0.517
 0.014  0.709 -0.505 -0.543 -0.505 -0.516 -0.516
 0.016  0.711 -0.501 -0.542 -0.504 -0.514 -0.514
 0.018  0.712 -0.498 -0.541 -0.504 -0.513 -0.513
 0.020  0.714 -0.494 -0.540 -0.503 -0.511 -0.511
 0.022  0.716 -0.491 -0.539 -0.502 -0.509 -0.509
 0.024  0.718 -0.487 -0.537 -0.500 -0.507 -0.507
 0.026  0.719 -0.482 -0.536 -0.500 -0.505 -0.505
 0.028  0.722 -0.478 -0.534 -0.498 -0.504 -0.504
 0.030  0.723 -0.474 -0.533 -0.497 -0.502 -0.502
 0.032  0.725 -0.470 -0.531 -0.496 -0.501 -0.501
 0.034  0.728 -0.466 -0.530 -0.495 -0.499 -0.499
 0.036  0.729 -0.461 -0.528 -0.494 -0.497 -0.497
 0.038  0.732 -0.457 -0.526 -0.493 -0.495 -0.495
 0.040  0.734 -0.452 -0.525 -0.492 -0.494 -0.494
 0.042  0.736 -0.448 -0.523 -0.491 -0.492 -0.492
 0.044  0.738 -0.444 -0.521 -0.490 -0.491 -0.491
 0.046  0.741 -0.440 -0.519 -0.488 -0.489 -0.489
 0.048  0.744 -0.436 -0.517 -0.487 -0.488 -0.488
 0.050  0.746 -0.431 -0.515 -0.486 -0.486 -0.486
 0.052  0.749 -0.427 -0.513 -0.485 -0.485 -0.485
 0.054  0.752 -0.423 -0.511 -0.483 -0.483 -0.483
 0.056  0.755 -0.419 -0.508 -0.482 -0.481 -0.481
 0.058  0.758 -0.414 -0.506 -0.481 -0.480 -0.480
 0.060  0.761 -0.410 -0.503 -0.480 -0.478 -0.478
 0.062  0.764 -0.406 -0.501 -0.479 -0.477 -0.477
 0.064  0.767 -0.402 -0.498 -0.477 -0.475 -0.475
 0.066  0.771 -0.397 -0.496 -0.476 -0.473 -0.473
 0.068  0.774 -0.393 -0.493 -0.474 -0.472 -0.472
 0.070  0.778 -0.389 -0.490 -0.473 -0.471 -0.471
 0.072  0.782 -0.384 -0.487 -0.472 -0.469 -0.469
 0.074  0.785 -0.380 -0.484 -0.470 -0.467 -0.467
 0.076  0.789 -0.375 -0.481 -0.469 -0.466 -0.466
 0.078  0.793 -0.371 -0.478 -0.467 -0.465 -0.465
 0.080  0.796 -0.367 -0.476 -0.466 -0.463 -0.463
 0.082  0.800 -0.362 -0.473 -0.465 -0.462 -0.462
 0.084  0.804 -0.358 -0.470 -0.463 -0.460 -0.460
 0.086  0.807 -0.353 -0.467 -0.462 -0.459 -0.459
 0.088  0.811 -0.349 -0.464 -0.460 -0.457 -0.457
 0.090  0.815 -0.344 -0.461 -0.459 -0.456 -0.456
 0.092  0.819 -0.340 -0.458 -0.457 -0.454 -0.454
 0.094  0.822 -0.336 -0.455 -0.456 -0.453 -0.453
 0.096  0.826 -0.331 -0.452 -0.455 -0.452 -0.452
 0.098  0.830 -0.327 -0.450 -0.453 -0.450 -0.450
 0.100  0.834 -0.322 -0.447 -0.452 -0.449 -0.449
 0.102  0.837 -0.318 -0.444 -0.450 -0.447 -0.447
 0.104  0.841 -0.313 -0.441 -0.449 -0.446 -0.446
 0.106  0.845 -0.309 -0.438 -0.447 -0.444 -0.444
 0.108  0.848 -0.305 -0.435 -0.445 -0.443 -0.443
 0.110  0.852 -0.301 -0.433 -0.444 -0.442 -0.442
 0.112  0.855 -0.297 -0.430 -0.443 -0.440 -0.440
 0.114  0.859 -0.293 -0.427 -0.442 -0.439 -0.439
 0.116  0.863 -0.289 -0.424 -0.440 -0.438 -0.438
 0.118  0.867 -0.285 -0.422 -0.438 -0.437 -0.437
 0.120  0.870 -0.282 -0.419 -0.437 -0.435 -0.435
 0.122  0.874 -0.277 -0.416 -0.436 -0.434 -0.434
 0.124  0.877 -0.273 -0.414 -0.434 -0.433 -0.433
 0.126  0.881 -0.270 -0.411 -0.433 -0.432 -0.432
 0.128  0.884 -0.266 -0.408 -0.432 -0.430 -0.430
 0.130  0.888 -0.262 -0.406 -0.430 -0.429 -0.429
 0.132  0.892 -0.259 -0.403 -0.428 -0.428 -0.428
 0.134  0.895 -0.255 -0.400 -0.427 -0.427 -0.427
 0.136  0.899 -0.251 -0.398 -0.426 -0.426 -0.426
 0.138  0.903 -0.247 -0.395 -0.425 -0.424 -0.424
 0.140  0.906 -0.244 -0.393 -0.423 -0.423 -0.423
 0.142  0.909 -0.241 -0.390 -0.421 -0.422 -0.422
 0.144  0.913 -0.237 -0.388 -0.420 -0.421 -0.421
 0.146  0.917 -0.233 -0.385 -0.419 -0.420 -0.420
 0.148  0.920 -0.230 -0.382 -0.418 -0.418 -0.418
 0.150  0.924 -0.227 -0.380 -0.416 -0.417 -0.417
 0.152  0.927 -0.224 -0.378 -0.415 -0.416 -0.416
 0.154  0.931 -0.220 -0.376 -0.413 -0.415 -0.415
 0.156  0.935 -0.217 -0.373 -0.412 -0.414 -0.414
 0.158  0.938 -0.214 -0.371 -0.411 -0.413 -0.413
 0.160  0.941 -0.211 -0.369 -0.409 -0.412 -0.412
 0.162  0.945 -0.208 -0.366 -0.408 -0.410 -0.410
 0.164  0.948 -0.205 -0.364 -0.407 -0.409 -0.409
 0.166  0.951 -0.201 -0.362 -0.405 -0.408 -0.408
 0.168  0.955 -0.198 -0.359 -0.404 -0.407 -0.407
 0.170  0.958 -0.195 -0.357 -0.403 -0.406 -0.406
 0.172  0.962 -0.192 -0.355 -0.401 -0.405 -0.405
 0.174  0.965 -0.189 -0.352 -0.400 -0.404 -0.404
 0.176  0.969 -0.186 -0.351 -0.399 -0.403 -0.403
 0.178  0.972 -0.183 -0.348 -0.397 -0.402 -0.402
 0.180  0.975 -0.179 -0.347 -0.396 -0.400 -0.400
 0.182  0.979 -0.176 -0.344 -0.395 -0.400 -0.400
 0.184  0.982 -0.173 -0.342 -0.394 -0.398 -0.398
 0.186  0.986 -0.170 -0.340 -0.392 -0.397 -0.397
 0.188  0.989 -0.167 -0.339 -0.391 -0.396 -0.396
 0.190  0.992 -0.164 -0.336 -0.390 -0.395 -0.395
 0.192  0.995 -0.161 -0.335 -0.388 -0.394 -0.394
 0.194  0.999 -0.157 -0.333 -0.387 -0.393 -0.393
 0.196  1.002 -0.154 -0.330 -0.386 -0.392 -0.392
 0.198  1.005 -0.151 -0.329 -0.384 -0.391 -0.391
 0.200  1.008 -0.147 -0.327 -0.383 -0.390 -0.390
 0.202  1.012 -0.144 -0.325 -0.382 -0.388 -0.388
 0.204  1.015 -0.141 -0.324 -0.380 -0.387 -0.387
 0.206  1.018 -0.138 -0.322 -0.379 -0.386 -0.386
 0.208  1.021 -0.134 -0.320 -0.378 -0.385 -0.385
 0.210  1.024 -0.131 -0.318 -0.376 -0.384 -0.384
 0.212  1.028 -0.128 -0.317 -0.376 -0.383 -0.383
 0.214  1.031 -0.125 -0.315 -0.374 -0.382 -0.382
 0.216  1.034 -0.121 -0.313 -0.373 -0.381 -0.381
 0.218  1.037 -0.118 -0.312 -0.372 -0.379 -0.379
 0.220  1.040 -0.115 -0.310 -0.370 -0.378 -0.378
 0.222  1.043 -0.111 -0.309 -0.370 -0.377 -0.377
 0.224  1.046 -0.108 -0.307 -0.368 -0.376 -0.376
 0.226  1.049 -0.105 -0.306 -0.367 -0.375 -0.375
 0.228  1.052 -0.101 -0.304 -0.366 -0.374 -0.374
 0.230  1.055 -0.098 -0.302 -0.364 -0.373 -0.373
 0.232  1.058 -0.094 -0.300 -0.363 -0.372 -0.372
 0.234  1.061 -0.091 -0.299 -0.362 -0.371 -0.371
 0.236  1.064 -0.088 -0.298 -0.361 -0.370 -0.370
 0.238  1.067 -0.085 -0.296 -0.359 -0.369 -0.369
 0.240  1.070 -0.081 -0.294 -0.359 -0.367 -0.367
 0.242  1.073 -0.078 -0.292 -0.357 -0.367 -0.367
 0.244  1.076 -0.075 -0.291 -0.356 -0.365 -0.365
 0.246  1.079 -0.071 -0.289 -0.355 -0.364 -0.364
 0.248  1.081 -0.068 -0.288 -0.354 -0.363 -0.363
 0.250  1.084 -0.066 -0.286 -0.352 -0.362 -0.362
 0.252  1.087 -0.062 -0.284 -0.351 -0.361 -0.361
 0.254  1.090 -0.059 -0.283 -0.350 -0.360 -0.360
 0.256  1.093 -0.057 -0.281 -0.349 -0.359 -0.359
 0.258  1.096 -0.053 -0.280 -0.348 -0.358 -0.358
 0.260  1.098 -0.050 -0.278 -0.346 -0.357 -0.357
 0.262  1.101 -0.048 -0.276 -0.345 -0.356 -0.356
 0.264  1.103 -0.044 -0.274 -0.344 -0.355 -0.355
 0.266  1.106 -0.042 -0.273 -0.343 -0.354 -0.354
 0.268  1.109 -0.039 -0.272 -0.342 -0.353 -0.353
 0.270  1.112 -0.036 -0.270 -0.341 -0.352 -0.352
 0.272  1.114 -0.034 -0.268 -0.339 -0.351 -0.351
 0.274  1.117 -0.031 -0.266 -0.339 -0.351 -0.351
 0.276  1.119 -0.028 -0.265 -0.337 -0.349 -0.349
 0.278  1.122 -0.026 -0.263 -0.336 -0.349 -0.349
 0.280  1.125 -0.023 -0.261 -0.335 -0.348 -0.348
 0.282  1.127 -0.021 -0.259 -0.334 -0.347 -0.347
 0.284  1.130 -0.017 -0.258 -0.332 -0.346 -0.346
 0.286  1.132 -0.015 -0.256 -0.332 -0.345 -0.345
 0.288  1.135 -0.013 -0.254 -0.330 -0.344 -0.344
 0.290  1.138 -0.010 -0.252 -0.329 -0.343 -0.343
 0.292  1.140 -0.008 -0.251 -0.328 -0.342 -0.342
 0.294  1.142 -0.006 -0.250 -0.327 -0.341 -0.341
 0.296  1.145 -0.004 -0.248 -0.326 -0.341 -0.341
 0.298  1.148 -0.001 -0.246 -0.325 -0.340 -0.340
 0.300  1.150  0.001 -0.244 -0.323 -0.339 -0.339
 0.302  1.152  0.003 -0.243 -0.322 -0.338 -0.338
 0.304  1.155  0.005 -0.241 -0.321 -0.337 -0.337
 0.306  1.157  0.008 -0.239 -0.320 -0.336 -0.336
 0.308  1.160  0.010 -0.237 -0.319 -0.335 -0.335
 0.310  1.162  0.012 -0.236 -0.318 -0.335 -0.335
 0.312  1.164  0.014 -0.234 -0.316 -0.334 -0.334
 0.314  1.167  0.017 -0.232 -0.315 -0.333 -0.333
 0.316  1.170  0.019 -0.231 -0.314 -0.332 -0.332
 0.318  1.172  0.021 -0.229 -0.313 -0.331 -0.331
 0.320  1.174  0.023 -0.228 -0.311 -0.330 -0.330
 0.322  1.177  0.026 -0.226 -0.310 -0.329 -0.329
 0.324  1.179  0.028 -0.224 -0.309 -0.328 -0.328
 0.326  1.182  0.030 -0.222 -0.308 -0.327 -0.327
 0.328  1.184  0.032 -0.221 -0.307 -0.326 -0.326
 0.330  1.187  0.035 -0.220 -0.305 -0.325 -0.325
 0.332  1.189  0.037 -0.218 -0.304 -0.325 -0.325
 0.334  1.191  0.039 -0.216 -0.303 -0.323 -0.323
 0.336  1.193  0.041 -0.214 -0.301 -0.323 -0.323
 0.338  1.197  0.044 -0.213 -0.300 -0.321 -0.321
 0.340  1.199  0.046 -0.211 -0.299 -0.320 -0.320
 0.342  1.201  0.049 -0.210 -0.297 -0.319 -0.319
 0.344  1.203  0.051 -0.208 -0.296 -0.318 -0.318
 0.346  1.206  0.054 -0.206 -0.295 -0.317 -0.317
 0.348  1.208  0.056 -0.204 -0.294 -0.316 -0.316
 0.350  1.211  0.059 -0.203 -0.292 -0.315 -0.315
 0.352  1.213  0.061 -0.202 -0.291 -0.314 -0.314
 0.354  1.216  0.063 -0.200 -0.290 -0.313 -0.313
 0.356  1.218  0.066 -0.198 -0.288 -0.312 -0.312
 0.358  1.220  0.068 -0.197 -0.287 -0.311 -0.311
 0.360  1.222  0.071 -0.195 -0.286 -0.310 -0.310
 0.362  1.225  0.073 -0.194 -0.284 -0.309 -0.309
 0.364  1.228  0.076 -0.192 -0.283 -0.308 -0.308
 0.366  1.230  0.078 -0.191 -0.281 -0.307 -0.307
 0.368  1.232  0.081 -0.189 -0.280 -0.306 -0.306
 0.370  1.235  0.083 -0.187 -0.279 -0.304 -0.304
 0.372  1.237  0.086 -0.186 -0.277 -0.304 -0.304
 0.374  1.239  0.088 -0.184 -0.276 -0.302 -0.302
 0.376  1.241  0.090 -0.183 -0.274 -0.301 -0.301
 0.378  1.243  0.093 -0.181 -0.273 -0.300 -0.300
 0.380  1.245  0.095 -0.180 -0.272 -0.299 -0.299
 0.382  1.248  0.098 -0.178 -0.270 -0.298 -0.298
 0.384  1.250  0.100 -0.177 -0.269 -0.297 -0.297
 0.386  1.251  0.103 -0.175 -0.267 -0.296 -0.296
 0.388  1.254  0.105 -0.173 -0.266 -0.295 -0.295
 0.390  1.256  0.108 -0.172 -0.265 -0.294 -0.294
 0.392  1.258  0.110 -0.170 -0.263 -0.292 -0.292
 0.394  1.260  0.113 -0.169 -0.262 -0.291 -0.291
 0.396  1.261  0.115 -0.168 -0.261 -0.290 -0.290
 0.398  1.264  0.117 -0.166 -0.259 -0.289 -0.289
 0.400  1.265  0.119 -0.165 -0.258 -0.288 -0.288
 0.402  1.268  0.122 -0.163 -0.257 -0.287 -0.287
 0.404  1.269  0.123 -0.162 -0.256 -0.286 -0.286
 0.406  1.271  0.126 -0.160 -0.255 -0.285 -0.285
 0.408  1.273  0.127 -0.159 -0.253 -0.284 -0.284
 0.410  1.274  0.130 -0.157 -0.252 -0.283 -0.283
 0.412  1.276  0.131 -0.156 -0.251 -0.282 -0.282
 0.414  1.278  0.134 -0.155 -0.250 -0.281 -0.281
 0.416  1.280  0.135 -0.153 -0.249 -0.280 -0.280
 0.418  1.281  0.138 -0.152 -0.247 -0.279 -0.279
 0.420  1.283  0.140 -0.150 -0.246 -0.278 -0.278
 0.422  1.284  0.141 -0.149 -0.245 -0.277 -0.277
 0.424  1.286  0.143 -0.147 -0.244 -0.276 -0.276
 0.426  1.287  0.145 -0.146 -0.243 -0.275 -0.275
 0.428  1.289  0.147 -0.144 -0.242 -0.274 -0.274
 0.430  1.290  0.149 -0.143 -0.241 -0.273 -0.273
 0.432  1.292  0.150 -0.142 -0.239 -0.272 -0.272
 0.434  1.293  0.152 -0.140 -0.239 -0.271 -0.271
 0.436  1.295  0.153 -0.139 -0.238 -0.270 -0.270
 0.438  1.297  0.155 -0.138 -0.236 -0.269 -0.269
 0.440  1.298  0.157 -0.136 -0.235 -0.268 -0.268
 0.442  1.300  0.158 -0.135 -0.235 -0.267 -0.267
 0.444  1.301  0.160 -0.134 -0.233 -0.266 -0.266
 0.446  1.303  0.162 -0.133 -0.232 -0.265 -0.265
 0.448  1.304  0.163 -0.132 -0.232 -0.264 -0.264
 0.450  1.306  0.164 -0.130 -0.230 -0.263 -0.263
 0.452  1.307  0.166 -0.129 -0.229 -0.262 -0.262
 0.454  1.309  0.167 -0.128 -0.228 -0.262 -0.262
 0.456  1.310  0.168 -0.126 -0.227 -0.260 -0.260
 0.458  1.312  0.170 -0.125 -0.226 -0.260 -0.260
 0.460  1.313  0.171 -0.124 -0.225 -0.259 -0.259
 0.462  1.315  0.172 -0.123 -0.225 -0.258 -0.258
 0.464  1.316  0.174 -0.122 -0.223 -0.257 -0.257
 0.466  1.318  0.175 -0.121 -0.222 -0.256 -0.256
 0.468  1.320  0.176 -0.120 -0.222 -0.256 -0.256
 0.470  1.322  0.177 -0.119 -0.221 -0.254 -0.254
 0.472  1.323  0.179 -0.118 -0.219 -0.253 -0.253
 0.474  1.325  0.180 -0.117 -0.218 -0.253 -0.253
 0.476  1.326  0.181 -0.116 -0.218 -0.252 -0.252
 0.478  1.328  0.182 -0.115 -0.217 -0.251 -0.251
 0.480  1.330  0.184 -0.114 -0.216 -0.251 -0.251
 0.482  1.332  0.184 -0.113 -0.215 -0.250 -0.250
 0.484  1.333  0.185 -0.112 -0.214 -0.249 -0.249
 0.486  1.335  0.186 -0.111 -0.213 -0.248 -0.248
 0.488  1.337  0.188 -0.110 -0.212 -0.247 -0.247
 0.490  1.339  0.189 -0.109 -0.211 -0.247 -0.247
 0.492  1.340  0.189 -0.109 -0.210 -0.246 -0.246
 0.494  1.342  0.190 -0.108 -0.209 -0.245 -0.245
 0.496  1.344  0.191 -0.107 -0.208 -0.245 -0.245
 0.498  1.346  0.192 -0.106 -0.207 -0.244 -0.244
 0.500  1.348  0.193 -0.105 -0.206 -0.243 -0.243
 0.502  1.350  0.194 -0.105 -0.205 -0.243 -0.243
 0.504  1.352  0.195 -0.104 -0.204 -0.242 -0.242
 0.506  1.353  0.196 -0.103 -0.203 -0.241 -0.241
 0.508  1.355  0.197 -0.102 -0.202 -0.241 -0.241
 0.510  1.357  0.197 -0.102 -0.201 -0.240 -0.240
 0.512  1.358  0.198 -0.101 -0.201 -0.239 -0.239
 0.514  1.360  0.198 -0.100 -0.200 -0.239 -0.239
 0.516  1.361  0.199 -0.099 -0.199 -0.238 -0.238
 0.518  1.363  0.200 -0.099 -0.198 -0.238 -0.238
 0.520  1.364  0.201 -0.098 -0.197 -0.237 -0.237
 0.522  1.366  0.201 -0.097 -0.196 -0.237 -0.237
 0.524  1.367  0.202 -0.096 -0.195 -0.236 -0.236
 0.526  1.368  0.202 -0.096 -0.194 -0.235 -0.235
 0.528  1.369  0.203 -0.095 -0.194 -0.235 -0.235
 0.530  1.371  0.203 -0.094 -0.193 -0.234 -0.234
 0.532  1.371  0.204 -0.094 -0.192 -0.233 -0.233
 0.534  1.373  0.205 -0.092 -0.191 -0.233 -0.233
 0.536  1.374  0.205 -0.092 -0.191 -0.232 -0.232
 0.538  1.374  0.206 -0.091 -0.190 -0.232 -0.232
 0.540  1.375  0.206 -0.090 -0.189 -0.231 -0.231
 0.542  1.376  0.207 -0.089 -0.188 -0.231 -0.231
 0.544  1.377  0.207 -0.089 -0.188 -0.230 -0.230
 0.546  1.377  0.207 -0.088 -0.187 -0.229 -0.229
 0.548  1.377  0.207 -0.087 -0.187 -0.229 -0.229
 0.550  1.378  0.208 -0.087 -0.186 -0.228 -0.228
 0.552  1.378  0.208 -0.085 -0.185 -0.228 -0.228
 0.554  1.379  0.208 -0.085 -0.184 -0.227 -0.227
 0.556  1.379  0.209 -0.084 -0.184 -0.227 -0.227
 0.558  1.380  0.209 -0.083 -0.184 -0.226 -0.226
 0.560  1.380  0.210 -0.083 -0.183 -0.225 -0.225
 0.562  1.380  0.210 -0.082 -0.182 -0.225 -0.225
 0.564  1.380  0.210 -0.081 -0.182 -0.224 -0.224
 0.566  1.380  0.210 -0.080 -0.181 -0.223 -0.223
 0.568  1.380  0.211 -0.080 -0.181 -0.223 -0.223
 0.570  1.380  0.211 -0.079 -0.180 -0.222 -0.222
 0.572  1.379  0.211 -0.078 -0.180 -0.222 -0.222
 0.574  1.379  0.211 -0.077 -0.179 -0.221 -0.221
 0.576  1.379  0.211 -0.076 -0.179 -0.221 -0.221
 0.578  1.378  0.211 -0.076 -0.178 -0.220 -0.220
 0.580  1.378  0.211 -0.074 -0.178 -0.219 -0.219
 0.582  1.378  0.211 -0.074 -0.178 -0.219 -0.219
 0.584  1.377  0.211 -0.073 -0.177 -0.218 -0.218
 0.586  1.377  0.211 -0.073 -0.177 -0.217 -0.217
 0.588  1.377  0.211 -0.072 -0.177 -0.217 -0.217
 0.590  1.377  0.211 -0.071 -0.176 -0.217 -0.217
 0.592  1.377  0.211 -0.070 -0.176 -0.216 -0.216
 0.594  1.377  0.211 -0.070 -0.176 -0.215 -0.215
 0.596  1.376  0.211 -0.069 -0.175 -0.215 -0.215
 0.598  1.376  0.211 -0.069 -0.175 -0.214 -0.214
 0.600  1.376  0.211 -0.069 -0.174 -0.214 -0.214
 0.602  1.376  0.211 -0.068 -0.174 -0.213 -0.213
 0.604  1.376  0.211 -0.068 -0.174 -0.213 -0.213
 0.606  1.376  0.211 -0.067 -0.173 -0.212 -0.212
 0.608  1.375  0.211 -0.066 -0.173 -0.211 -0.211
 0.610  1.375  0.210 -0.066 -0.173 -0.211 -0.211
 0.612  1.375  0.210 -0.066 -0.173 -0.211 -0.211
 0.614  1.375  0.210 -0.065 -0.172 -0.210 -0.210
 0.616  1.375  0.210 -0.065 -0.172 -0.210 -0.210
 0.618  1.375  0.210 -0.065 -0.171 -0.209 -0.209
 0.620  1.375  0.210 -0.065 -0.171 -0.209 -0.209
 0.622  1.375  0.210 -0.064 -0.171 -0.208 -0.208
 0.624  1.375  0.210 -0.064 -0.170 -0.208 -0.208
 0.626  1.375  0.210 -0.064 -0.170 -0.207 -0.207
 0.628  1.375  0.210 -0.063 -0.170 -0.207 -0.207
 0.630  1.375  0.209 -0.063 -0.170 -0.207 -0.207
 0.632  1.375  0.209 -0.063 -0.169 -0.206 -0.206
 0.634  1.375  0.209 -0.063 -0.169 -0.206 -0.206
 0.636  1.376  0.209 -0.063 -0.169 -0.205 -0.205
 0.638  1.376  0.209 -0.063 -0.168 -0.205 -0.205
 0.640  1.376  0.209 -0.063 -0.168 -0.205 -0.205
 0.642  1.376  0.209 -0.063 -0.167 -0.205 -0.205
 0.644  1.376  0.209 -0.063 -0.167 -0.204 -0.204
 0.646  1.377  0.208 -0.063 -0.167 -0.204 -0.204
 0.648  1.377  0.208 -0.063 -0.166 -0.203 -0.203
 0.650  1.377  0.208 -0.063 -0.166 -0.203 -0.203
 0.652  1.377  0.208 -0.063 -0.166 -0.203 -0.203
 0.654  1.377  0.208 -0.063 -0.166 -0.203 -0.203
 0.656  1.377  0.208 -0.063 -0.165 -0.203 -0.203
 0.658  1.378  0.207 -0.063 -0.165 -0.202 -0.202
 0.660  1.378  0.207 -0.063 -0.164 -0.202 -0.202
 0.662  1.378  0.207 -0.063 -0.164 -0.202 -0.202
 0.664  1.379  0.207 -0.063 -0.163 -0.201 -0.201
 0.666  1.379  0.207 -0.062 -0.163 -0.201 -0.201
 0.668  1.379  0.207 -0.062 -0.163 -0.201 -0.201
 0.670  1.380  0.207 -0.062 -0.162 -0.200 -0.200
 0.672  1.380  0.207 -0.062 -0.161 -0.200 -0.200
 0.674  1.381  0.207 -0.061 -0.160 -0.199 -0.199
 0.676  1.381  0.207 -0.061 -0.160 -0.199 -0.199
 0.678  1.381  0.207 -0.061 -0.159 -0.199 -0.199
 0.680  1.381  0.208 -0.060 -0.158 -0.198 -0.198
 0.682  1.381  0.208 -0.059 -0.156 -0.198 -0.198
 0.684  1.382  0.208 -0.059 -0.156 -0.197 -0.197
 0.686  1.382  0.209 -0.058 -0.154 -0.197 -0.197
 0.688  1.383  0.209 -0.058 -0.153 -0.196 -0.196
 0.690  1.383  0.210 -0.057 -0.152 -0.196 -0.196
 0.692  1.384  0.210 -0.057 -0.151 -0.195 -0.195
 0.694  1.384  0.211 -0.056 -0.149 -0.195 -0.195
 0.696  1.384  0.211 -0.055 -0.148 -0.194 -0.194
 0.698  1.385  0.211 -0.054 -0.146 -0.193 -0.193
 0.700  1.385  0.212 -0.054 -0.145 -0.193 -0.193
 0.702  1.386  0.213 -0.053 -0.143 -0.192 -0.192
 0.704  1.386  0.214 -0.052 -0.142 -0.191 -0.191
 0.706  1.387  0.215 -0.051 -0.140 -0.191 -0.191
 0.708  1.387  0.216 -0.050 -0.139 -0.190 -0.190
 0.710  1.387  0.216 -0.049 -0.137 -0.189 -0.189
 0.712  1.388  0.217 -0.048 -0.135 -0.188 -0.188
 0.714  1.388  0.218 -0.047 -0.133 -0.187 -0.187
 0.716  1.389  0.219 -0.046 -0.131 -0.186 -0.186
 0.718  1.390  0.220 -0.045 -0.129 -0.186 -0.186
 0.720  1.390  0.221 -0.044 -0.126 -0.185 -0.185
 0.722  1.390  0.222 -0.043 -0.124 -0.184 -0.184
 0.724  1.391  0.223 -0.042 -0.122 -0.183 -0.183
 0.726  1.392  0.225 -0.040 -0.120 -0.182 -0.182
 0.728  1.393  0.225 -0.039 -0.118 -0.181 -0.181
 0.730  1.393  0.227 -0.037 -0.115 -0.180 -0.180
 0.732  1.395  0.228 -0.036 -0.113 -0.179 -0.179
 0.734  1.396  0.229 -0.035 -0.111 -0.178 -0.178
 0.736  1.397  0.231 -0.033 -0.109 -0.177 -0.177
 0.738  1.398  0.232 -0.032 -0.107 -0.176 -0.176
 0.740  1.400  0.234 -0.031 -0.105 -0.175 -0.175
 0.742  1.401  0.235 -0.029 -0.103 -0.174 -0.174
 0.744  1.403  0.236 -0.028 -0.101 -0.172 -0.172
 0.746  1.404  0.238 -0.026 -0.099 -0.171 -0.171
 0.748  1.406  0.239 -0.024 -0.097 -0.170 -0.170
 0.750  1.407  0.241 -0.022 -0.095 -0.169 -0.169
 0.752  1.409  0.243 -0.021 -0.094 -0.168 -0.168
 0.754  1.410  0.244 -0.019 -0.092 -0.166 -0.166
 0.756  1.412  0.246 -0.017 -0.091 -0.165 -0.165
 0.758  1.413  0.247 -0.016 -0.089 -0.164 -0.164
 0.760  1.416  0.250 -0.014 -0.087 -0.162 -0.162
 0.762  1.417  0.252 -0.012 -0.086 -0.161 -0.161
 0.764  1.419  0.253 -0.010 -0.085 -0.159 -0.159
 0.766  1.422  0.255 -0.009 -0.084 -0.158 -0.158
 0.768  1.424  0.256 -0.006 -0.083 -0.156 -0.156
 0.770  1.426  0.259 -0.005 -0.081 -0.155 -0.155
 0.772  1.429  0.261 -0.002 -0.080 -0.154 -0.154
 0.774  1.432  0.262  0.000 -0.080 -0.152 -0.152
 0.776  1.434  0.264  0.002 -0.079 -0.150 -0.150
 0.778  1.437  0.266  0.005 -0.078 -0.149 -0.149
 0.780  1.440  0.268  0.007 -0.077 -0.147 -0.147
 0.782  1.443  0.270  0.009 -0.076 -0.146 -0.146
 0.784  1.445  0.272  0.012 -0.076 -0.144 -0.144
 0.786  1.448  0.274  0.014 -0.075 -0.142 -0.142
 0.788  1.451  0.276  0.016 -0.074 -0.140 -0.140
 0.790  1.454  0.279  0.018 -0.074 -0.139 -0.139
 0.792  1.456  0.281  0.020 -0.073 -0.137 -0.137
 0.794  1.458  0.283  0.022 -0.073 -0.135 -0.135
 0.796  1.461  0.286  0.024 -0.073 -0.133 -0.133
 0.798  1.462  0.288  0.025 -0.072 -0.131 -0.131
 0.800  1.464  0.291  0.027 -0.072 -0.129 -0.129
 0.802  1.465  0.293  0.028 -0.072 -0.128 -0.128
 0.804  1.466  0.296  0.030 -0.073 -0.126 -0.126
 0.806  1.467  0.297  0.030 -0.073 -0.124 -0.124
 0.808  1.468  0.299  0.031 -0.073 -0.123 -0.123
