# IsPeriodic    : True
# Period        : 0.589420 days
# Normalization : <g_mag>=0
# 
# Phase u_mag  g_mag  r_mag  i_mag  z_mag  y_mag
 0.000  0.656 -0.572 -0.567 -0.527 -0.498 -0.498
 0.002  0.656 -0.572 -0.567 -0.527 -0.498 -0.498
 0.004  0.657 -0.571 -0.567 -0.526 -0.497 -0.497
 0.006  0.658 -0.570 -0.567 -0.526 -0.497 -0.497
 0.008  0.660 -0.567 -0.566 -0.526 -0.496 -0.496
 0.010  0.662 -0.564 -0.565 -0.525 -0.495 -0.495
 0.012  0.665 -0.561 -0.564 -0.525 -0.494 -0.494
 0.014  0.668 -0.557 -0.563 -0.525 -0.493 -0.493
 0.016  0.671 -0.554 -0.561 -0.524 -0.492 -0.492
 0.018  0.675 -0.549 -0.560 -0.523 -0.490 -0.490
 0.020  0.679 -0.545 -0.559 -0.522 -0.488 -0.488
 0.022  0.683 -0.540 -0.557 -0.522 -0.487 -0.487
 0.024  0.687 -0.536 -0.556 -0.521 -0.485 -0.485
 0.026  0.691 -0.531 -0.554 -0.520 -0.483 -0.483
 0.028  0.695 -0.528 -0.552 -0.519 -0.482 -0.482
 0.030  0.699 -0.523 -0.550 -0.518 -0.481 -0.481
 0.032  0.703 -0.519 -0.548 -0.516 -0.479 -0.479
 0.034  0.706 -0.515 -0.546 -0.515 -0.478 -0.478
 0.036  0.710 -0.511 -0.544 -0.513 -0.476 -0.476
 0.038  0.713 -0.507 -0.542 -0.512 -0.475 -0.475
 0.040  0.717 -0.502 -0.540 -0.510 -0.474 -0.474
 0.042  0.720 -0.498 -0.537 -0.508 -0.472 -0.472
 0.044  0.724 -0.494 -0.535 -0.506 -0.471 -0.471
 0.046  0.727 -0.490 -0.532 -0.504 -0.469 -0.469
 0.048  0.731 -0.485 -0.530 -0.502 -0.468 -0.468
 0.050  0.735 -0.480 -0.527 -0.500 -0.467 -0.467
 0.052  0.739 -0.476 -0.524 -0.498 -0.465 -0.465
 0.054  0.743 -0.471 -0.521 -0.495 -0.464 -0.464
 0.056  0.747 -0.467 -0.517 -0.493 -0.462 -0.462
 0.058  0.751 -0.461 -0.514 -0.491 -0.461 -0.461
 0.060  0.755 -0.457 -0.511 -0.488 -0.459 -0.459
 0.062  0.759 -0.452 -0.508 -0.486 -0.458 -0.458
 0.064  0.763 -0.446 -0.504 -0.483 -0.456 -0.456
 0.066  0.767 -0.442 -0.501 -0.481 -0.455 -0.455
 0.068  0.771 -0.437 -0.497 -0.478 -0.453 -0.453
 0.070  0.775 -0.431 -0.493 -0.476 -0.452 -0.452
 0.072  0.779 -0.426 -0.490 -0.474 -0.451 -0.451
 0.074  0.783 -0.422 -0.486 -0.471 -0.449 -0.449
 0.076  0.787 -0.416 -0.482 -0.469 -0.447 -0.447
 0.078  0.791 -0.411 -0.478 -0.467 -0.446 -0.446
 0.080  0.795 -0.406 -0.475 -0.465 -0.445 -0.445
 0.082  0.800 -0.401 -0.470 -0.463 -0.443 -0.443
 0.084  0.804 -0.396 -0.466 -0.460 -0.442 -0.442
 0.086  0.808 -0.391 -0.463 -0.458 -0.440 -0.440
 0.088  0.811 -0.385 -0.459 -0.456 -0.439 -0.439
 0.090  0.816 -0.381 -0.456 -0.454 -0.438 -0.438
 0.092  0.820 -0.375 -0.453 -0.452 -0.436 -0.436
 0.094  0.824 -0.370 -0.449 -0.450 -0.435 -0.435
 0.096  0.828 -0.366 -0.446 -0.449 -0.433 -0.433
 0.098  0.832 -0.360 -0.442 -0.447 -0.432 -0.432
 0.100  0.836 -0.355 -0.439 -0.445 -0.430 -0.430
 0.102  0.840 -0.351 -0.436 -0.443 -0.429 -0.429
 0.104  0.844 -0.346 -0.432 -0.441 -0.428 -0.428
 0.106  0.848 -0.341 -0.429 -0.440 -0.426 -0.426
 0.108  0.852 -0.336 -0.426 -0.438 -0.425 -0.425
 0.110  0.856 -0.332 -0.423 -0.437 -0.423 -0.423
 0.112  0.859 -0.327 -0.420 -0.435 -0.422 -0.422
 0.114  0.863 -0.322 -0.417 -0.433 -0.420 -0.420
 0.116  0.867 -0.318 -0.414 -0.432 -0.419 -0.419
 0.118  0.871 -0.313 -0.411 -0.431 -0.418 -0.418
 0.120  0.874 -0.310 -0.409 -0.429 -0.416 -0.416
 0.122  0.878 -0.305 -0.406 -0.428 -0.415 -0.415
 0.124  0.881 -0.301 -0.403 -0.427 -0.414 -0.414
 0.126  0.885 -0.297 -0.400 -0.425 -0.412 -0.412
 0.128  0.888 -0.292 -0.398 -0.424 -0.411 -0.411
 0.130  0.892 -0.289 -0.395 -0.422 -0.410 -0.410
 0.132  0.895 -0.284 -0.393 -0.422 -0.408 -0.408
 0.134  0.899 -0.281 -0.391 -0.420 -0.407 -0.407
 0.136  0.902 -0.276 -0.388 -0.419 -0.406 -0.406
 0.138  0.906 -0.273 -0.385 -0.418 -0.404 -0.404
 0.140  0.909 -0.268 -0.383 -0.417 -0.403 -0.403
 0.142  0.913 -0.265 -0.381 -0.416 -0.402 -0.402
 0.144  0.916 -0.261 -0.379 -0.414 -0.401 -0.401
 0.146  0.920 -0.257 -0.377 -0.413 -0.399 -0.399
 0.148  0.923 -0.253 -0.374 -0.412 -0.398 -0.398
 0.150  0.927 -0.250 -0.372 -0.411 -0.397 -0.397
 0.152  0.930 -0.246 -0.370 -0.410 -0.395 -0.395
 0.154  0.933 -0.243 -0.368 -0.408 -0.394 -0.394
 0.156  0.936 -0.239 -0.366 -0.407 -0.393 -0.393
 0.158  0.939 -0.235 -0.364 -0.406 -0.392 -0.392
 0.160  0.942 -0.232 -0.362 -0.405 -0.390 -0.390
 0.162  0.945 -0.228 -0.359 -0.403 -0.389 -0.389
 0.164  0.948 -0.225 -0.358 -0.402 -0.388 -0.388
 0.166  0.951 -0.221 -0.355 -0.401 -0.387 -0.387
 0.168  0.955 -0.218 -0.354 -0.400 -0.385 -0.385
 0.170  0.958 -0.214 -0.351 -0.398 -0.384 -0.384
 0.172  0.961 -0.211 -0.349 -0.397 -0.383 -0.383
 0.174  0.964 -0.207 -0.347 -0.396 -0.382 -0.382
 0.176  0.967 -0.204 -0.345 -0.395 -0.380 -0.380
 0.178  0.970 -0.200 -0.343 -0.394 -0.379 -0.379
 0.180  0.973 -0.197 -0.341 -0.392 -0.378 -0.378
 0.182  0.976 -0.194 -0.338 -0.391 -0.377 -0.377
 0.184  0.979 -0.190 -0.337 -0.390 -0.375 -0.375
 0.186  0.983 -0.187 -0.334 -0.388 -0.374 -0.374
 0.188  0.986 -0.183 -0.333 -0.387 -0.373 -0.373
 0.190  0.989 -0.180 -0.330 -0.386 -0.372 -0.372
 0.192  0.992 -0.176 -0.329 -0.385 -0.370 -0.370
 0.194  0.995 -0.173 -0.326 -0.383 -0.370 -0.370
 0.196  0.997 -0.170 -0.325 -0.382 -0.368 -0.368
 0.198  1.000 -0.166 -0.323 -0.381 -0.367 -0.367
 0.200  1.004 -0.163 -0.321 -0.379 -0.366 -0.366
 0.202  1.007 -0.159 -0.319 -0.378 -0.365 -0.365
 0.204  1.010 -0.157 -0.316 -0.377 -0.364 -0.364
 0.206  1.012 -0.153 -0.315 -0.375 -0.362 -0.362
 0.208  1.015 -0.149 -0.313 -0.374 -0.361 -0.361
 0.210  1.018 -0.146 -0.311 -0.373 -0.360 -0.360
 0.212  1.021 -0.143 -0.309 -0.372 -0.359 -0.359
 0.214  1.024 -0.140 -0.307 -0.370 -0.358 -0.358
 0.216  1.027 -0.136 -0.305 -0.369 -0.357 -0.357
 0.218  1.030 -0.133 -0.303 -0.368 -0.356 -0.356
 0.220  1.032 -0.130 -0.301 -0.366 -0.355 -0.355
 0.222  1.035 -0.126 -0.299 -0.365 -0.353 -0.353
 0.224  1.039 -0.123 -0.297 -0.364 -0.352 -0.352
 0.226  1.041 -0.120 -0.296 -0.363 -0.351 -0.351
 0.228  1.044 -0.117 -0.293 -0.361 -0.350 -0.350
 0.230  1.046 -0.114 -0.292 -0.360 -0.349 -0.349
 0.232  1.049 -0.110 -0.290 -0.359 -0.348 -0.348
 0.234  1.052 -0.107 -0.288 -0.358 -0.347 -0.347
 0.236  1.055 -0.104 -0.286 -0.356 -0.346 -0.346
 0.238  1.057 -0.101 -0.285 -0.355 -0.344 -0.344
 0.240  1.060 -0.098 -0.283 -0.354 -0.343 -0.343
 0.242  1.063 -0.095 -0.281 -0.352 -0.343 -0.343
 0.244  1.065 -0.092 -0.279 -0.351 -0.341 -0.341
 0.246  1.068 -0.088 -0.277 -0.350 -0.340 -0.340
 0.248  1.070 -0.086 -0.275 -0.349 -0.339 -0.339
 0.250  1.073 -0.083 -0.274 -0.347 -0.338 -0.338
 0.252  1.076 -0.079 -0.272 -0.347 -0.337 -0.337
 0.254  1.078 -0.077 -0.270 -0.345 -0.336 -0.336
 0.256  1.081 -0.074 -0.269 -0.344 -0.335 -0.335
 0.258  1.083 -0.071 -0.267 -0.343 -0.334 -0.334
 0.260  1.086 -0.068 -0.266 -0.342 -0.333 -0.333
 0.262  1.088 -0.065 -0.264 -0.340 -0.332 -0.332
 0.264  1.091 -0.063 -0.262 -0.339 -0.331 -0.331
 0.266  1.093 -0.060 -0.260 -0.338 -0.329 -0.329
 0.268  1.095 -0.056 -0.259 -0.337 -0.329 -0.329
 0.270  1.098 -0.054 -0.257 -0.336 -0.328 -0.328
 0.272  1.100 -0.051 -0.256 -0.334 -0.327 -0.327
 0.274  1.102 -0.048 -0.254 -0.333 -0.325 -0.325
 0.276  1.105 -0.046 -0.252 -0.332 -0.325 -0.325
 0.278  1.107 -0.043 -0.251 -0.331 -0.324 -0.324
 0.280  1.109 -0.040 -0.249 -0.330 -0.322 -0.322
 0.282  1.112 -0.038 -0.248 -0.329 -0.321 -0.321
 0.284  1.114 -0.035 -0.246 -0.327 -0.320 -0.320
 0.286  1.116 -0.032 -0.245 -0.326 -0.320 -0.320
 0.288  1.118 -0.030 -0.243 -0.325 -0.319 -0.319
 0.290  1.120 -0.027 -0.242 -0.324 -0.317 -0.317
 0.292  1.123 -0.025 -0.240 -0.323 -0.316 -0.316
 0.294  1.124 -0.023 -0.239 -0.321 -0.316 -0.316
 0.296  1.126 -0.020 -0.237 -0.320 -0.315 -0.315
 0.298  1.129 -0.017 -0.236 -0.319 -0.314 -0.314
 0.300  1.130 -0.015 -0.234 -0.318 -0.312 -0.312
 0.302  1.133 -0.012 -0.232 -0.316 -0.311 -0.311
 0.304  1.135 -0.010 -0.231 -0.315 -0.311 -0.311
 0.306  1.137 -0.008 -0.230 -0.314 -0.310 -0.310
 0.308  1.139 -0.005 -0.228 -0.313 -0.308 -0.308
 0.310  1.141 -0.002 -0.227 -0.312 -0.307 -0.307
 0.312  1.144  0.000 -0.226 -0.310 -0.307 -0.307
 0.314  1.145  0.002 -0.224 -0.309 -0.306 -0.306
 0.316  1.147  0.005 -0.222 -0.308 -0.304 -0.304
 0.318  1.150  0.007 -0.221 -0.307 -0.303 -0.303
 0.320  1.151  0.010 -0.219 -0.305 -0.302 -0.302
 0.322  1.154  0.013 -0.218 -0.304 -0.301 -0.301
 0.324  1.156  0.015 -0.216 -0.303 -0.300 -0.300
 0.326  1.158  0.017 -0.215 -0.302 -0.299 -0.299
 0.328  1.161  0.020 -0.213 -0.301 -0.298 -0.298
 0.330  1.162  0.022 -0.212 -0.299 -0.297 -0.297
 0.332  1.165  0.025 -0.210 -0.298 -0.296 -0.296
 0.334  1.167  0.028 -0.209 -0.297 -0.295 -0.295
 0.336  1.169  0.030 -0.208 -0.296 -0.293 -0.293
 0.338  1.171  0.032 -0.206 -0.294 -0.293 -0.293
 0.340  1.173  0.035 -0.205 -0.293 -0.291 -0.291
 0.342  1.175  0.038 -0.203 -0.292 -0.290 -0.290
 0.344  1.178  0.040 -0.201 -0.291 -0.289 -0.289
 0.346  1.180  0.043 -0.200 -0.289 -0.288 -0.288
 0.348  1.182  0.046 -0.198 -0.288 -0.287 -0.287
 0.350  1.185  0.048 -0.197 -0.287 -0.285 -0.285
 0.352  1.186  0.051 -0.195 -0.286 -0.284 -0.284
 0.354  1.189  0.053 -0.194 -0.284 -0.283 -0.283
 0.356  1.191  0.055 -0.193 -0.283 -0.282 -0.282
 0.358  1.193  0.058 -0.191 -0.282 -0.280 -0.280
 0.360  1.196  0.061 -0.190 -0.281 -0.280 -0.280
 0.362  1.198  0.063 -0.188 -0.279 -0.278 -0.278
 0.364  1.200  0.066 -0.187 -0.278 -0.277 -0.277
 0.366  1.203  0.069 -0.185 -0.277 -0.276 -0.276
 0.368  1.205  0.071 -0.184 -0.276 -0.275 -0.275
 0.370  1.207  0.073 -0.182 -0.274 -0.273 -0.273
 0.372  1.210  0.076 -0.181 -0.273 -0.272 -0.272
 0.374  1.211  0.078 -0.179 -0.272 -0.270 -0.270
 0.376  1.214  0.081 -0.178 -0.271 -0.270 -0.270
 0.378  1.216  0.084 -0.176 -0.270 -0.268 -0.268
 0.380  1.218  0.085 -0.175 -0.268 -0.267 -0.267
 0.382  1.221  0.088 -0.173 -0.267 -0.266 -0.266
 0.384  1.223  0.091 -0.172 -0.266 -0.265 -0.265
 0.386  1.224  0.093 -0.171 -0.265 -0.263 -0.263
 0.388  1.227  0.095 -0.169 -0.264 -0.262 -0.262
 0.390  1.229  0.098 -0.168 -0.262 -0.261 -0.261
 0.392  1.231  0.100 -0.166 -0.261 -0.260 -0.260
 0.394  1.233  0.102 -0.165 -0.260 -0.258 -0.258
 0.396  1.235  0.105 -0.164 -0.259 -0.257 -0.257
 0.398  1.237  0.108 -0.162 -0.258 -0.256 -0.256
 0.400  1.239  0.109 -0.161 -0.257 -0.255 -0.255
 0.402  1.242  0.112 -0.159 -0.255 -0.254 -0.254
 0.404  1.243  0.114 -0.158 -0.255 -0.252 -0.252
 0.406  1.245  0.116 -0.156 -0.253 -0.252 -0.252
 0.408  1.247  0.119 -0.155 -0.252 -0.250 -0.250
 0.410  1.249  0.121 -0.153 -0.251 -0.249 -0.249
 0.412  1.251  0.123 -0.152 -0.250 -0.248 -0.248
 0.414  1.253  0.125 -0.150 -0.249 -0.247 -0.247
 0.416  1.255  0.127 -0.149 -0.248 -0.246 -0.246
 0.418  1.256  0.130 -0.148 -0.247 -0.245 -0.245
 0.420  1.259  0.131 -0.146 -0.245 -0.243 -0.243
 0.422  1.260  0.134 -0.145 -0.245 -0.243 -0.243
 0.424  1.262  0.136 -0.143 -0.244 -0.241 -0.241
 0.426  1.264  0.138 -0.142 -0.242 -0.240 -0.240
 0.428  1.266  0.140 -0.140 -0.241 -0.239 -0.239
 0.430  1.267  0.142 -0.139 -0.240 -0.238 -0.238
 0.432  1.269  0.144 -0.138 -0.239 -0.237 -0.237
 0.434  1.271  0.147 -0.136 -0.238 -0.236 -0.236
 0.436  1.273  0.148 -0.135 -0.237 -0.235 -0.235
 0.438  1.274  0.150 -0.133 -0.236 -0.234 -0.234
 0.440  1.276  0.153 -0.132 -0.235 -0.233 -0.233
 0.442  1.277  0.155 -0.131 -0.234 -0.232 -0.232
 0.444  1.279  0.156 -0.129 -0.233 -0.231 -0.231
 0.446  1.280  0.158 -0.128 -0.232 -0.230 -0.230
 0.448  1.282  0.160 -0.127 -0.231 -0.229 -0.229
 0.450  1.284  0.162 -0.126 -0.230 -0.228 -0.228
 0.452  1.285  0.163 -0.124 -0.228 -0.226 -0.226
 0.454  1.287  0.165 -0.123 -0.228 -0.225 -0.225
 0.456  1.288  0.167 -0.122 -0.227 -0.225 -0.225
 0.458  1.290  0.169 -0.121 -0.226 -0.224 -0.224
 0.460  1.291  0.170 -0.119 -0.225 -0.222 -0.222
 0.462  1.292  0.172 -0.118 -0.224 -0.221 -0.221
 0.464  1.294  0.174 -0.117 -0.223 -0.221 -0.221
 0.466  1.295  0.176 -0.116 -0.222 -0.220 -0.220
 0.468  1.297  0.178 -0.114 -0.221 -0.219 -0.219
 0.470  1.298  0.178 -0.113 -0.220 -0.217 -0.217
 0.472  1.299  0.180 -0.111 -0.219 -0.216 -0.216
 0.474  1.301  0.182 -0.110 -0.218 -0.216 -0.216
 0.476  1.301  0.183 -0.109 -0.217 -0.215 -0.215
 0.478  1.303  0.185 -0.108 -0.216 -0.214 -0.214
 0.480  1.304  0.186 -0.107 -0.215 -0.213 -0.213
 0.482  1.305  0.187 -0.106 -0.214 -0.212 -0.212
 0.484  1.306  0.189 -0.105 -0.213 -0.211 -0.211
 0.486  1.308  0.190 -0.103 -0.212 -0.210 -0.210
 0.488  1.308  0.192 -0.102 -0.211 -0.209 -0.209
 0.490  1.310  0.193 -0.101 -0.210 -0.208 -0.208
 0.492  1.311  0.194 -0.100 -0.209 -0.207 -0.207
 0.494  1.312  0.195 -0.099 -0.209 -0.206 -0.206
 0.496  1.313  0.196 -0.098 -0.208 -0.205 -0.205
 0.498  1.314  0.198 -0.096 -0.207 -0.204 -0.204
 0.500  1.315  0.199 -0.095 -0.206 -0.203 -0.203
 0.502  1.316  0.200 -0.094 -0.205 -0.203 -0.203
 0.504  1.317  0.201 -0.093 -0.204 -0.202 -0.202
 0.506  1.318  0.201 -0.092 -0.203 -0.201 -0.201
 0.508  1.319  0.203 -0.091 -0.203 -0.200 -0.200
 0.510  1.319  0.204 -0.090 -0.202 -0.199 -0.199
 0.512  1.320  0.205 -0.089 -0.201 -0.198 -0.198
 0.514  1.321  0.206 -0.088 -0.201 -0.197 -0.197
 0.516  1.322  0.207 -0.087 -0.200 -0.196 -0.196
 0.518  1.322  0.208 -0.086 -0.199 -0.195 -0.195
 0.520  1.323  0.209 -0.085 -0.198 -0.194 -0.194
 0.522  1.324  0.209 -0.084 -0.197 -0.194 -0.194
 0.524  1.325  0.210 -0.083 -0.197 -0.193 -0.193
 0.526  1.326  0.211 -0.083 -0.196 -0.192 -0.192
 0.528  1.326  0.212 -0.081 -0.196 -0.191 -0.191
 0.530  1.327  0.213 -0.081 -0.195 -0.190 -0.190
 0.532  1.328  0.214 -0.080 -0.194 -0.189 -0.189
 0.534  1.329  0.215 -0.079 -0.194 -0.189 -0.189
 0.536  1.329  0.216 -0.078 -0.193 -0.188 -0.188
 0.538  1.329  0.217 -0.077 -0.192 -0.187 -0.187
 0.540  1.330  0.217 -0.077 -0.192 -0.186 -0.186
 0.542  1.331  0.217 -0.076 -0.191 -0.186 -0.186
 0.544  1.332  0.218 -0.075 -0.191 -0.185 -0.185
 0.546  1.332  0.219 -0.074 -0.190 -0.184 -0.184
 0.548  1.333  0.220 -0.074 -0.190 -0.184 -0.184
 0.550  1.333  0.220 -0.073 -0.189 -0.183 -0.183
 0.552  1.333  0.221 -0.072 -0.189 -0.182 -0.182
 0.554  1.334  0.222 -0.072 -0.188 -0.181 -0.181
 0.556  1.335  0.223 -0.071 -0.188 -0.181 -0.181
 0.558  1.335  0.223 -0.070 -0.187 -0.180 -0.180
 0.560  1.336  0.224 -0.070 -0.187 -0.180 -0.180
 0.562  1.336  0.225 -0.069 -0.186 -0.179 -0.179
 0.564  1.336  0.225 -0.069 -0.186 -0.178 -0.178
 0.566  1.336  0.225 -0.068 -0.185 -0.177 -0.177
 0.568  1.337  0.226 -0.067 -0.185 -0.177 -0.177
 0.570  1.337  0.226 -0.067 -0.185 -0.176 -0.176
 0.572  1.338  0.227 -0.067 -0.184 -0.176 -0.176
 0.574  1.338  0.227 -0.066 -0.184 -0.175 -0.175
 0.576  1.338  0.228 -0.066 -0.183 -0.174 -0.174
 0.578  1.339  0.228 -0.066 -0.183 -0.174 -0.174
 0.580  1.339  0.229 -0.065 -0.183 -0.173 -0.173
 0.582  1.339  0.229 -0.065 -0.182 -0.172 -0.172
 0.584  1.340  0.230 -0.065 -0.182 -0.172 -0.172
 0.586  1.340  0.230 -0.064 -0.181 -0.171 -0.171
 0.588  1.340  0.231 -0.064 -0.181 -0.171 -0.171
 0.590  1.340  0.231 -0.063 -0.180 -0.170 -0.170
 0.592  1.340  0.231 -0.063 -0.180 -0.170 -0.170
 0.594  1.340  0.232 -0.063 -0.180 -0.169 -0.169
 0.596  1.340  0.232 -0.063 -0.180 -0.169 -0.169
 0.598  1.340  0.232 -0.062 -0.179 -0.168 -0.168
 0.600  1.340  0.232 -0.062 -0.179 -0.167 -0.167
 0.602  1.341  0.233 -0.062 -0.178 -0.167 -0.167
 0.604  1.341  0.233 -0.062 -0.178 -0.167 -0.167
 0.606  1.341  0.233 -0.062 -0.177 -0.166 -0.166
 0.608  1.341  0.233 -0.062 -0.177 -0.165 -0.165
 0.610  1.341  0.233 -0.062 -0.177 -0.165 -0.165
 0.612  1.341  0.233 -0.062 -0.176 -0.164 -0.164
 0.614  1.341  0.233 -0.062 -0.176 -0.163 -0.163
 0.616  1.341  0.233 -0.062 -0.175 -0.163 -0.163
 0.618  1.341  0.233 -0.062 -0.175 -0.162 -0.162
 0.620  1.342  0.233 -0.062 -0.175 -0.162 -0.162
 0.622  1.342  0.233 -0.062 -0.175 -0.161 -0.161
 0.624  1.342  0.232 -0.062 -0.174 -0.161 -0.161
 0.626  1.342  0.232 -0.062 -0.174 -0.160 -0.160
 0.628  1.342  0.232 -0.062 -0.174 -0.159 -0.159
 0.630  1.342  0.232 -0.062 -0.173 -0.159 -0.159
 0.632  1.341  0.231 -0.062 -0.173 -0.158 -0.158
 0.634  1.341  0.231 -0.063 -0.173 -0.157 -0.157
 0.636  1.341  0.230 -0.063 -0.172 -0.157 -0.157
 0.638  1.341  0.230 -0.063 -0.172 -0.157 -0.157
 0.640  1.341  0.230 -0.063 -0.172 -0.156 -0.156
 0.642  1.341  0.229 -0.063 -0.171 -0.155 -0.155
 0.644  1.341  0.229 -0.064 -0.171 -0.155 -0.155
 0.646  1.341  0.228 -0.064 -0.171 -0.154 -0.154
 0.648  1.341  0.227 -0.065 -0.170 -0.153 -0.153
 0.650  1.340  0.227 -0.065 -0.170 -0.153 -0.153
 0.652  1.340  0.226 -0.065 -0.170 -0.153 -0.153
 0.654  1.340  0.225 -0.065 -0.170 -0.152 -0.152
 0.656  1.340  0.225 -0.066 -0.170 -0.151 -0.151
 0.658  1.340  0.225 -0.066 -0.169 -0.151 -0.151
 0.660  1.340  0.224 -0.066 -0.169 -0.150 -0.150
 0.662  1.340  0.224 -0.066 -0.169 -0.149 -0.149
 0.664  1.340  0.223 -0.066 -0.169 -0.149 -0.149
 0.666  1.340  0.222 -0.067 -0.169 -0.148 -0.148
 0.668  1.339  0.222 -0.067 -0.169 -0.148 -0.148
 0.670  1.339  0.221 -0.067 -0.169 -0.147 -0.147
 0.672  1.338  0.220 -0.067 -0.169 -0.146 -0.146
 0.674  1.338  0.219 -0.067 -0.169 -0.145 -0.145
 0.676  1.337  0.219 -0.068 -0.169 -0.145 -0.145
 0.678  1.337  0.218 -0.068 -0.169 -0.144 -0.144
 0.680  1.336  0.217 -0.068 -0.169 -0.144 -0.144
 0.682  1.336  0.217 -0.069 -0.169 -0.143 -0.143
 0.684  1.336  0.217 -0.069 -0.169 -0.142 -0.142
 0.686  1.335  0.216 -0.069 -0.169 -0.141 -0.141
 0.688  1.335  0.216 -0.069 -0.169 -0.140 -0.140
 0.690  1.334  0.215 -0.069 -0.169 -0.139 -0.139
 0.692  1.333  0.214 -0.069 -0.169 -0.139 -0.139
 0.694  1.333  0.214 -0.069 -0.169 -0.138 -0.138
 0.696  1.333  0.213 -0.069 -0.169 -0.137 -0.137
 0.698  1.332  0.212 -0.069 -0.169 -0.136 -0.136
 0.700  1.332  0.212 -0.070 -0.170 -0.135 -0.135
 0.702  1.331  0.211 -0.070 -0.170 -0.135 -0.135
 0.704  1.330  0.210 -0.070 -0.170 -0.134 -0.134
 0.706  1.329  0.210 -0.070 -0.170 -0.133 -0.133
 0.708  1.329  0.209 -0.070 -0.170 -0.132 -0.132
 0.710  1.328  0.209 -0.070 -0.170 -0.131 -0.131
 0.712  1.327  0.208 -0.070 -0.170 -0.130 -0.130
 0.714  1.326  0.208 -0.070 -0.170 -0.130 -0.130
 0.716  1.326  0.207 -0.070 -0.170 -0.129 -0.129
 0.718  1.324  0.206 -0.070 -0.169 -0.128 -0.128
 0.720  1.323  0.205 -0.070 -0.169 -0.127 -0.127
 0.722  1.322  0.205 -0.070 -0.169 -0.126 -0.126
 0.724  1.322  0.204 -0.070 -0.169 -0.125 -0.125
 0.726  1.321  0.203 -0.070 -0.168 -0.124 -0.124
 0.728  1.320  0.203 -0.070 -0.168 -0.123 -0.123
 0.730  1.319  0.203 -0.070 -0.167 -0.122 -0.122
 0.732  1.319  0.203 -0.070 -0.166 -0.121 -0.121
 0.734  1.319  0.203 -0.070 -0.166 -0.120 -0.120
 0.736  1.319  0.203 -0.070 -0.165 -0.118 -0.118
 0.738  1.319  0.203 -0.070 -0.164 -0.117 -0.117
 0.740  1.319  0.204 -0.070 -0.164 -0.116 -0.116
 0.742  1.319  0.205 -0.071 -0.163 -0.115 -0.115
 0.744  1.319  0.206 -0.071 -0.162 -0.113 -0.113
 0.746  1.320  0.207 -0.071 -0.161 -0.112 -0.112
 0.748  1.321  0.208 -0.071 -0.160 -0.111 -0.111
 0.750  1.322  0.209 -0.071 -0.158 -0.109 -0.109
 0.752  1.323  0.210 -0.071 -0.158 -0.108 -0.108
 0.754  1.324  0.211 -0.071 -0.156 -0.106 -0.106
 0.756  1.326  0.213 -0.071 -0.155 -0.104 -0.104
 0.758  1.327  0.215 -0.071 -0.153 -0.103 -0.103
 0.760  1.329  0.217 -0.071 -0.152 -0.101 -0.101
 0.762  1.331  0.219 -0.071 -0.151 -0.099 -0.099
 0.764  1.333  0.221 -0.071 -0.149 -0.098 -0.098
 0.766  1.336  0.224 -0.071 -0.148 -0.095 -0.095
 0.768  1.338  0.226 -0.071 -0.146 -0.094 -0.094
 0.770  1.341  0.229 -0.071 -0.144 -0.092 -0.092
 0.772  1.344  0.232 -0.071 -0.143 -0.090 -0.090
 0.774  1.347  0.235 -0.071 -0.141 -0.088 -0.088
 0.776  1.350  0.239 -0.071 -0.139 -0.085 -0.085
 0.778  1.354  0.242 -0.071 -0.138 -0.084 -0.084
 0.780  1.357  0.246 -0.072 -0.136 -0.081 -0.081
 0.782  1.361  0.249 -0.072 -0.134 -0.079 -0.079
 0.784  1.364  0.253 -0.072 -0.132 -0.077 -0.077
 0.786  1.369  0.257 -0.071 -0.131 -0.075 -0.075
 0.788  1.373  0.261 -0.071 -0.129 -0.072 -0.072
 0.790  1.378  0.265 -0.071 -0.127 -0.070 -0.070
 0.792  1.382  0.270 -0.071 -0.125 -0.067 -0.067
 0.794  1.386  0.274 -0.070 -0.123 -0.065 -0.065
 0.796  1.391  0.278 -0.070 -0.121 -0.063 -0.063
 0.798  1.396  0.282 -0.070 -0.119 -0.060 -0.060
 0.800  1.400  0.287 -0.069 -0.117 -0.058 -0.058
 0.802  1.405  0.290 -0.068 -0.115 -0.056 -0.056
 0.804  1.410  0.294 -0.067 -0.114 -0.054 -0.054
 0.806  1.413  0.297 -0.066 -0.112 -0.052 -0.052
 0.808  1.417  0.301 -0.066 -0.110 -0.050 -0.050
