# IsPeriodic    : True
# Period        : 0.624410 days
# Normalization : <g_mag>=0
# 
# Phase u_mag  g_mag  r_mag  i_mag  z_mag  y_mag
 0.000  0.722 -0.429 -0.477 -0.468 -0.483 -0.483
 0.002  0.722 -0.429 -0.477 -0.468 -0.483 -0.483
 0.004  0.722 -0.428 -0.476 -0.468 -0.483 -0.483
 0.006  0.723 -0.427 -0.476 -0.468 -0.482 -0.482
 0.008  0.724 -0.426 -0.476 -0.467 -0.482 -0.482
 0.010  0.725 -0.424 -0.475 -0.466 -0.481 -0.481
 0.012  0.727 -0.423 -0.475 -0.466 -0.480 -0.480
 0.014  0.728 -0.421 -0.474 -0.465 -0.479 -0.479
 0.016  0.730 -0.418 -0.474 -0.464 -0.478 -0.478
 0.018  0.732 -0.416 -0.473 -0.463 -0.477 -0.477
 0.020  0.734 -0.413 -0.472 -0.461 -0.476 -0.476
 0.022  0.735 -0.411 -0.472 -0.460 -0.475 -0.475
 0.024  0.737 -0.408 -0.471 -0.459 -0.474 -0.474
 0.026  0.740 -0.405 -0.470 -0.457 -0.473 -0.473
 0.028  0.742 -0.403 -0.469 -0.456 -0.472 -0.472
 0.030  0.743 -0.400 -0.468 -0.455 -0.471 -0.471
 0.032  0.746 -0.397 -0.467 -0.453 -0.470 -0.470
 0.034  0.748 -0.394 -0.466 -0.451 -0.468 -0.468
 0.036  0.750 -0.392 -0.464 -0.450 -0.467 -0.467
 0.038  0.752 -0.389 -0.463 -0.448 -0.466 -0.466
 0.040  0.754 -0.386 -0.462 -0.447 -0.465 -0.465
 0.042  0.756 -0.383 -0.460 -0.446 -0.464 -0.464
 0.044  0.759 -0.379 -0.458 -0.444 -0.462 -0.462
 0.046  0.761 -0.377 -0.457 -0.442 -0.461 -0.461
 0.048  0.764 -0.373 -0.455 -0.441 -0.460 -0.460
 0.050  0.766 -0.370 -0.453 -0.439 -0.459 -0.459
 0.052  0.769 -0.366 -0.451 -0.438 -0.457 -0.457
 0.054  0.772 -0.363 -0.449 -0.437 -0.456 -0.456
 0.056  0.774 -0.360 -0.447 -0.435 -0.454 -0.454
 0.058  0.777 -0.355 -0.445 -0.434 -0.452 -0.452
 0.060  0.780 -0.352 -0.443 -0.432 -0.451 -0.451
 0.062  0.783 -0.348 -0.441 -0.431 -0.449 -0.449
 0.064  0.786 -0.344 -0.438 -0.430 -0.448 -0.448
 0.066  0.789 -0.340 -0.436 -0.428 -0.446 -0.446
 0.068  0.792 -0.336 -0.434 -0.427 -0.444 -0.444
 0.070  0.795 -0.332 -0.431 -0.426 -0.443 -0.443
 0.072  0.799 -0.327 -0.429 -0.424 -0.441 -0.441
 0.074  0.802 -0.323 -0.427 -0.423 -0.439 -0.439
 0.076  0.805 -0.319 -0.425 -0.421 -0.438 -0.438
 0.078  0.809 -0.315 -0.422 -0.420 -0.436 -0.436
 0.080  0.812 -0.310 -0.420 -0.419 -0.434 -0.434
 0.082  0.815 -0.306 -0.417 -0.417 -0.433 -0.433
 0.084  0.819 -0.302 -0.415 -0.416 -0.431 -0.431
 0.086  0.822 -0.297 -0.413 -0.415 -0.429 -0.429
 0.088  0.825 -0.293 -0.411 -0.414 -0.428 -0.428
 0.090  0.829 -0.289 -0.409 -0.412 -0.426 -0.426
 0.092  0.832 -0.285 -0.407 -0.411 -0.424 -0.424
 0.094  0.835 -0.281 -0.405 -0.410 -0.423 -0.423
 0.096  0.838 -0.277 -0.403 -0.409 -0.421 -0.421
 0.098  0.842 -0.273 -0.401 -0.407 -0.419 -0.419
 0.100  0.845 -0.269 -0.399 -0.406 -0.418 -0.418
 0.102  0.848 -0.265 -0.397 -0.405 -0.417 -0.417
 0.104  0.851 -0.261 -0.395 -0.403 -0.415 -0.415
 0.106  0.854 -0.258 -0.393 -0.402 -0.414 -0.414
 0.108  0.858 -0.254 -0.391 -0.401 -0.412 -0.412
 0.110  0.861 -0.250 -0.389 -0.400 -0.411 -0.411
 0.112  0.864 -0.247 -0.388 -0.398 -0.410 -0.410
 0.114  0.867 -0.244 -0.386 -0.397 -0.408 -0.408
 0.116  0.870 -0.240 -0.384 -0.396 -0.407 -0.407
 0.118  0.873 -0.237 -0.382 -0.395 -0.406 -0.406
 0.120  0.876 -0.234 -0.381 -0.394 -0.405 -0.405
 0.122  0.879 -0.231 -0.379 -0.392 -0.403 -0.403
 0.124  0.882 -0.228 -0.377 -0.391 -0.402 -0.402
 0.126  0.885 -0.224 -0.375 -0.390 -0.401 -0.401
 0.128  0.888 -0.222 -0.374 -0.388 -0.400 -0.400
 0.130  0.891 -0.219 -0.372 -0.387 -0.399 -0.399
 0.132  0.894 -0.216 -0.371 -0.386 -0.397 -0.397
 0.134  0.896 -0.213 -0.369 -0.385 -0.396 -0.396
 0.136  0.900 -0.211 -0.367 -0.384 -0.395 -0.395
 0.138  0.903 -0.208 -0.366 -0.382 -0.394 -0.394
 0.140  0.905 -0.205 -0.364 -0.381 -0.393 -0.393
 0.142  0.908 -0.203 -0.363 -0.380 -0.392 -0.392
 0.144  0.911 -0.201 -0.362 -0.379 -0.391 -0.391
 0.146  0.914 -0.198 -0.360 -0.377 -0.390 -0.390
 0.148  0.917 -0.196 -0.359 -0.376 -0.389 -0.389
 0.150  0.919 -0.194 -0.357 -0.375 -0.388 -0.388
 0.152  0.922 -0.192 -0.355 -0.374 -0.388 -0.388
 0.154  0.925 -0.190 -0.354 -0.373 -0.386 -0.386
 0.156  0.928 -0.187 -0.353 -0.372 -0.385 -0.385
 0.158  0.930 -0.185 -0.351 -0.370 -0.385 -0.385
 0.160  0.933 -0.183 -0.350 -0.369 -0.384 -0.384
 0.162  0.936 -0.181 -0.348 -0.368 -0.383 -0.383
 0.164  0.938 -0.179 -0.346 -0.366 -0.382 -0.382
 0.166  0.941 -0.177 -0.345 -0.365 -0.381 -0.381
 0.168  0.944 -0.175 -0.344 -0.364 -0.380 -0.380
 0.170  0.946 -0.172 -0.342 -0.363 -0.379 -0.379
 0.172  0.949 -0.170 -0.341 -0.362 -0.378 -0.378
 0.174  0.951 -0.167 -0.339 -0.361 -0.377 -0.377
 0.176  0.954 -0.165 -0.337 -0.359 -0.376 -0.376
 0.178  0.957 -0.162 -0.336 -0.358 -0.375 -0.375
 0.180  0.959 -0.160 -0.335 -0.357 -0.374 -0.374
 0.182  0.962 -0.158 -0.333 -0.356 -0.374 -0.374
 0.184  0.964 -0.155 -0.331 -0.355 -0.373 -0.373
 0.186  0.967 -0.153 -0.330 -0.354 -0.372 -0.372
 0.188  0.969 -0.150 -0.328 -0.353 -0.371 -0.371
 0.190  0.972 -0.148 -0.327 -0.352 -0.370 -0.370
 0.192  0.974 -0.145 -0.326 -0.351 -0.369 -0.369
 0.194  0.976 -0.142 -0.324 -0.350 -0.368 -0.368
 0.196  0.979 -0.140 -0.322 -0.349 -0.367 -0.367
 0.198  0.981 -0.138 -0.321 -0.348 -0.366 -0.366
 0.200  0.983 -0.135 -0.319 -0.347 -0.365 -0.365
 0.202  0.986 -0.132 -0.318 -0.346 -0.364 -0.364
 0.204  0.988 -0.130 -0.316 -0.345 -0.363 -0.363
 0.206  0.990 -0.127 -0.315 -0.344 -0.362 -0.362
 0.208  0.993 -0.125 -0.313 -0.343 -0.362 -0.362
 0.210  0.995 -0.122 -0.312 -0.342 -0.361 -0.361
 0.212  0.997 -0.119 -0.310 -0.341 -0.360 -0.360
 0.214  1.000 -0.116 -0.309 -0.340 -0.359 -0.359
 0.216  1.001 -0.113 -0.307 -0.339 -0.358 -0.358
 0.218  1.004 -0.110 -0.306 -0.338 -0.357 -0.357
 0.220  1.006 -0.108 -0.304 -0.337 -0.356 -0.356
 0.222  1.008 -0.105 -0.302 -0.336 -0.355 -0.355
 0.224  1.010 -0.102 -0.301 -0.335 -0.354 -0.354
 0.226  1.012 -0.099 -0.300 -0.335 -0.353 -0.353
 0.228  1.014 -0.096 -0.298 -0.333 -0.352 -0.352
 0.230  1.017 -0.093 -0.296 -0.333 -0.351 -0.351
 0.232  1.019 -0.091 -0.295 -0.332 -0.351 -0.351
 0.234  1.020 -0.088 -0.293 -0.331 -0.350 -0.350
 0.236  1.023 -0.085 -0.292 -0.330 -0.349 -0.349
 0.238  1.025 -0.082 -0.290 -0.329 -0.348 -0.348
 0.240  1.027 -0.080 -0.289 -0.329 -0.347 -0.347
 0.242  1.029 -0.077 -0.287 -0.328 -0.346 -0.346
 0.244  1.031 -0.074 -0.285 -0.327 -0.345 -0.345
 0.246  1.033 -0.072 -0.284 -0.326 -0.344 -0.344
 0.248  1.035 -0.069 -0.283 -0.325 -0.343 -0.343
 0.250  1.037 -0.067 -0.281 -0.324 -0.342 -0.342
 0.252  1.039 -0.064 -0.279 -0.324 -0.341 -0.341
 0.254  1.041 -0.061 -0.278 -0.322 -0.341 -0.341
 0.256  1.043 -0.059 -0.276 -0.322 -0.340 -0.340
 0.258  1.045 -0.056 -0.275 -0.321 -0.339 -0.339
 0.260  1.047 -0.054 -0.273 -0.320 -0.338 -0.338
 0.262  1.050 -0.052 -0.272 -0.319 -0.337 -0.337
 0.264  1.051 -0.049 -0.270 -0.318 -0.336 -0.336
 0.266  1.053 -0.047 -0.269 -0.317 -0.335 -0.335
 0.268  1.055 -0.044 -0.267 -0.316 -0.334 -0.334
 0.270  1.057 -0.042 -0.265 -0.315 -0.334 -0.334
 0.272  1.059 -0.040 -0.264 -0.314 -0.332 -0.332
 0.274  1.061 -0.037 -0.262 -0.313 -0.332 -0.332
 0.276  1.063 -0.035 -0.261 -0.312 -0.331 -0.331
 0.278  1.065 -0.033 -0.259 -0.312 -0.330 -0.330
 0.280  1.067 -0.031 -0.258 -0.310 -0.329 -0.329
 0.282  1.069 -0.029 -0.256 -0.309 -0.328 -0.328
 0.284  1.070 -0.026 -0.255 -0.308 -0.328 -0.328
 0.286  1.072 -0.024 -0.253 -0.307 -0.326 -0.326
 0.288  1.074 -0.022 -0.252 -0.306 -0.326 -0.326
 0.290  1.076 -0.020 -0.250 -0.305 -0.325 -0.325
 0.292  1.078 -0.018 -0.248 -0.304 -0.324 -0.324
 0.294  1.080 -0.016 -0.247 -0.303 -0.323 -0.323
 0.296  1.082 -0.015 -0.246 -0.302 -0.322 -0.322
 0.298  1.084 -0.013 -0.244 -0.301 -0.321 -0.321
 0.300  1.086 -0.011 -0.242 -0.300 -0.320 -0.320
 0.302  1.088 -0.009 -0.241 -0.299 -0.320 -0.320
 0.304  1.090 -0.007 -0.239 -0.298 -0.319 -0.319
 0.306  1.091 -0.005 -0.238 -0.296 -0.318 -0.318
 0.308  1.093 -0.003 -0.237 -0.295 -0.317 -0.317
 0.310  1.095 -0.001 -0.235 -0.294 -0.316 -0.316
 0.312  1.096  0.001 -0.233 -0.293 -0.315 -0.315
 0.314  1.098  0.003 -0.232 -0.292 -0.314 -0.314
 0.316  1.100  0.005 -0.230 -0.291 -0.314 -0.314
 0.318  1.102  0.007 -0.229 -0.290 -0.313 -0.313
 0.320  1.104  0.009 -0.228 -0.288 -0.312 -0.312
 0.322  1.106  0.011 -0.226 -0.287 -0.311 -0.311
 0.324  1.108  0.013 -0.225 -0.286 -0.310 -0.310
 0.326  1.109  0.015 -0.223 -0.285 -0.309 -0.309
 0.328  1.111  0.017 -0.222 -0.284 -0.308 -0.308
 0.330  1.113  0.019 -0.220 -0.283 -0.308 -0.308
 0.332  1.115  0.021 -0.219 -0.282 -0.307 -0.307
 0.334  1.116  0.023 -0.218 -0.281 -0.306 -0.306
 0.336  1.118  0.025 -0.216 -0.280 -0.305 -0.305
 0.338  1.120  0.027 -0.215 -0.279 -0.304 -0.304
 0.340  1.122  0.029 -0.213 -0.278 -0.303 -0.303
 0.342  1.124  0.031 -0.212 -0.277 -0.303 -0.303
 0.344  1.125  0.033 -0.211 -0.276 -0.302 -0.302
 0.346  1.127  0.035 -0.209 -0.275 -0.301 -0.301
 0.348  1.129  0.037 -0.208 -0.274 -0.300 -0.300
 0.350  1.130  0.039 -0.206 -0.273 -0.299 -0.299
 0.352  1.132  0.041 -0.205 -0.272 -0.298 -0.298
 0.354  1.134  0.043 -0.203 -0.271 -0.297 -0.297
 0.356  1.136  0.045 -0.202 -0.270 -0.297 -0.297
 0.358  1.137  0.047 -0.201 -0.269 -0.296 -0.296
 0.360  1.139  0.049 -0.199 -0.268 -0.295 -0.295
 0.362  1.141  0.051 -0.198 -0.267 -0.294 -0.294
 0.364  1.143  0.053 -0.197 -0.266 -0.293 -0.293
 0.366  1.145  0.055 -0.195 -0.265 -0.292 -0.292
 0.368  1.146  0.057 -0.194 -0.264 -0.292 -0.292
 0.370  1.148  0.059 -0.193 -0.264 -0.291 -0.291
 0.372  1.149  0.061 -0.192 -0.262 -0.290 -0.290
 0.374  1.151  0.063 -0.190 -0.262 -0.289 -0.289
 0.376  1.153  0.065 -0.189 -0.261 -0.288 -0.288
 0.378  1.154  0.067 -0.188 -0.260 -0.287 -0.287
 0.380  1.156  0.069 -0.187 -0.259 -0.286 -0.286
 0.382  1.158  0.070 -0.185 -0.258 -0.286 -0.286
 0.384  1.159  0.073 -0.184 -0.257 -0.285 -0.285
 0.386  1.161  0.075 -0.183 -0.257 -0.284 -0.284
 0.388  1.162  0.077 -0.182 -0.255 -0.283 -0.283
 0.390  1.164  0.078 -0.181 -0.255 -0.282 -0.282
 0.392  1.166  0.080 -0.180 -0.254 -0.281 -0.281
 0.394  1.167  0.082 -0.178 -0.253 -0.280 -0.280
 0.396  1.169  0.083 -0.177 -0.252 -0.280 -0.280
 0.398  1.170  0.086 -0.176 -0.251 -0.279 -0.279
 0.400  1.172  0.087 -0.175 -0.250 -0.278 -0.278
 0.402  1.174  0.089 -0.174 -0.250 -0.277 -0.277
 0.404  1.175  0.090 -0.173 -0.249 -0.276 -0.276
 0.406  1.177  0.092 -0.172 -0.248 -0.275 -0.275
 0.408  1.178  0.094 -0.171 -0.247 -0.274 -0.274
 0.410  1.180  0.096 -0.170 -0.246 -0.274 -0.274
 0.412  1.181  0.097 -0.169 -0.245 -0.272 -0.272
 0.414  1.183  0.099 -0.168 -0.244 -0.271 -0.271
 0.416  1.184  0.101 -0.167 -0.243 -0.271 -0.271
 0.418  1.185  0.102 -0.166 -0.242 -0.270 -0.270
 0.420  1.187  0.103 -0.165 -0.241 -0.269 -0.269
 0.422  1.188  0.105 -0.164 -0.240 -0.268 -0.268
 0.424  1.190  0.107 -0.163 -0.239 -0.267 -0.267
 0.426  1.191  0.108 -0.162 -0.238 -0.266 -0.266
 0.428  1.193  0.109 -0.161 -0.238 -0.265 -0.265
 0.430  1.195  0.111 -0.160 -0.236 -0.264 -0.264
 0.432  1.196  0.113 -0.159 -0.236 -0.264 -0.264
 0.434  1.197  0.114 -0.158 -0.235 -0.263 -0.263
 0.436  1.198  0.116 -0.157 -0.233 -0.261 -0.261
 0.438  1.200  0.117 -0.157 -0.233 -0.261 -0.261
 0.440  1.201  0.118 -0.156 -0.232 -0.260 -0.260
 0.442  1.203  0.120 -0.155 -0.231 -0.259 -0.259
 0.444  1.204  0.121 -0.154 -0.230 -0.258 -0.258
 0.446  1.205  0.122 -0.153 -0.229 -0.257 -0.257
 0.448  1.206  0.124 -0.152 -0.228 -0.256 -0.256
 0.450  1.208  0.125 -0.151 -0.227 -0.255 -0.255
 0.452  1.209  0.126 -0.150 -0.226 -0.254 -0.254
 0.454  1.211  0.127 -0.149 -0.225 -0.254 -0.254
 0.456  1.212  0.129 -0.148 -0.224 -0.253 -0.253
 0.458  1.213  0.130 -0.148 -0.223 -0.252 -0.252
 0.460  1.214  0.131 -0.147 -0.222 -0.251 -0.251
 0.462  1.216  0.132 -0.146 -0.221 -0.250 -0.250
 0.464  1.217  0.133 -0.145 -0.220 -0.249 -0.249
 0.466  1.217  0.135 -0.144 -0.219 -0.249 -0.249
 0.468  1.219  0.135 -0.143 -0.218 -0.248 -0.248
 0.470  1.220  0.137 -0.142 -0.217 -0.247 -0.247
 0.472  1.221  0.137 -0.141 -0.216 -0.246 -0.246
 0.474  1.222  0.139 -0.140 -0.216 -0.245 -0.245
 0.476  1.224  0.139 -0.139 -0.215 -0.244 -0.244
 0.478  1.224  0.141 -0.138 -0.214 -0.244 -0.244
 0.480  1.225  0.141 -0.137 -0.213 -0.243 -0.243
 0.482  1.227  0.143 -0.136 -0.212 -0.242 -0.242
 0.484  1.227  0.144 -0.135 -0.212 -0.241 -0.241
 0.486  1.228  0.144 -0.134 -0.210 -0.241 -0.241
 0.488  1.230  0.145 -0.133 -0.210 -0.240 -0.240
 0.490  1.230  0.146 -0.133 -0.209 -0.239 -0.239
 0.492  1.232  0.147 -0.132 -0.208 -0.238 -0.238
 0.494  1.232  0.148 -0.131 -0.207 -0.238 -0.238
 0.496  1.233  0.148 -0.130 -0.207 -0.237 -0.237
 0.498  1.234  0.149 -0.129 -0.206 -0.236 -0.236
 0.500  1.235  0.150 -0.128 -0.205 -0.235 -0.235
 0.502  1.236  0.150 -0.127 -0.205 -0.234 -0.234
 0.504  1.237  0.151 -0.126 -0.204 -0.234 -0.234
 0.506  1.238  0.152 -0.126 -0.203 -0.233 -0.233
 0.508  1.238  0.152 -0.125 -0.203 -0.232 -0.232
 0.510  1.240  0.153 -0.124 -0.202 -0.232 -0.232
 0.512  1.240  0.154 -0.123 -0.201 -0.231 -0.231
 0.514  1.241  0.154 -0.122 -0.201 -0.230 -0.230
 0.516  1.242  0.155 -0.122 -0.200 -0.230 -0.230
 0.518  1.243  0.156 -0.121 -0.200 -0.229 -0.229
 0.520  1.243  0.156 -0.120 -0.199 -0.228 -0.228
 0.522  1.244  0.156 -0.119 -0.198 -0.228 -0.228
 0.524  1.245  0.157 -0.118 -0.198 -0.227 -0.227
 0.526  1.246  0.158 -0.118 -0.197 -0.226 -0.226
 0.528  1.246  0.159 -0.117 -0.197 -0.226 -0.226
 0.530  1.247  0.159 -0.116 -0.196 -0.225 -0.225
 0.532  1.248  0.159 -0.115 -0.196 -0.225 -0.225
 0.534  1.248  0.160 -0.115 -0.195 -0.224 -0.224
 0.536  1.249  0.161 -0.114 -0.195 -0.223 -0.223
 0.538  1.249  0.161 -0.113 -0.194 -0.223 -0.223
 0.540  1.250  0.161 -0.113 -0.194 -0.222 -0.222
 0.542  1.251  0.162 -0.112 -0.193 -0.222 -0.222
 0.544  1.251  0.163 -0.112 -0.193 -0.221 -0.221
 0.546  1.251  0.163 -0.111 -0.192 -0.221 -0.221
 0.548  1.252  0.163 -0.110 -0.192 -0.220 -0.220
 0.550  1.253  0.164 -0.110 -0.191 -0.220 -0.220
 0.552  1.253  0.165 -0.109 -0.191 -0.219 -0.219
 0.554  1.253  0.165 -0.108 -0.191 -0.219 -0.219
 0.556  1.254  0.165 -0.108 -0.190 -0.218 -0.218
 0.558  1.254  0.166 -0.107 -0.190 -0.218 -0.218
 0.560  1.254  0.166 -0.106 -0.189 -0.217 -0.217
 0.562  1.255  0.167 -0.106 -0.189 -0.217 -0.217
 0.564  1.256  0.167 -0.105 -0.188 -0.216 -0.216
 0.566  1.256  0.167 -0.105 -0.188 -0.216 -0.216
 0.568  1.256  0.168 -0.104 -0.188 -0.216 -0.216
 0.570  1.256  0.169 -0.104 -0.187 -0.215 -0.215
 0.572  1.257  0.169 -0.104 -0.187 -0.215 -0.215
 0.574  1.257  0.169 -0.103 -0.187 -0.214 -0.214
 0.576  1.257  0.170 -0.103 -0.186 -0.214 -0.214
 0.578  1.257  0.170 -0.102 -0.186 -0.214 -0.214
 0.580  1.258  0.171 -0.102 -0.186 -0.213 -0.213
 0.582  1.258  0.171 -0.101 -0.185 -0.213 -0.213
 0.584  1.258  0.172 -0.101 -0.185 -0.212 -0.212
 0.586  1.259  0.172 -0.101 -0.184 -0.212 -0.212
 0.588  1.259  0.172 -0.100 -0.184 -0.212 -0.212
 0.590  1.259  0.172 -0.100 -0.184 -0.211 -0.211
 0.592  1.259  0.173 -0.099 -0.183 -0.211 -0.211
 0.594  1.259  0.173 -0.099 -0.183 -0.211 -0.211
 0.596  1.259  0.174 -0.099 -0.183 -0.210 -0.210
 0.598  1.259  0.174 -0.098 -0.183 -0.210 -0.210
 0.600  1.259  0.174 -0.098 -0.182 -0.209 -0.209
 0.602  1.259  0.174 -0.098 -0.182 -0.209 -0.209
 0.604  1.260  0.174 -0.098 -0.181 -0.209 -0.209
 0.606  1.260  0.174 -0.097 -0.181 -0.208 -0.208
 0.608  1.260  0.174 -0.097 -0.181 -0.208 -0.208
 0.610  1.260  0.175 -0.097 -0.181 -0.208 -0.208
 0.612  1.260  0.175 -0.097 -0.180 -0.207 -0.207
 0.614  1.260  0.175 -0.097 -0.180 -0.207 -0.207
 0.616  1.260  0.175 -0.097 -0.180 -0.206 -0.206
 0.618  1.260  0.176 -0.096 -0.180 -0.206 -0.206
 0.620  1.260  0.176 -0.096 -0.179 -0.205 -0.205
 0.622  1.260  0.176 -0.096 -0.179 -0.205 -0.205
 0.624  1.260  0.176 -0.096 -0.179 -0.205 -0.205
 0.626  1.260  0.176 -0.096 -0.178 -0.204 -0.204
 0.628  1.259  0.176 -0.096 -0.178 -0.204 -0.204
 0.630  1.259  0.176 -0.096 -0.177 -0.204 -0.204
 0.632  1.259  0.176 -0.096 -0.177 -0.203 -0.203
 0.634  1.259  0.176 -0.096 -0.177 -0.203 -0.203
 0.636  1.259  0.176 -0.096 -0.177 -0.202 -0.202
 0.638  1.259  0.176 -0.096 -0.176 -0.202 -0.202
 0.640  1.259  0.176 -0.096 -0.176 -0.201 -0.201
 0.642  1.259  0.175 -0.096 -0.176 -0.201 -0.201
 0.644  1.258  0.175 -0.096 -0.175 -0.201 -0.201
 0.646  1.258  0.175 -0.096 -0.175 -0.200 -0.200
 0.648  1.258  0.175 -0.096 -0.175 -0.200 -0.200
 0.650  1.257  0.175 -0.096 -0.174 -0.199 -0.199
 0.652  1.257  0.175 -0.096 -0.174 -0.199 -0.199
 0.654  1.257  0.174 -0.095 -0.174 -0.199 -0.199
 0.656  1.257  0.174 -0.095 -0.173 -0.198 -0.198
 0.658  1.257  0.174 -0.095 -0.173 -0.198 -0.198
 0.660  1.257  0.174 -0.095 -0.173 -0.198 -0.198
 0.662  1.257  0.174 -0.095 -0.172 -0.197 -0.197
 0.664  1.256  0.174 -0.094 -0.172 -0.197 -0.197
 0.666  1.256  0.174 -0.094 -0.172 -0.197 -0.197
 0.668  1.256  0.174 -0.093 -0.171 -0.196 -0.196
 0.670  1.256  0.173 -0.093 -0.171 -0.196 -0.196
 0.672  1.256  0.173 -0.092 -0.170 -0.196 -0.196
 0.674  1.256  0.173 -0.092 -0.170 -0.196 -0.196
 0.676  1.256  0.173 -0.091 -0.169 -0.195 -0.195
 0.678  1.256  0.172 -0.090 -0.169 -0.195 -0.195
 0.680  1.256  0.172 -0.090 -0.168 -0.195 -0.195
 0.682  1.256  0.172 -0.089 -0.168 -0.195 -0.195
 0.684  1.256  0.172 -0.088 -0.167 -0.195 -0.195
 0.686  1.256  0.172 -0.087 -0.166 -0.195 -0.195
 0.688  1.256  0.172 -0.087 -0.166 -0.194 -0.194
 0.690  1.256  0.172 -0.086 -0.165 -0.194 -0.194
 0.692  1.256  0.172 -0.085 -0.164 -0.194 -0.194
 0.694  1.256  0.172 -0.085 -0.164 -0.194 -0.194
 0.696  1.256  0.172 -0.084 -0.162 -0.194 -0.194
 0.698  1.256  0.172 -0.083 -0.162 -0.194 -0.194
 0.700  1.256  0.172 -0.082 -0.161 -0.194 -0.194
 0.702  1.256  0.172 -0.081 -0.160 -0.194 -0.194
 0.704  1.256  0.171 -0.079 -0.159 -0.194 -0.194
 0.706  1.257  0.171 -0.078 -0.158 -0.194 -0.194
 0.708  1.257  0.171 -0.077 -0.157 -0.194 -0.194
 0.710  1.257  0.171 -0.077 -0.156 -0.194 -0.194
 0.712  1.257  0.171 -0.075 -0.154 -0.194 -0.194
 0.714  1.257  0.170 -0.074 -0.153 -0.194 -0.194
 0.716  1.257  0.170 -0.073 -0.152 -0.194 -0.194
 0.718  1.257  0.170 -0.071 -0.151 -0.194 -0.194
 0.720  1.257  0.170 -0.070 -0.150 -0.194 -0.194
 0.722  1.258  0.170 -0.069 -0.149 -0.194 -0.194
 0.724  1.259  0.170 -0.068 -0.147 -0.194 -0.194
 0.726  1.259  0.170 -0.066 -0.146 -0.194 -0.194
 0.728  1.259  0.170 -0.065 -0.144 -0.194 -0.194
 0.730  1.260  0.170 -0.063 -0.143 -0.194 -0.194
 0.732  1.261  0.171 -0.062 -0.141 -0.193 -0.193
 0.734  1.261  0.171 -0.060 -0.140 -0.193 -0.193
 0.736  1.262  0.172 -0.059 -0.138 -0.193 -0.193
 0.738  1.263  0.172 -0.057 -0.137 -0.192 -0.192
 0.740  1.264  0.173 -0.055 -0.135 -0.192 -0.192
 0.742  1.266  0.174 -0.053 -0.134 -0.191 -0.191
 0.744  1.266  0.175 -0.052 -0.132 -0.191 -0.191
 0.746  1.267  0.176 -0.050 -0.131 -0.190 -0.190
 0.748  1.269  0.177 -0.048 -0.129 -0.189 -0.189
 0.750  1.270  0.178 -0.046 -0.128 -0.189 -0.189
 0.752  1.272  0.179 -0.044 -0.127 -0.188 -0.188
 0.754  1.273  0.180 -0.042 -0.125 -0.187 -0.187
 0.756  1.275  0.182 -0.041 -0.124 -0.187 -0.187
 0.758  1.276  0.184 -0.039 -0.123 -0.185 -0.185
 0.760  1.278  0.185 -0.037 -0.121 -0.185 -0.185
 0.762  1.280  0.187 -0.034 -0.120 -0.184 -0.184
 0.764  1.282  0.189 -0.032 -0.119 -0.183 -0.183
 0.766  1.283  0.191 -0.030 -0.118 -0.182 -0.182
 0.768  1.286  0.193 -0.028 -0.117 -0.181 -0.181
 0.770  1.288  0.195 -0.026 -0.116 -0.179 -0.179
 0.772  1.290  0.198 -0.023 -0.114 -0.178 -0.178
 0.774  1.293  0.200 -0.021 -0.113 -0.177 -0.177
 0.776  1.295  0.203 -0.019 -0.113 -0.175 -0.175
 0.778  1.298  0.206 -0.016 -0.112 -0.174 -0.174
 0.780  1.301  0.208 -0.014 -0.111 -0.172 -0.172
 0.782  1.303  0.212 -0.012 -0.110 -0.171 -0.171
 0.784  1.306  0.215 -0.010 -0.109 -0.170 -0.170
 0.786  1.309  0.217 -0.008 -0.109 -0.168 -0.168
 0.788  1.312  0.221 -0.007 -0.108 -0.166 -0.166
 0.790  1.314  0.224 -0.005 -0.107 -0.165 -0.165
 0.792  1.317  0.227 -0.005 -0.106 -0.163 -0.163
 0.794  1.320  0.230 -0.004 -0.106 -0.161 -0.161
 0.796  1.322  0.233 -0.003 -0.105 -0.160 -0.160
 0.798  1.325  0.236 -0.003 -0.104 -0.159 -0.159
 0.800  1.327  0.239 -0.003 -0.103 -0.157 -0.157
 0.802  1.329  0.242 -0.004 -0.103 -0.155 -0.155
 0.804  1.331  0.245 -0.004 -0.102 -0.154 -0.154
 0.806  1.333  0.247 -0.005 -0.102 -0.152 -0.152
 0.808  1.334  0.249 -0.006 -0.102 -0.151 -0.151
