# IsPeriodic    : True
# Period        : 0.622184 days
# Normalization : <g_mag>=0
# 
# Phase u_mag  g_mag  r_mag  i_mag  z_mag  y_mag
 0.000  0.513 -0.637 -0.615 -0.522 -0.556 -0.556
 0.002  0.513 -0.637 -0.615 -0.522 -0.556 -0.556
 0.004  0.513 -0.637 -0.615 -0.521 -0.555 -0.555
 0.006  0.514 -0.636 -0.615 -0.521 -0.554 -0.554
 0.008  0.514 -0.635 -0.614 -0.520 -0.553 -0.553
 0.010  0.516 -0.633 -0.613 -0.519 -0.551 -0.551
 0.012  0.517 -0.632 -0.613 -0.518 -0.549 -0.549
 0.014  0.519 -0.630 -0.612 -0.517 -0.547 -0.547
 0.016  0.520 -0.628 -0.611 -0.515 -0.545 -0.545
 0.018  0.523 -0.626 -0.610 -0.514 -0.543 -0.543
 0.020  0.526 -0.622 -0.609 -0.512 -0.540 -0.540
 0.022  0.527 -0.620 -0.607 -0.511 -0.537 -0.537
 0.024  0.530 -0.617 -0.606 -0.509 -0.535 -0.535
 0.026  0.533 -0.614 -0.604 -0.507 -0.532 -0.532
 0.028  0.536 -0.611 -0.602 -0.506 -0.530 -0.530
 0.030  0.538 -0.608 -0.600 -0.504 -0.527 -0.527
 0.032  0.542 -0.605 -0.598 -0.503 -0.525 -0.525
 0.034  0.545 -0.602 -0.596 -0.501 -0.522 -0.522
 0.036  0.549 -0.599 -0.594 -0.500 -0.520 -0.520
 0.038  0.552 -0.595 -0.591 -0.498 -0.518 -0.518
 0.040  0.556 -0.592 -0.589 -0.497 -0.516 -0.516
 0.042  0.560 -0.588 -0.586 -0.496 -0.513 -0.513
 0.044  0.564 -0.584 -0.583 -0.494 -0.512 -0.512
 0.046  0.569 -0.580 -0.580 -0.493 -0.510 -0.510
 0.048  0.573 -0.576 -0.577 -0.491 -0.507 -0.507
 0.050  0.577 -0.571 -0.573 -0.489 -0.505 -0.505
 0.052  0.582 -0.567 -0.570 -0.487 -0.503 -0.503
 0.054  0.587 -0.562 -0.566 -0.486 -0.501 -0.501
 0.056  0.593 -0.557 -0.563 -0.484 -0.498 -0.498
 0.058  0.598 -0.552 -0.558 -0.482 -0.496 -0.496
 0.060  0.603 -0.546 -0.554 -0.480 -0.494 -0.494
 0.062  0.609 -0.540 -0.550 -0.478 -0.492 -0.492
 0.064  0.615 -0.535 -0.546 -0.476 -0.489 -0.489
 0.066  0.620 -0.529 -0.542 -0.474 -0.487 -0.487
 0.068  0.627 -0.523 -0.537 -0.472 -0.485 -0.485
 0.070  0.633 -0.517 -0.532 -0.470 -0.483 -0.483
 0.072  0.639 -0.511 -0.528 -0.469 -0.480 -0.480
 0.074  0.646 -0.505 -0.523 -0.466 -0.478 -0.478
 0.076  0.652 -0.499 -0.518 -0.465 -0.476 -0.476
 0.078  0.659 -0.493 -0.513 -0.463 -0.474 -0.474
 0.080  0.665 -0.487 -0.509 -0.460 -0.472 -0.472
 0.082  0.672 -0.481 -0.504 -0.459 -0.470 -0.470
 0.084  0.678 -0.475 -0.499 -0.456 -0.468 -0.468
 0.086  0.684 -0.469 -0.495 -0.455 -0.466 -0.466
 0.088  0.690 -0.463 -0.490 -0.452 -0.464 -0.464
 0.090  0.696 -0.456 -0.487 -0.451 -0.462 -0.462
 0.092  0.702 -0.450 -0.482 -0.449 -0.460 -0.460
 0.094  0.708 -0.444 -0.478 -0.446 -0.458 -0.458
 0.096  0.713 -0.439 -0.474 -0.445 -0.456 -0.456
 0.098  0.719 -0.433 -0.470 -0.443 -0.454 -0.454
 0.100  0.724 -0.428 -0.467 -0.441 -0.452 -0.452
 0.102  0.729 -0.422 -0.463 -0.439 -0.450 -0.450
 0.104  0.734 -0.417 -0.459 -0.437 -0.448 -0.448
 0.106  0.740 -0.411 -0.456 -0.435 -0.446 -0.446
 0.108  0.745 -0.406 -0.452 -0.433 -0.444 -0.444
 0.110  0.750 -0.401 -0.449 -0.431 -0.443 -0.443
 0.112  0.755 -0.395 -0.446 -0.429 -0.441 -0.441
 0.114  0.759 -0.390 -0.442 -0.427 -0.439 -0.439
 0.116  0.765 -0.385 -0.439 -0.425 -0.437 -0.437
 0.118  0.769 -0.380 -0.436 -0.424 -0.435 -0.435
 0.120  0.774 -0.374 -0.433 -0.422 -0.434 -0.434
 0.122  0.778 -0.369 -0.430 -0.420 -0.432 -0.432
 0.124  0.783 -0.364 -0.427 -0.418 -0.430 -0.430
 0.126  0.787 -0.359 -0.424 -0.416 -0.429 -0.429
 0.128  0.791 -0.355 -0.421 -0.414 -0.427 -0.427
 0.130  0.796 -0.350 -0.419 -0.413 -0.426 -0.426
 0.132  0.799 -0.345 -0.416 -0.411 -0.424 -0.424
 0.134  0.803 -0.341 -0.414 -0.409 -0.422 -0.422
 0.136  0.807 -0.336 -0.411 -0.407 -0.421 -0.421
 0.138  0.811 -0.332 -0.409 -0.406 -0.419 -0.419
 0.140  0.814 -0.327 -0.407 -0.404 -0.418 -0.418
 0.142  0.818 -0.323 -0.405 -0.402 -0.416 -0.416
 0.144  0.821 -0.319 -0.403 -0.400 -0.415 -0.415
 0.146  0.825 -0.314 -0.400 -0.399 -0.413 -0.413
 0.148  0.828 -0.310 -0.398 -0.397 -0.412 -0.412
 0.150  0.832 -0.306 -0.396 -0.395 -0.411 -0.411
 0.152  0.835 -0.302 -0.394 -0.393 -0.409 -0.409
 0.154  0.839 -0.298 -0.391 -0.391 -0.408 -0.408
 0.156  0.842 -0.292 -0.389 -0.390 -0.406 -0.406
 0.158  0.845 -0.288 -0.387 -0.388 -0.405 -0.405
 0.160  0.849 -0.284 -0.385 -0.386 -0.403 -0.403
 0.162  0.851 -0.280 -0.382 -0.384 -0.402 -0.402
 0.164  0.855 -0.276 -0.380 -0.383 -0.400 -0.400
 0.166  0.858 -0.272 -0.378 -0.381 -0.399 -0.399
 0.168  0.862 -0.268 -0.376 -0.380 -0.398 -0.398
 0.170  0.865 -0.264 -0.373 -0.378 -0.397 -0.397
 0.172  0.869 -0.260 -0.370 -0.376 -0.395 -0.395
 0.174  0.872 -0.255 -0.368 -0.375 -0.394 -0.394
 0.176  0.875 -0.251 -0.366 -0.373 -0.393 -0.393
 0.178  0.878 -0.247 -0.363 -0.371 -0.391 -0.391
 0.180  0.882 -0.243 -0.361 -0.370 -0.390 -0.390
 0.182  0.885 -0.239 -0.359 -0.368 -0.388 -0.388
 0.184  0.888 -0.235 -0.356 -0.366 -0.386 -0.386
 0.186  0.892 -0.231 -0.353 -0.365 -0.385 -0.385
 0.188  0.895 -0.227 -0.350 -0.363 -0.384 -0.384
 0.190  0.898 -0.224 -0.348 -0.362 -0.382 -0.382
 0.192  0.901 -0.220 -0.345 -0.360 -0.381 -0.381
 0.194  0.905 -0.216 -0.343 -0.358 -0.380 -0.380
 0.196  0.908 -0.211 -0.340 -0.357 -0.378 -0.378
 0.198  0.912 -0.207 -0.337 -0.355 -0.376 -0.376
 0.200  0.915 -0.203 -0.335 -0.354 -0.375 -0.375
 0.202  0.918 -0.199 -0.332 -0.352 -0.373 -0.373
 0.204  0.921 -0.195 -0.329 -0.351 -0.372 -0.372
 0.206  0.925 -0.192 -0.327 -0.349 -0.371 -0.371
 0.208  0.928 -0.188 -0.324 -0.348 -0.369 -0.369
 0.210  0.931 -0.184 -0.321 -0.346 -0.368 -0.368
 0.212  0.934 -0.180 -0.318 -0.344 -0.366 -0.366
 0.214  0.937 -0.176 -0.315 -0.343 -0.364 -0.364
 0.216  0.941 -0.173 -0.312 -0.341 -0.363 -0.363
 0.218  0.944 -0.169 -0.309 -0.340 -0.362 -0.362
 0.220  0.947 -0.165 -0.306 -0.338 -0.360 -0.360
 0.222  0.950 -0.161 -0.303 -0.337 -0.358 -0.358
 0.224  0.954 -0.158 -0.300 -0.335 -0.357 -0.357
 0.226  0.956 -0.154 -0.298 -0.334 -0.355 -0.355
 0.228  0.960 -0.150 -0.295 -0.332 -0.354 -0.354
 0.230  0.963 -0.147 -0.293 -0.331 -0.353 -0.353
 0.232  0.966 -0.143 -0.290 -0.330 -0.351 -0.351
 0.234  0.969 -0.140 -0.288 -0.328 -0.349 -0.349
 0.236  0.972 -0.136 -0.285 -0.326 -0.348 -0.348
 0.238  0.975 -0.132 -0.283 -0.325 -0.347 -0.347
 0.240  0.978 -0.128 -0.280 -0.323 -0.345 -0.345
 0.242  0.981 -0.125 -0.277 -0.322 -0.344 -0.344
 0.244  0.984 -0.121 -0.275 -0.320 -0.342 -0.342
 0.246  0.986 -0.118 -0.273 -0.318 -0.340 -0.340
 0.248  0.990 -0.114 -0.271 -0.317 -0.339 -0.339
 0.250  0.992 -0.111 -0.268 -0.316 -0.338 -0.338
 0.252  0.995 -0.107 -0.265 -0.314 -0.336 -0.336
 0.254  0.998 -0.104 -0.263 -0.313 -0.335 -0.335
 0.256  1.001 -0.101 -0.261 -0.311 -0.334 -0.334
 0.258  1.004 -0.097 -0.259 -0.309 -0.332 -0.332
 0.260  1.006 -0.094 -0.257 -0.308 -0.331 -0.331
 0.262  1.009 -0.091 -0.254 -0.306 -0.329 -0.329
 0.264  1.012 -0.088 -0.253 -0.304 -0.328 -0.328
 0.266  1.015 -0.084 -0.251 -0.303 -0.326 -0.326
 0.268  1.017 -0.081 -0.248 -0.302 -0.325 -0.325
 0.270  1.020 -0.078 -0.246 -0.300 -0.324 -0.324
 0.272  1.023 -0.075 -0.245 -0.299 -0.322 -0.322
 0.274  1.025 -0.072 -0.242 -0.297 -0.321 -0.321
 0.276  1.028 -0.068 -0.241 -0.295 -0.320 -0.320
 0.278  1.030 -0.065 -0.239 -0.293 -0.318 -0.318
 0.280  1.033 -0.062 -0.237 -0.292 -0.317 -0.317
 0.282  1.035 -0.059 -0.235 -0.290 -0.316 -0.316
 0.284  1.037 -0.056 -0.233 -0.289 -0.314 -0.314
 0.286  1.040 -0.053 -0.231 -0.287 -0.313 -0.313
 0.288  1.042 -0.049 -0.230 -0.286 -0.312 -0.312
 0.290  1.045 -0.046 -0.228 -0.284 -0.311 -0.311
 0.292  1.047 -0.043 -0.226 -0.282 -0.310 -0.310
 0.294  1.050 -0.040 -0.224 -0.281 -0.308 -0.308
 0.296  1.052 -0.037 -0.222 -0.279 -0.307 -0.307
 0.298  1.054 -0.034 -0.221 -0.278 -0.306 -0.306
 0.300  1.057 -0.031 -0.219 -0.276 -0.305 -0.305
 0.302  1.059 -0.028 -0.217 -0.275 -0.304 -0.304
 0.304  1.061 -0.025 -0.216 -0.273 -0.303 -0.303
 0.306  1.064 -0.022 -0.213 -0.271 -0.301 -0.301
 0.308  1.066 -0.019 -0.212 -0.270 -0.300 -0.300
 0.310  1.069 -0.016 -0.210 -0.268 -0.299 -0.299
 0.312  1.071 -0.013 -0.208 -0.266 -0.298 -0.298
 0.314  1.073 -0.010 -0.206 -0.265 -0.296 -0.296
 0.316  1.076 -0.007 -0.204 -0.264 -0.295 -0.295
 0.318  1.078 -0.004 -0.202 -0.262 -0.294 -0.294
 0.320  1.080  0.000 -0.200 -0.261 -0.293 -0.293
 0.322  1.083  0.003 -0.198 -0.259 -0.291 -0.291
 0.324  1.085  0.006 -0.196 -0.258 -0.290 -0.290
 0.326  1.087  0.009 -0.194 -0.256 -0.289 -0.289
 0.328  1.090  0.012 -0.192 -0.255 -0.287 -0.287
 0.330  1.092  0.015 -0.190 -0.253 -0.286 -0.286
 0.332  1.095  0.018 -0.188 -0.252 -0.285 -0.285
 0.334  1.096  0.021 -0.186 -0.250 -0.284 -0.284
 0.336  1.099  0.025 -0.184 -0.249 -0.282 -0.282
 0.338  1.102  0.028 -0.182 -0.247 -0.281 -0.281
 0.340  1.103  0.032 -0.180 -0.246 -0.280 -0.280
 0.342  1.106  0.035 -0.178 -0.244 -0.278 -0.278
 0.344  1.108  0.038 -0.175 -0.243 -0.277 -0.277
 0.346  1.110  0.041 -0.173 -0.241 -0.276 -0.276
 0.348  1.113  0.045 -0.171 -0.240 -0.275 -0.275
 0.350  1.115  0.048 -0.169 -0.238 -0.273 -0.273
 0.352  1.117  0.051 -0.167 -0.237 -0.272 -0.272
 0.354  1.120  0.054 -0.165 -0.236 -0.271 -0.271
 0.356  1.121  0.057 -0.163 -0.234 -0.269 -0.269
 0.358  1.124  0.061 -0.160 -0.233 -0.268 -0.268
 0.360  1.126  0.064 -0.158 -0.231 -0.267 -0.267
 0.362  1.128  0.067 -0.156 -0.230 -0.266 -0.266
 0.364  1.131  0.070 -0.154 -0.229 -0.264 -0.264
 0.366  1.133  0.073 -0.152 -0.227 -0.263 -0.263
 0.368  1.135  0.076 -0.149 -0.226 -0.262 -0.262
 0.370  1.137  0.079 -0.147 -0.225 -0.260 -0.260
 0.372  1.139  0.082 -0.145 -0.223 -0.259 -0.259
 0.374  1.141  0.085 -0.143 -0.222 -0.258 -0.258
 0.376  1.144  0.088 -0.140 -0.220 -0.256 -0.256
 0.378  1.145  0.091 -0.139 -0.219 -0.255 -0.255
 0.380  1.148  0.094 -0.137 -0.218 -0.253 -0.253
 0.382  1.150  0.097 -0.134 -0.216 -0.252 -0.252
 0.384  1.152  0.100 -0.132 -0.215 -0.251 -0.251
 0.386  1.154  0.102 -0.131 -0.214 -0.249 -0.249
 0.388  1.157  0.105 -0.128 -0.212 -0.248 -0.248
 0.390  1.158  0.108 -0.126 -0.211 -0.247 -0.247
 0.392  1.161  0.110 -0.124 -0.209 -0.245 -0.245
 0.394  1.163  0.114 -0.122 -0.208 -0.244 -0.244
 0.396  1.165  0.117 -0.120 -0.207 -0.243 -0.243
 0.398  1.167  0.119 -0.118 -0.205 -0.241 -0.241
 0.400  1.170  0.122 -0.116 -0.204 -0.240 -0.240
 0.402  1.171  0.124 -0.114 -0.202 -0.239 -0.239
 0.404  1.174  0.127 -0.112 -0.201 -0.237 -0.237
 0.406  1.176  0.129 -0.111 -0.199 -0.236 -0.236
 0.408  1.177  0.131 -0.108 -0.198 -0.235 -0.235
 0.410  1.180  0.134 -0.106 -0.197 -0.234 -0.234
 0.412  1.182  0.136 -0.105 -0.195 -0.232 -0.232
 0.414  1.183  0.138 -0.102 -0.194 -0.231 -0.231
 0.416  1.186  0.140 -0.101 -0.192 -0.230 -0.230
 0.418  1.188  0.142 -0.099 -0.191 -0.228 -0.228
 0.420  1.190  0.144 -0.097 -0.189 -0.227 -0.227
 0.422  1.192  0.147 -0.095 -0.188 -0.226 -0.226
 0.424  1.194  0.149 -0.093 -0.186 -0.225 -0.225
 0.426  1.196  0.151 -0.091 -0.185 -0.223 -0.223
 0.428  1.198  0.153 -0.090 -0.184 -0.222 -0.222
 0.430  1.200  0.154 -0.087 -0.182 -0.221 -0.221
 0.432  1.201  0.156 -0.086 -0.181 -0.219 -0.219
 0.434  1.204  0.158 -0.084 -0.179 -0.218 -0.218
 0.436  1.206  0.160 -0.082 -0.178 -0.217 -0.217
 0.438  1.207  0.162 -0.081 -0.176 -0.216 -0.216
 0.440  1.209  0.164 -0.079 -0.175 -0.214 -0.214
 0.442  1.212  0.165 -0.078 -0.174 -0.213 -0.213
 0.444  1.213  0.167 -0.076 -0.172 -0.212 -0.212
 0.446  1.215  0.169 -0.074 -0.171 -0.211 -0.211
 0.448  1.217  0.171 -0.073 -0.169 -0.209 -0.209
 0.450  1.219  0.172 -0.071 -0.168 -0.208 -0.208
 0.452  1.220  0.174 -0.070 -0.167 -0.207 -0.207
 0.454  1.222  0.176 -0.068 -0.166 -0.206 -0.206
 0.456  1.224  0.177 -0.067 -0.164 -0.205 -0.205
 0.458  1.225  0.179 -0.065 -0.163 -0.203 -0.203
 0.460  1.227  0.180 -0.064 -0.162 -0.202 -0.202
 0.462  1.229  0.182 -0.062 -0.161 -0.201 -0.201
 0.464  1.231  0.184 -0.061 -0.159 -0.200 -0.200
 0.466  1.232  0.185 -0.059 -0.158 -0.199 -0.199
 0.468  1.234  0.187 -0.058 -0.157 -0.198 -0.198
 0.470  1.236  0.188 -0.057 -0.156 -0.196 -0.196
 0.472  1.237  0.189 -0.055 -0.154 -0.195 -0.195
 0.474  1.239  0.191 -0.054 -0.153 -0.194 -0.194
 0.476  1.241  0.193 -0.052 -0.152 -0.193 -0.193
 0.478  1.242  0.195 -0.052 -0.151 -0.192 -0.192
 0.480  1.243  0.196 -0.050 -0.150 -0.191 -0.191
 0.482  1.245  0.197 -0.049 -0.149 -0.190 -0.190
 0.484  1.247  0.199 -0.048 -0.148 -0.189 -0.189
 0.486  1.248  0.200 -0.046 -0.147 -0.187 -0.187
 0.488  1.250  0.201 -0.046 -0.145 -0.186 -0.186
 0.490  1.251  0.203 -0.044 -0.144 -0.185 -0.185
 0.492  1.252  0.204 -0.044 -0.143 -0.184 -0.184
 0.494  1.254  0.205 -0.043 -0.143 -0.183 -0.183
 0.496  1.256  0.206 -0.041 -0.141 -0.182 -0.182
 0.498  1.256  0.207 -0.041 -0.140 -0.181 -0.181
 0.500  1.258  0.208 -0.040 -0.140 -0.180 -0.180
 0.502  1.259  0.210 -0.038 -0.138 -0.178 -0.178
 0.504  1.261  0.211 -0.038 -0.137 -0.177 -0.177
 0.506  1.262  0.212 -0.037 -0.137 -0.176 -0.176
 0.508  1.263  0.213 -0.035 -0.136 -0.175 -0.175
 0.510  1.264  0.214 -0.035 -0.134 -0.174 -0.174
 0.512  1.266  0.215 -0.034 -0.134 -0.173 -0.173
 0.514  1.267  0.216 -0.033 -0.133 -0.172 -0.172
 0.516  1.268  0.217 -0.032 -0.131 -0.171 -0.171
 0.518  1.268  0.218 -0.031 -0.131 -0.170 -0.170
 0.520  1.270  0.219 -0.030 -0.130 -0.169 -0.169
 0.522  1.271  0.220 -0.029 -0.129 -0.168 -0.168
 0.524  1.272  0.221 -0.029 -0.128 -0.167 -0.167
 0.526  1.273  0.222 -0.027 -0.127 -0.166 -0.166
 0.528  1.274  0.223 -0.026 -0.126 -0.165 -0.165
 0.530  1.274  0.224 -0.026 -0.125 -0.164 -0.164
 0.532  1.275  0.225 -0.025 -0.124 -0.163 -0.163
 0.534  1.276  0.226 -0.024 -0.123 -0.162 -0.162
 0.536  1.277  0.227 -0.023 -0.123 -0.162 -0.162
 0.538  1.278  0.228 -0.022 -0.122 -0.160 -0.160
 0.540  1.279  0.229 -0.021 -0.120 -0.160 -0.160
 0.542  1.280  0.230 -0.020 -0.120 -0.159 -0.159
 0.544  1.280  0.231 -0.020 -0.119 -0.158 -0.158
 0.546  1.281  0.232 -0.019 -0.118 -0.157 -0.157
 0.548  1.282  0.233 -0.018 -0.117 -0.156 -0.156
 0.550  1.282  0.234 -0.017 -0.116 -0.155 -0.155
 0.552  1.283  0.235 -0.016 -0.115 -0.155 -0.155
 0.554  1.284  0.236 -0.015 -0.114 -0.154 -0.154
 0.556  1.284  0.237 -0.014 -0.113 -0.153 -0.153
 0.558  1.285  0.238 -0.014 -0.112 -0.152 -0.152
 0.560  1.285  0.239 -0.013 -0.112 -0.151 -0.151
 0.562  1.286  0.240 -0.012 -0.110 -0.151 -0.151
 0.564  1.286  0.240 -0.011 -0.109 -0.150 -0.150
 0.566  1.286  0.241 -0.011 -0.109 -0.149 -0.149
 0.568  1.286  0.242 -0.010 -0.107 -0.149 -0.149
 0.570  1.287  0.243 -0.009 -0.107 -0.147 -0.147
 0.572  1.287  0.244 -0.008 -0.106 -0.147 -0.147
 0.574  1.287  0.245 -0.008 -0.105 -0.146 -0.146
 0.576  1.288  0.245 -0.007 -0.104 -0.146 -0.146
 0.578  1.288  0.246 -0.006 -0.103 -0.145 -0.145
 0.580  1.288  0.247 -0.006 -0.102 -0.144 -0.144
 0.582  1.288  0.248 -0.005 -0.102 -0.144 -0.144
 0.584  1.289  0.248 -0.004 -0.100 -0.143 -0.143
 0.586  1.289  0.249 -0.003 -0.100 -0.142 -0.142
 0.588  1.289  0.250 -0.003 -0.099 -0.142 -0.142
 0.590  1.289  0.250 -0.002 -0.098 -0.141 -0.141
 0.592  1.289  0.251 -0.002 -0.098 -0.141 -0.141
 0.594  1.290  0.252 -0.001 -0.096 -0.140 -0.140
 0.596  1.290  0.252 -0.000 -0.096 -0.140 -0.140
 0.598  1.290  0.253  0.000 -0.095 -0.139 -0.139
 0.600  1.290  0.253  0.000 -0.095 -0.138 -0.138
 0.602  1.290  0.254  0.001 -0.094 -0.137 -0.137
 0.604  1.290  0.254  0.002 -0.093 -0.137 -0.137
 0.606  1.290  0.254  0.002 -0.093 -0.136 -0.136
 0.608  1.290  0.255  0.003 -0.092 -0.136 -0.136
 0.610  1.290  0.255  0.003 -0.092 -0.135 -0.135
 0.612  1.290  0.255  0.003 -0.091 -0.135 -0.135
 0.614  1.290  0.256  0.004 -0.091 -0.134 -0.134
 0.616  1.290  0.256  0.004 -0.090 -0.133 -0.133
 0.618  1.290  0.256  0.005 -0.089 -0.133 -0.133
 0.620  1.290  0.256  0.005 -0.089 -0.132 -0.132
 0.622  1.290  0.257  0.006 -0.089 -0.132 -0.132
 0.624  1.290  0.257  0.006 -0.088 -0.131 -0.131
 0.626  1.289  0.257  0.006 -0.088 -0.131 -0.131
 0.628  1.289  0.257  0.006 -0.088 -0.130 -0.130
 0.630  1.289  0.257  0.006 -0.087 -0.130 -0.130
 0.632  1.289  0.257  0.007 -0.087 -0.129 -0.129
 0.634  1.289  0.257  0.007 -0.087 -0.128 -0.128
 0.636  1.288  0.257  0.007 -0.086 -0.128 -0.128
 0.638  1.288  0.257  0.008 -0.086 -0.127 -0.127
 0.640  1.288  0.257  0.008 -0.086 -0.127 -0.127
 0.642  1.288  0.257  0.008 -0.086 -0.126 -0.126
 0.644  1.287  0.257  0.009 -0.086 -0.126 -0.126
 0.646  1.287  0.257  0.009 -0.086 -0.126 -0.126
 0.648  1.287  0.257  0.009 -0.085 -0.125 -0.125
 0.650  1.286  0.256  0.009 -0.085 -0.124 -0.124
 0.652  1.286  0.256  0.009 -0.085 -0.124 -0.124
 0.654  1.286  0.256  0.009 -0.085 -0.123 -0.123
 0.656  1.286  0.256  0.009 -0.085 -0.123 -0.123
 0.658  1.286  0.256  0.009 -0.085 -0.122 -0.122
 0.660  1.286  0.255  0.009 -0.084 -0.122 -0.122
 0.662  1.286  0.255  0.009 -0.084 -0.121 -0.121
 0.664  1.285  0.255  0.009 -0.084 -0.121 -0.121
 0.666  1.285  0.255  0.009 -0.083 -0.121 -0.121
 0.668  1.285  0.255  0.009 -0.083 -0.120 -0.120
 0.670  1.284  0.254  0.009 -0.082 -0.119 -0.119
 0.672  1.284  0.254  0.009 -0.082 -0.119 -0.119
 0.674  1.284  0.254  0.009 -0.081 -0.119 -0.119
 0.676  1.283  0.254  0.009 -0.081 -0.118 -0.118
 0.678  1.283  0.253  0.008 -0.080 -0.118 -0.118
 0.680  1.283  0.253  0.008 -0.079 -0.118 -0.118
 0.682  1.283  0.253  0.008 -0.079 -0.117 -0.117
 0.684  1.282  0.253  0.008 -0.078 -0.117 -0.117
 0.686  1.282  0.252  0.007 -0.077 -0.117 -0.117
 0.688  1.282  0.252  0.007 -0.077 -0.116 -0.116
 0.690  1.281  0.252  0.007 -0.075 -0.115 -0.115
 0.692  1.281  0.251  0.006 -0.075 -0.115 -0.115
 0.694  1.281  0.251  0.006 -0.074 -0.115 -0.115
 0.696  1.280  0.251  0.006 -0.072 -0.115 -0.115
 0.698  1.280  0.250  0.006 -0.072 -0.114 -0.114
 0.700  1.280  0.250  0.005 -0.071 -0.114 -0.114
 0.702  1.280  0.250  0.005 -0.069 -0.114 -0.114
 0.704  1.280  0.249  0.004 -0.068 -0.113 -0.113
 0.706  1.280  0.249  0.004 -0.067 -0.113 -0.113
 0.708  1.280  0.249  0.003 -0.066 -0.113 -0.113
 0.710  1.279  0.248  0.003 -0.065 -0.113 -0.113
 0.712  1.279  0.248  0.003 -0.064 -0.112 -0.112
 0.714  1.279  0.248  0.002 -0.062 -0.112 -0.112
 0.716  1.278  0.247  0.002 -0.061 -0.112 -0.112
 0.718  1.278  0.247  0.001 -0.060 -0.112 -0.112
 0.720  1.278  0.247  0.001 -0.058 -0.112 -0.112
 0.722  1.278  0.247  0.001 -0.057 -0.112 -0.112
 0.724  1.277  0.247  0.000 -0.055 -0.112 -0.112
 0.726  1.277  0.247  0.000 -0.054 -0.111 -0.111
 0.728  1.277  0.247  0.001 -0.052 -0.110 -0.110
 0.730  1.277  0.248  0.001 -0.050 -0.110 -0.110
 0.732  1.276  0.248  0.001 -0.048 -0.110 -0.110
 0.734  1.276  0.249  0.002 -0.047 -0.109 -0.109
 0.736  1.276  0.250  0.003 -0.045 -0.108 -0.108
 0.738  1.276  0.251  0.003 -0.043 -0.108 -0.108
 0.740  1.275  0.253  0.004 -0.041 -0.106 -0.106
 0.742  1.275  0.254  0.005 -0.039 -0.106 -0.106
 0.744  1.275  0.256  0.006 -0.036 -0.105 -0.105
 0.746  1.275  0.257  0.007 -0.034 -0.103 -0.103
 0.748  1.275  0.259  0.008 -0.032 -0.102 -0.102
 0.750  1.275  0.261  0.009 -0.029 -0.100 -0.100
 0.752  1.274  0.263  0.011 -0.027 -0.099 -0.099
 0.754  1.274  0.265  0.012 -0.025 -0.097 -0.097
 0.756  1.274  0.267  0.014 -0.022 -0.095 -0.095
 0.758  1.274  0.269  0.015 -0.019 -0.093 -0.093
 0.760  1.274  0.272  0.017 -0.017 -0.091 -0.091
 0.762  1.274  0.275  0.019 -0.014 -0.089 -0.089
 0.764  1.274  0.278  0.021 -0.012 -0.086 -0.086
 0.766  1.274  0.281  0.023 -0.009 -0.084 -0.084
 0.768  1.274  0.284  0.025 -0.006 -0.081 -0.081
 0.770  1.274  0.288  0.027 -0.002 -0.079 -0.079
 0.772  1.274  0.291  0.029  0.001 -0.076 -0.076
 0.774  1.274  0.295  0.032  0.004 -0.073 -0.073
 0.776  1.274  0.299  0.035  0.008 -0.070 -0.070
 0.778  1.274  0.303  0.038  0.011 -0.067 -0.067
 0.780  1.274  0.307  0.041  0.015 -0.063 -0.063
 0.782  1.274  0.311  0.044  0.018 -0.060 -0.060
 0.784  1.274  0.315  0.047  0.022 -0.056 -0.056
 0.786  1.274  0.319  0.050  0.025 -0.052 -0.052
 0.788  1.274  0.324  0.053  0.029 -0.049 -0.049
 0.790  1.274  0.328  0.056  0.032 -0.045 -0.045
 0.792  1.274  0.332  0.059  0.036 -0.041 -0.041
 0.794  1.275  0.336  0.062  0.039 -0.037 -0.037
 0.796  1.275  0.339  0.064  0.042 -0.033 -0.033
 0.798  1.276  0.343  0.067  0.045 -0.029 -0.029
 0.800  1.277  0.347  0.070  0.048 -0.024 -0.024
 0.802  1.278  0.350  0.073  0.050 -0.020 -0.020
 0.804  1.279  0.353  0.076  0.053 -0.017 -0.017
 0.806  1.280  0.357  0.079  0.055 -0.013 -0.013
 0.808  1.281  0.360  0.081  0.057 -0.010 -0.010
