# IsPeriodic    : True
# Period        : 0.498292 days
# Normalization : <g_mag>=0
# 
# Phase u_mag  g_mag  r_mag  i_mag  z_mag  y_mag
 0.000  0.143 -1.028 -0.816 -0.674 -0.603 -0.603
 0.002  0.143 -1.027 -0.816 -0.674 -0.603 -0.603
 0.004  0.143 -1.025 -0.815 -0.673 -0.602 -0.602
 0.006  0.144 -1.022 -0.813 -0.672 -0.601 -0.601
 0.008  0.146 -1.019 -0.810 -0.670 -0.600 -0.600
 0.010  0.149 -1.014 -0.807 -0.667 -0.599 -0.599
 0.012  0.150 -1.008 -0.803 -0.664 -0.597 -0.597
 0.014  0.153 -1.001 -0.799 -0.660 -0.595 -0.595
 0.016  0.156 -0.993 -0.795 -0.656 -0.593 -0.593
 0.018  0.161 -0.986 -0.790 -0.652 -0.591 -0.591
 0.020  0.166 -0.978 -0.786 -0.648 -0.589 -0.589
 0.022  0.169 -0.971 -0.780 -0.643 -0.586 -0.586
 0.024  0.173 -0.961 -0.775 -0.639 -0.584 -0.584
 0.026  0.179 -0.954 -0.770 -0.634 -0.582 -0.582
 0.028  0.184 -0.945 -0.765 -0.630 -0.578 -0.578
 0.030  0.188 -0.937 -0.760 -0.625 -0.576 -0.576
 0.032  0.195 -0.930 -0.755 -0.622 -0.573 -0.573
 0.034  0.201 -0.922 -0.750 -0.617 -0.571 -0.571
 0.036  0.207 -0.915 -0.745 -0.614 -0.569 -0.569
 0.038  0.213 -0.907 -0.740 -0.609 -0.565 -0.565
 0.040  0.219 -0.899 -0.736 -0.606 -0.563 -0.563
 0.042  0.226 -0.892 -0.730 -0.601 -0.560 -0.560
 0.044  0.234 -0.884 -0.726 -0.597 -0.556 -0.556
 0.046  0.242 -0.877 -0.720 -0.593 -0.554 -0.554
 0.048  0.249 -0.869 -0.715 -0.589 -0.551 -0.551
 0.050  0.257 -0.860 -0.709 -0.584 -0.547 -0.547
 0.052  0.266 -0.852 -0.704 -0.580 -0.543 -0.543
 0.054  0.275 -0.843 -0.698 -0.575 -0.540 -0.540
 0.056  0.284 -0.834 -0.691 -0.571 -0.536 -0.536
 0.058  0.293 -0.827 -0.686 -0.567 -0.533 -0.533
 0.060  0.303 -0.818 -0.680 -0.562 -0.529 -0.529
 0.062  0.313 -0.809 -0.674 -0.557 -0.525 -0.525
 0.064  0.324 -0.799 -0.668 -0.552 -0.521 -0.521
 0.066  0.333 -0.790 -0.661 -0.548 -0.517 -0.517
 0.068  0.345 -0.781 -0.655 -0.543 -0.512 -0.512
 0.070  0.356 -0.772 -0.648 -0.538 -0.508 -0.508
 0.072  0.367 -0.763 -0.643 -0.534 -0.504 -0.504
 0.074  0.379 -0.754 -0.636 -0.529 -0.499 -0.499
 0.076  0.389 -0.745 -0.629 -0.524 -0.495 -0.495
 0.078  0.402 -0.736 -0.623 -0.519 -0.491 -0.491
 0.080  0.412 -0.727 -0.617 -0.515 -0.486 -0.486
 0.082  0.424 -0.718 -0.610 -0.511 -0.482 -0.482
 0.084  0.435 -0.709 -0.604 -0.505 -0.477 -0.477
 0.086  0.446 -0.699 -0.597 -0.501 -0.473 -0.473
 0.088  0.456 -0.690 -0.591 -0.496 -0.469 -0.469
 0.090  0.467 -0.681 -0.585 -0.492 -0.465 -0.465
 0.092  0.478 -0.672 -0.578 -0.487 -0.461 -0.461
 0.094  0.488 -0.665 -0.573 -0.482 -0.457 -0.457
 0.096  0.498 -0.656 -0.566 -0.478 -0.453 -0.453
 0.098  0.508 -0.646 -0.560 -0.473 -0.449 -0.449
 0.100  0.517 -0.637 -0.554 -0.469 -0.446 -0.446
 0.102  0.526 -0.630 -0.548 -0.464 -0.442 -0.442
 0.104  0.536 -0.621 -0.542 -0.460 -0.438 -0.438
 0.106  0.545 -0.612 -0.536 -0.455 -0.434 -0.434
 0.108  0.554 -0.604 -0.530 -0.452 -0.431 -0.431
 0.110  0.563 -0.597 -0.525 -0.447 -0.427 -0.427
 0.112  0.572 -0.587 -0.519 -0.443 -0.424 -0.424
 0.114  0.580 -0.580 -0.514 -0.439 -0.421 -0.421
 0.116  0.589 -0.572 -0.508 -0.435 -0.417 -0.417
 0.118  0.596 -0.565 -0.503 -0.431 -0.414 -0.414
 0.120  0.606 -0.557 -0.497 -0.427 -0.411 -0.411
 0.122  0.613 -0.550 -0.493 -0.423 -0.408 -0.408
 0.124  0.621 -0.542 -0.487 -0.420 -0.404 -0.404
 0.126  0.628 -0.534 -0.482 -0.415 -0.401 -0.401
 0.128  0.636 -0.527 -0.477 -0.412 -0.399 -0.399
 0.130  0.644 -0.519 -0.472 -0.408 -0.395 -0.395
 0.132  0.650 -0.512 -0.467 -0.405 -0.392 -0.392
 0.134  0.657 -0.506 -0.463 -0.401 -0.390 -0.390
 0.136  0.663 -0.498 -0.457 -0.398 -0.387 -0.387
 0.138  0.671 -0.491 -0.453 -0.394 -0.384 -0.384
 0.140  0.677 -0.484 -0.448 -0.391 -0.381 -0.381
 0.142  0.683 -0.477 -0.444 -0.387 -0.379 -0.379
 0.144  0.689 -0.471 -0.439 -0.383 -0.377 -0.377
 0.146  0.695 -0.463 -0.435 -0.380 -0.374 -0.374
 0.148  0.702 -0.457 -0.431 -0.377 -0.372 -0.372
 0.150  0.708 -0.451 -0.426 -0.374 -0.369 -0.369
 0.152  0.714 -0.445 -0.422 -0.370 -0.367 -0.367
 0.154  0.720 -0.438 -0.417 -0.367 -0.364 -0.364
 0.156  0.726 -0.431 -0.413 -0.364 -0.362 -0.362
 0.158  0.732 -0.425 -0.408 -0.361 -0.360 -0.360
 0.160  0.738 -0.419 -0.405 -0.358 -0.357 -0.357
 0.162  0.743 -0.413 -0.401 -0.355 -0.355 -0.355
 0.164  0.749 -0.407 -0.396 -0.352 -0.352 -0.352
 0.166  0.755 -0.401 -0.392 -0.349 -0.350 -0.350
 0.168  0.761 -0.395 -0.388 -0.346 -0.347 -0.347
 0.170  0.767 -0.389 -0.384 -0.343 -0.345 -0.345
 0.172  0.773 -0.383 -0.379 -0.340 -0.342 -0.342
 0.174  0.779 -0.375 -0.376 -0.337 -0.340 -0.340
 0.176  0.784 -0.369 -0.372 -0.334 -0.338 -0.338
 0.178  0.790 -0.363 -0.368 -0.331 -0.335 -0.335
 0.180  0.796 -0.357 -0.364 -0.328 -0.333 -0.333
 0.182  0.802 -0.351 -0.359 -0.326 -0.330 -0.330
 0.184  0.808 -0.345 -0.356 -0.323 -0.328 -0.328
 0.186  0.814 -0.339 -0.352 -0.320 -0.325 -0.325
 0.188  0.820 -0.333 -0.348 -0.317 -0.323 -0.323
 0.190  0.825 -0.327 -0.344 -0.314 -0.320 -0.320
 0.192  0.831 -0.321 -0.341 -0.311 -0.319 -0.319
 0.194  0.837 -0.315 -0.336 -0.309 -0.316 -0.316
 0.196  0.843 -0.309 -0.333 -0.306 -0.314 -0.314
 0.198  0.849 -0.303 -0.328 -0.303 -0.312 -0.312
 0.200  0.855 -0.297 -0.325 -0.301 -0.309 -0.309
 0.202  0.860 -0.291 -0.321 -0.298 -0.307 -0.307
 0.204  0.866 -0.285 -0.317 -0.295 -0.304 -0.304
 0.206  0.872 -0.278 -0.314 -0.293 -0.302 -0.302
 0.208  0.878 -0.272 -0.310 -0.290 -0.299 -0.299
 0.210  0.883 -0.266 -0.306 -0.287 -0.297 -0.297
 0.212  0.889 -0.260 -0.303 -0.286 -0.294 -0.294
 0.214  0.895 -0.256 -0.298 -0.283 -0.292 -0.292
 0.216  0.901 -0.250 -0.295 -0.280 -0.290 -0.290
 0.218  0.907 -0.244 -0.292 -0.278 -0.287 -0.287
 0.220  0.912 -0.238 -0.287 -0.275 -0.285 -0.285
 0.222  0.918 -0.232 -0.284 -0.273 -0.282 -0.282
 0.224  0.924 -0.225 -0.281 -0.270 -0.280 -0.280
 0.226  0.928 -0.219 -0.277 -0.268 -0.277 -0.277
 0.228  0.935 -0.213 -0.273 -0.266 -0.276 -0.276
 0.230  0.941 -0.209 -0.270 -0.263 -0.273 -0.273
 0.232  0.945 -0.203 -0.266 -0.261 -0.271 -0.271
 0.234  0.951 -0.197 -0.263 -0.259 -0.268 -0.268
 0.236  0.956 -0.191 -0.260 -0.256 -0.266 -0.266
 0.238  0.962 -0.186 -0.256 -0.254 -0.264 -0.264
 0.240  0.967 -0.180 -0.253 -0.252 -0.262 -0.262
 0.242  0.973 -0.174 -0.250 -0.249 -0.259 -0.259
 0.244  0.977 -0.169 -0.246 -0.246 -0.257 -0.257
 0.246  0.982 -0.163 -0.243 -0.245 -0.255 -0.255
 0.248  0.988 -0.159 -0.240 -0.242 -0.253 -0.253
 0.250  0.992 -0.153 -0.236 -0.239 -0.251 -0.251
 0.252  0.997 -0.147 -0.233 -0.238 -0.248 -0.248
 0.254  1.003 -0.142 -0.230 -0.235 -0.246 -0.246
 0.256  1.008 -0.138 -0.226 -0.233 -0.244 -0.244
 0.258  1.012 -0.132 -0.223 -0.230 -0.242 -0.242
 0.260  1.017 -0.127 -0.220 -0.228 -0.240 -0.240
 0.262  1.021 -0.121 -0.217 -0.226 -0.238 -0.238
 0.264  1.027 -0.116 -0.214 -0.223 -0.236 -0.236
 0.266  1.032 -0.112 -0.211 -0.221 -0.233 -0.233
 0.268  1.037 -0.107 -0.207 -0.219 -0.232 -0.232
 0.270  1.041 -0.101 -0.205 -0.216 -0.229 -0.229
 0.272  1.046 -0.097 -0.202 -0.214 -0.228 -0.228
 0.274  1.050 -0.092 -0.198 -0.212 -0.225 -0.225
 0.276  1.055 -0.088 -0.196 -0.210 -0.224 -0.224
 0.278  1.059 -0.083 -0.193 -0.207 -0.221 -0.221
 0.280  1.064 -0.079 -0.190 -0.205 -0.220 -0.220
 0.282  1.069 -0.073 -0.187 -0.203 -0.217 -0.217
 0.284  1.072 -0.068 -0.184 -0.200 -0.216 -0.216
 0.286  1.076 -0.063 -0.182 -0.198 -0.214 -0.214
 0.288  1.081 -0.059 -0.179 -0.196 -0.211 -0.211
 0.290  1.085 -0.054 -0.176 -0.194 -0.210 -0.210
 0.292  1.090 -0.051 -0.173 -0.191 -0.207 -0.207
 0.294  1.094 -0.047 -0.171 -0.190 -0.206 -0.206
 0.296  1.097 -0.042 -0.167 -0.187 -0.204 -0.204
 0.298  1.102 -0.038 -0.165 -0.184 -0.202 -0.202
 0.300  1.107 -0.033 -0.162 -0.182 -0.200 -0.200
 0.302  1.111 -0.029 -0.160 -0.180 -0.198 -0.198
 0.304  1.114 -0.024 -0.156 -0.178 -0.196 -0.196
 0.306  1.119 -0.020 -0.154 -0.175 -0.194 -0.194
 0.308  1.123 -0.017 -0.151 -0.174 -0.193 -0.193
 0.310  1.128 -0.012 -0.149 -0.171 -0.190 -0.190
 0.312  1.131 -0.007 -0.145 -0.169 -0.189 -0.189
 0.314  1.136 -0.003 -0.142 -0.166 -0.187 -0.187
 0.316  1.140  0.002 -0.140 -0.164 -0.185 -0.185
 0.318  1.145  0.006 -0.136 -0.162 -0.183 -0.183
 0.320  1.148  0.009 -0.134 -0.159 -0.181 -0.181
 0.322  1.152  0.014 -0.131 -0.158 -0.179 -0.179
 0.324  1.157  0.018 -0.127 -0.155 -0.177 -0.177
 0.326  1.160  0.023 -0.125 -0.152 -0.176 -0.176
 0.328  1.164  0.027 -0.122 -0.150 -0.173 -0.173
 0.330  1.169  0.030 -0.119 -0.148 -0.172 -0.172
 0.332  1.174  0.035 -0.116 -0.146 -0.170 -0.170
 0.334  1.177  0.040 -0.113 -0.143 -0.168 -0.168
 0.336  1.181  0.044 -0.110 -0.141 -0.166 -0.166
 0.338  1.186  0.049 -0.106 -0.139 -0.164 -0.164
 0.340  1.189  0.052 -0.104 -0.136 -0.163 -0.163
 0.342  1.193  0.056 -0.101 -0.134 -0.160 -0.160
 0.344  1.196  0.061 -0.097 -0.132 -0.159 -0.159
 0.346  1.201  0.065 -0.094 -0.129 -0.157 -0.157
 0.348  1.206  0.068 -0.091 -0.127 -0.155 -0.155
 0.350  1.209  0.073 -0.089 -0.125 -0.153 -0.153
 0.352  1.213  0.077 -0.085 -0.122 -0.151 -0.151
 0.354  1.218  0.082 -0.082 -0.120 -0.149 -0.149
 0.356  1.221  0.085 -0.079 -0.117 -0.147 -0.147
 0.358  1.225  0.089 -0.075 -0.115 -0.146 -0.146
 0.360  1.228  0.094 -0.072 -0.113 -0.144 -0.144
 0.362  1.233  0.097 -0.069 -0.110 -0.142 -0.142
 0.364  1.238  0.102 -0.065 -0.108 -0.140 -0.140
 0.366  1.241  0.106 -0.063 -0.105 -0.138 -0.138
 0.368  1.245  0.111 -0.060 -0.103 -0.136 -0.136
 0.370  1.248  0.114 -0.056 -0.101 -0.134 -0.134
 0.372  1.253  0.118 -0.053 -0.098 -0.133 -0.133
 0.374  1.256  0.123 -0.050 -0.096 -0.130 -0.130
 0.376  1.260  0.126 -0.046 -0.093 -0.129 -0.129
 0.378  1.263  0.130 -0.043 -0.091 -0.126 -0.126
 0.380  1.268  0.135 -0.041 -0.089 -0.124 -0.124
 0.382  1.271  0.139 -0.038 -0.086 -0.123 -0.123
 0.384  1.276  0.142 -0.034 -0.085 -0.120 -0.120
 0.386  1.279  0.147 -0.031 -0.082 -0.119 -0.119
 0.388  1.283  0.152 -0.029 -0.079 -0.116 -0.116
 0.390  1.286  0.156 -0.025 -0.077 -0.115 -0.115
 0.392  1.291  0.159 -0.022 -0.075 -0.112 -0.112
 0.394  1.294  0.164 -0.019 -0.073 -0.111 -0.111
 0.396  1.298  0.168 -0.016 -0.070 -0.108 -0.108
 0.398  1.302  0.173 -0.013 -0.068 -0.107 -0.107
 0.400  1.306  0.176 -0.011 -0.066 -0.104 -0.104
 0.402  1.309  0.180 -0.008 -0.063 -0.102 -0.102
 0.404  1.314  0.185 -0.004 -0.061 -0.100 -0.100
 0.406  1.317  0.189 -0.002 -0.059 -0.098 -0.098
 0.408  1.320  0.194  0.001 -0.057 -0.096 -0.096
 0.410  1.324  0.197  0.004 -0.054 -0.094 -0.094
 0.412  1.327  0.202  0.007 -0.053 -0.092 -0.092
 0.414  1.330  0.206  0.009 -0.050 -0.089 -0.089
 0.416  1.335  0.211  0.012 -0.048 -0.088 -0.088
 0.418  1.338  0.215  0.015 -0.045 -0.085 -0.085
 0.420  1.343  0.218  0.017 -0.044 -0.083 -0.083
 0.422  1.346  0.223  0.020 -0.042 -0.081 -0.081
 0.424  1.349  0.227  0.022 -0.039 -0.079 -0.079
 0.426  1.353  0.232  0.026 -0.037 -0.076 -0.076
 0.428  1.356  0.236  0.028 -0.035 -0.075 -0.075
 0.430  1.359  0.241  0.030 -0.033 -0.072 -0.072
 0.432  1.362  0.244  0.034 -0.031 -0.070 -0.070
 0.434  1.367  0.248  0.036 -0.029 -0.068 -0.068
 0.436  1.370  0.253  0.038 -0.027 -0.066 -0.066
 0.438  1.373  0.258  0.040 -0.024 -0.063 -0.063
 0.440  1.376  0.262  0.043 -0.022 -0.062 -0.062
 0.442  1.381  0.267  0.046 -0.021 -0.059 -0.059
 0.444  1.384  0.270  0.048 -0.018 -0.057 -0.057
 0.446  1.387  0.274  0.050 -0.016 -0.055 -0.055
 0.448  1.390  0.279  0.052 -0.014 -0.053 -0.053
 0.450  1.393  0.282  0.056 -0.012 -0.051 -0.051
 0.452  1.396  0.286  0.058 -0.010 -0.049 -0.049
 0.454  1.399  0.289  0.060 -0.008 -0.047 -0.047
 0.456  1.402  0.292  0.062 -0.005 -0.045 -0.045
 0.458  1.405  0.297  0.065 -0.004 -0.043 -0.043
 0.460  1.408  0.300  0.067 -0.002 -0.041 -0.041
 0.462  1.411  0.303  0.069  0.001 -0.039 -0.039
 0.464  1.414  0.306  0.071  0.003 -0.037 -0.037
 0.466  1.417  0.309  0.073  0.004 -0.035 -0.035
 0.468  1.420  0.312  0.076  0.006 -0.033 -0.033
 0.470  1.423  0.315  0.078  0.009 -0.032 -0.032
 0.472  1.426  0.318  0.080  0.011 -0.029 -0.029
 0.474  1.429  0.321  0.082  0.012 -0.028 -0.028
 0.476  1.432  0.324  0.085  0.015 -0.026 -0.026
 0.478  1.434  0.327  0.087  0.017 -0.024 -0.024
 0.480  1.437  0.329  0.089  0.019 -0.022 -0.022
 0.482  1.440  0.332  0.090  0.020 -0.020 -0.020
 0.484  1.443  0.335  0.092  0.023 -0.019 -0.019
 0.486  1.445  0.336  0.095  0.025 -0.017 -0.017
 0.488  1.448  0.339  0.097  0.027 -0.015 -0.015
 0.490  1.451  0.341  0.099  0.029 -0.014 -0.014
 0.492  1.452  0.342  0.100  0.031 -0.012 -0.012
 0.494  1.455  0.345  0.102  0.033 -0.011 -0.011
 0.496  1.458  0.347  0.105  0.035 -0.009 -0.009
 0.498  1.460  0.348  0.107  0.037 -0.007 -0.007
 0.500  1.463  0.350  0.108  0.039 -0.006 -0.006
 0.502  1.464  0.351  0.110  0.041 -0.004 -0.004
 0.504  1.467  0.353  0.112  0.043 -0.002 -0.002
 0.506  1.469  0.354  0.113  0.045 -0.001 -0.001
 0.508  1.472  0.356  0.116  0.047  0.001  0.001
 0.510  1.474  0.358  0.118  0.049  0.002  0.002
 0.512  1.477  0.359  0.119  0.051  0.003  0.003
 0.514  1.478  0.361  0.121  0.052  0.005  0.005
 0.516  1.480  0.361  0.122  0.055  0.007  0.007
 0.518  1.481  0.362  0.125  0.057  0.008  0.008
 0.520  1.484  0.364  0.126  0.059  0.009  0.009
 0.522  1.486  0.364  0.128  0.060  0.011  0.011
 0.524  1.487  0.365  0.129  0.061  0.012  0.012
 0.526  1.489  0.367  0.130  0.063  0.013  0.013
 0.528  1.490  0.368  0.132  0.065  0.015  0.015
 0.530  1.492  0.368  0.133  0.067  0.015  0.015
 0.532  1.493  0.370  0.135  0.068  0.017  0.017
 0.534  1.495  0.370  0.137  0.069  0.019  0.019
 0.536  1.496  0.371  0.138  0.071  0.020  0.020
 0.538  1.498  0.373  0.139  0.072  0.021  0.021
 0.540  1.499  0.373  0.140  0.073  0.022  0.022
 0.542  1.501  0.374  0.142  0.075  0.024  0.024
 0.544  1.502  0.376  0.143  0.075  0.024  0.024
 0.546  1.504  0.376  0.145  0.076  0.025  0.025
 0.548  1.506  0.377  0.146  0.078  0.027  0.027
 0.550  1.506  0.377  0.147  0.079  0.028  0.028
 0.552  1.507  0.379  0.148  0.080  0.029  0.029
 0.554  1.509  0.379  0.149  0.081  0.030  0.030
 0.556  1.509  0.380  0.150  0.082  0.031  0.031
 0.558  1.510  0.380  0.151  0.083  0.032  0.032
 0.560  1.510  0.382  0.152  0.083  0.033  0.033
 0.562  1.512  0.382  0.153  0.083  0.034  0.034
 0.564  1.512  0.383  0.155  0.084  0.035  0.035
 0.566  1.513  0.383  0.155  0.085  0.036  0.036
 0.568  1.513  0.383  0.156  0.086  0.037  0.037
 0.570  1.515  0.385  0.157  0.086  0.038  0.038
 0.572  1.515  0.385  0.158  0.087  0.039  0.039
 0.574  1.515  0.386  0.158  0.087  0.040  0.040
 0.576  1.516  0.386  0.159  0.087  0.041  0.041
 0.578  1.516  0.386  0.160  0.088  0.042  0.042
 0.580  1.516  0.388  0.160  0.088  0.042  0.042
 0.582  1.516  0.388  0.161  0.088  0.043  0.043
 0.584  1.518  0.388  0.162  0.089  0.044  0.044
 0.586  1.518  0.389  0.162  0.089  0.045  0.045
 0.588  1.518  0.389  0.163  0.089  0.046  0.046
 0.590  1.518  0.389  0.163  0.089  0.046  0.046
 0.592  1.518  0.389  0.164  0.090  0.047  0.047
 0.594  1.519  0.391  0.164  0.090  0.048  0.048
 0.596  1.519  0.391  0.166  0.090  0.048  0.048
 0.598  1.519  0.391  0.166  0.091  0.049  0.049
 0.600  1.519  0.391  0.167  0.091  0.050  0.050
 0.602  1.519  0.392  0.167  0.091  0.050  0.050
 0.604  1.519  0.392  0.168  0.091  0.051  0.051
 0.606  1.519  0.392  0.168  0.091  0.052  0.052
 0.608  1.519  0.392  0.169  0.091  0.052  0.052
 0.610  1.519  0.392  0.169  0.091  0.053  0.053
 0.612  1.519  0.394  0.169  0.092  0.054  0.054
 0.614  1.519  0.394  0.170  0.092  0.055  0.055
 0.616  1.519  0.394  0.170  0.093  0.055  0.055
 0.618  1.519  0.394  0.170  0.093  0.055  0.055
 0.620  1.519  0.394  0.171  0.093  0.056  0.056
 0.622  1.519  0.394  0.171  0.094  0.057  0.057
 0.624  1.519  0.394  0.171  0.094  0.057  0.057
 0.626  1.518  0.395  0.172  0.094  0.058  0.058
 0.628  1.518  0.395  0.172  0.095  0.058  0.058
 0.630  1.518  0.395  0.172  0.095  0.059  0.059
 0.632  1.518  0.395  0.172  0.096  0.059  0.059
 0.634  1.518  0.395  0.172  0.096  0.059  0.059
 0.636  1.516  0.395  0.173  0.097  0.060  0.060
 0.638  1.516  0.395  0.173  0.097  0.060  0.060
 0.640  1.516  0.395  0.173  0.097  0.061  0.061
 0.642  1.516  0.395  0.173  0.098  0.061  0.061
 0.644  1.515  0.395  0.173  0.098  0.062  0.062
 0.646  1.515  0.395  0.173  0.099  0.062  0.062
 0.648  1.515  0.395  0.173  0.099  0.063  0.063
 0.650  1.513  0.395  0.173  0.099  0.063  0.063
 0.652  1.513  0.395  0.173  0.099  0.063  0.063
 0.654  1.513  0.395  0.174  0.100  0.063  0.063
 0.656  1.513  0.395  0.174  0.100  0.063  0.063
 0.658  1.512  0.395  0.174  0.101  0.064  0.064
 0.660  1.512  0.395  0.174  0.101  0.064  0.064
 0.662  1.512  0.394  0.173  0.101  0.065  0.065
 0.664  1.510  0.394  0.173  0.102  0.065  0.065
 0.666  1.510  0.394  0.173  0.102  0.066  0.066
 0.668  1.510  0.394  0.173  0.102  0.066  0.066
 0.670  1.509  0.394  0.173  0.103  0.066  0.066
 0.672  1.509  0.392  0.173  0.103  0.067  0.067
 0.674  1.509  0.392  0.173  0.103  0.067  0.067
 0.676  1.507  0.392  0.173  0.103  0.068  0.068
 0.678  1.507  0.391  0.172  0.103  0.068  0.068
 0.680  1.507  0.391  0.172  0.103  0.068  0.068
 0.682  1.507  0.389  0.172  0.103  0.068  0.068
 0.684  1.506  0.389  0.172  0.103  0.069  0.069
 0.686  1.506  0.389  0.171  0.103  0.069  0.069
 0.688  1.506  0.388  0.171  0.103  0.069  0.069
 0.690  1.504  0.388  0.171  0.103  0.070  0.070
 0.692  1.504  0.386  0.170  0.103  0.070  0.070
 0.694  1.504  0.386  0.170  0.102  0.071  0.071
 0.696  1.502  0.385  0.170  0.102  0.071  0.071
 0.698  1.502  0.383  0.169  0.102  0.072  0.072
 0.700  1.502  0.383  0.169  0.102  0.072  0.072
 0.702  1.501  0.382  0.168  0.102  0.072  0.072
 0.704  1.501  0.380  0.168  0.101  0.072  0.072
 0.706  1.501  0.380  0.168  0.101  0.072  0.072
 0.708  1.501  0.379  0.167  0.100  0.073  0.073
 0.710  1.499  0.377  0.166  0.100  0.073  0.073
 0.712  1.499  0.376  0.166  0.099  0.074  0.074
 0.714  1.499  0.374  0.164  0.099  0.074  0.074
 0.716  1.498  0.374  0.164  0.099  0.074  0.074
 0.718  1.498  0.373  0.163  0.098  0.075  0.075
 0.720  1.498  0.371  0.162  0.097  0.075  0.075
 0.722  1.498  0.370  0.162  0.097  0.076  0.076
 0.724  1.496  0.368  0.161  0.096  0.076  0.076
 0.726  1.496  0.367  0.161  0.096  0.076  0.076
 0.728  1.496  0.365  0.160  0.095  0.077  0.077
 0.730  1.496  0.365  0.160  0.095  0.077  0.077
 0.732  1.495  0.364  0.160  0.095  0.078  0.078
 0.734  1.495  0.362  0.160  0.095  0.079  0.079
 0.736  1.495  0.362  0.160  0.095  0.080  0.080
 0.738  1.495  0.362  0.160  0.095  0.081  0.081
 0.740  1.493  0.361  0.160  0.095  0.081  0.081
 0.742  1.493  0.361  0.160  0.096  0.082  0.082
 0.744  1.493  0.361  0.161  0.097  0.084  0.084
 0.746  1.493  0.361  0.161  0.097  0.085  0.085
 0.748  1.493  0.361  0.162  0.098  0.085  0.085
 0.750  1.493  0.361  0.163  0.099  0.087  0.087
 0.752  1.492  0.362  0.163  0.100  0.088  0.088
 0.754  1.492  0.362  0.164  0.101  0.090  0.090
 0.756  1.492  0.362  0.166  0.103  0.090  0.090
 0.758  1.492  0.364  0.167  0.104  0.092  0.092
 0.760  1.492  0.364  0.168  0.106  0.093  0.093
 0.762  1.492  0.365  0.170  0.107  0.094  0.094
 0.764  1.492  0.367  0.171  0.110  0.096  0.096
 0.766  1.492  0.368  0.173  0.112  0.098  0.098
 0.768  1.492  0.370  0.174  0.114  0.099  0.099
 0.770  1.492  0.371  0.177  0.116  0.101  0.101
 0.772  1.492  0.373  0.179  0.119  0.103  0.103
 0.774  1.492  0.376  0.181  0.122  0.104  0.104
 0.776  1.490  0.377  0.183  0.124  0.106  0.106
 0.778  1.490  0.380  0.186  0.128  0.108  0.108
 0.780  1.490  0.382  0.189  0.131  0.110  0.110
 0.782  1.490  0.385  0.191  0.134  0.112  0.112
 0.784  1.490  0.388  0.194  0.138  0.114  0.114
 0.786  1.490  0.391  0.197  0.141  0.116  0.116
 0.788  1.490  0.392  0.200  0.145  0.118  0.118
 0.790  1.492  0.395  0.202  0.148  0.120  0.120
 0.792  1.492  0.398  0.206  0.152  0.122  0.122
 0.794  1.493  0.401  0.209  0.156  0.124  0.124
 0.796  1.493  0.406  0.212  0.160  0.127  0.127
 0.798  1.495  0.409  0.214  0.164  0.129  0.129
 0.800  1.496  0.412  0.218  0.168  0.131  0.131
 0.802  1.498  0.415  0.221  0.172  0.133  0.133
 0.804  1.499  0.418  0.224  0.175  0.136  0.136
 0.806  1.501  0.421  0.228  0.179  0.138  0.138
 0.808  1.504  0.424  0.230  0.182  0.140  0.140
