# IsPeriodic    : True
# Period        : 0.465817 days
# Normalization : <g_mag>=0
# 
# Phase u_mag  g_mag  r_mag  i_mag  z_mag  y_mag
 0.000  0.226 -1.035 -0.791 -0.639 -0.594 -0.594
 0.002  0.226 -1.034 -0.791 -0.639 -0.594 -0.594
 0.004  0.226 -1.032 -0.791 -0.638 -0.593 -0.593
 0.006  0.227 -1.029 -0.789 -0.637 -0.592 -0.592
 0.008  0.229 -1.026 -0.788 -0.636 -0.591 -0.591
 0.010  0.232 -1.022 -0.786 -0.635 -0.590 -0.590
 0.012  0.233 -1.016 -0.784 -0.633 -0.588 -0.588
 0.014  0.236 -1.008 -0.782 -0.630 -0.587 -0.587
 0.016  0.239 -1.000 -0.780 -0.628 -0.584 -0.584
 0.018  0.243 -0.993 -0.777 -0.626 -0.583 -0.583
 0.020  0.248 -0.985 -0.774 -0.623 -0.580 -0.580
 0.022  0.251 -0.977 -0.772 -0.620 -0.578 -0.578
 0.024  0.255 -0.968 -0.769 -0.616 -0.575 -0.575
 0.026  0.261 -0.961 -0.765 -0.614 -0.573 -0.573
 0.028  0.265 -0.952 -0.762 -0.611 -0.570 -0.570
 0.030  0.270 -0.944 -0.759 -0.607 -0.567 -0.567
 0.032  0.275 -0.936 -0.755 -0.605 -0.565 -0.565
 0.034  0.281 -0.929 -0.751 -0.602 -0.562 -0.562
 0.036  0.287 -0.921 -0.747 -0.598 -0.560 -0.560
 0.038  0.293 -0.913 -0.743 -0.596 -0.557 -0.557
 0.040  0.299 -0.906 -0.739 -0.592 -0.554 -0.554
 0.042  0.306 -0.898 -0.734 -0.588 -0.551 -0.551
 0.044  0.313 -0.891 -0.729 -0.585 -0.548 -0.548
 0.046  0.321 -0.883 -0.725 -0.581 -0.545 -0.545
 0.048  0.328 -0.875 -0.720 -0.577 -0.542 -0.542
 0.050  0.335 -0.866 -0.714 -0.574 -0.539 -0.539
 0.052  0.344 -0.859 -0.709 -0.569 -0.535 -0.535
 0.054  0.353 -0.849 -0.703 -0.566 -0.532 -0.532
 0.056  0.362 -0.840 -0.697 -0.561 -0.528 -0.528
 0.058  0.371 -0.833 -0.691 -0.557 -0.524 -0.524
 0.060  0.379 -0.823 -0.685 -0.552 -0.520 -0.520
 0.062  0.390 -0.814 -0.678 -0.548 -0.516 -0.516
 0.064  0.400 -0.805 -0.672 -0.543 -0.512 -0.512
 0.066  0.409 -0.796 -0.665 -0.538 -0.508 -0.508
 0.068  0.420 -0.787 -0.659 -0.533 -0.504 -0.504
 0.070  0.431 -0.778 -0.651 -0.528 -0.500 -0.500
 0.072  0.441 -0.769 -0.644 -0.523 -0.495 -0.495
 0.074  0.453 -0.759 -0.637 -0.518 -0.491 -0.491
 0.076  0.463 -0.750 -0.630 -0.513 -0.487 -0.487
 0.078  0.474 -0.741 -0.623 -0.508 -0.482 -0.482
 0.080  0.485 -0.732 -0.616 -0.503 -0.478 -0.478
 0.082  0.496 -0.723 -0.608 -0.498 -0.474 -0.474
 0.084  0.507 -0.714 -0.601 -0.493 -0.469 -0.469
 0.086  0.517 -0.704 -0.594 -0.488 -0.465 -0.465
 0.088  0.527 -0.695 -0.588 -0.483 -0.461 -0.461
 0.090  0.537 -0.686 -0.581 -0.479 -0.457 -0.457
 0.092  0.548 -0.677 -0.575 -0.474 -0.453 -0.453
 0.094  0.558 -0.669 -0.568 -0.469 -0.449 -0.449
 0.096  0.567 -0.660 -0.562 -0.465 -0.445 -0.445
 0.098  0.577 -0.651 -0.555 -0.460 -0.441 -0.441
 0.100  0.586 -0.642 -0.548 -0.457 -0.438 -0.438
 0.102  0.594 -0.634 -0.543 -0.452 -0.434 -0.434
 0.104  0.603 -0.625 -0.537 -0.449 -0.431 -0.431
 0.106  0.612 -0.616 -0.531 -0.444 -0.426 -0.426
 0.108  0.621 -0.608 -0.526 -0.440 -0.423 -0.423
 0.110  0.630 -0.601 -0.519 -0.437 -0.419 -0.419
 0.112  0.638 -0.592 -0.514 -0.432 -0.416 -0.416
 0.114  0.646 -0.584 -0.508 -0.429 -0.413 -0.413
 0.116  0.654 -0.576 -0.503 -0.425 -0.409 -0.409
 0.118  0.662 -0.569 -0.497 -0.422 -0.406 -0.406
 0.120  0.671 -0.561 -0.492 -0.419 -0.403 -0.403
 0.122  0.678 -0.553 -0.486 -0.415 -0.400 -0.400
 0.124  0.685 -0.546 -0.481 -0.412 -0.397 -0.397
 0.126  0.692 -0.538 -0.477 -0.409 -0.393 -0.393
 0.128  0.700 -0.531 -0.471 -0.406 -0.391 -0.391
 0.130  0.707 -0.523 -0.467 -0.403 -0.388 -0.388
 0.132  0.713 -0.515 -0.462 -0.400 -0.384 -0.384
 0.134  0.720 -0.509 -0.458 -0.398 -0.382 -0.382
 0.136  0.726 -0.502 -0.453 -0.395 -0.380 -0.380
 0.138  0.733 -0.494 -0.448 -0.392 -0.376 -0.376
 0.140  0.739 -0.488 -0.444 -0.390 -0.374 -0.374
 0.142  0.745 -0.480 -0.441 -0.387 -0.371 -0.371
 0.144  0.751 -0.474 -0.436 -0.385 -0.369 -0.369
 0.146  0.757 -0.467 -0.432 -0.382 -0.367 -0.367
 0.148  0.763 -0.460 -0.427 -0.380 -0.364 -0.364
 0.150  0.769 -0.454 -0.423 -0.378 -0.362 -0.362
 0.152  0.774 -0.448 -0.420 -0.375 -0.359 -0.359
 0.154  0.780 -0.441 -0.415 -0.373 -0.357 -0.357
 0.156  0.786 -0.435 -0.411 -0.371 -0.354 -0.354
 0.158  0.792 -0.428 -0.408 -0.369 -0.352 -0.352
 0.160  0.798 -0.422 -0.403 -0.367 -0.350 -0.350
 0.162  0.802 -0.416 -0.399 -0.364 -0.347 -0.347
 0.164  0.808 -0.410 -0.396 -0.362 -0.345 -0.345
 0.166  0.814 -0.404 -0.391 -0.360 -0.342 -0.342
 0.168  0.820 -0.398 -0.388 -0.358 -0.340 -0.340
 0.170  0.826 -0.392 -0.384 -0.355 -0.337 -0.337
 0.172  0.831 -0.386 -0.379 -0.353 -0.335 -0.335
 0.174  0.837 -0.378 -0.376 -0.351 -0.333 -0.333
 0.176  0.842 -0.372 -0.372 -0.349 -0.330 -0.330
 0.178  0.848 -0.366 -0.369 -0.346 -0.328 -0.328
 0.180  0.853 -0.360 -0.364 -0.343 -0.325 -0.325
 0.182  0.859 -0.354 -0.360 -0.342 -0.323 -0.323
 0.184  0.865 -0.348 -0.357 -0.339 -0.320 -0.320
 0.186  0.871 -0.341 -0.352 -0.336 -0.318 -0.318
 0.188  0.877 -0.335 -0.349 -0.334 -0.316 -0.316
 0.190  0.881 -0.329 -0.345 -0.332 -0.313 -0.313
 0.192  0.887 -0.323 -0.341 -0.330 -0.312 -0.312
 0.194  0.893 -0.317 -0.337 -0.327 -0.309 -0.309
 0.196  0.899 -0.311 -0.334 -0.324 -0.307 -0.307
 0.198  0.905 -0.305 -0.330 -0.322 -0.304 -0.304
 0.200  0.910 -0.299 -0.326 -0.320 -0.302 -0.302
 0.202  0.915 -0.293 -0.323 -0.317 -0.299 -0.299
 0.204  0.921 -0.287 -0.318 -0.314 -0.297 -0.297
 0.206  0.927 -0.280 -0.315 -0.312 -0.295 -0.295
 0.208  0.932 -0.274 -0.312 -0.310 -0.292 -0.292
 0.210  0.937 -0.268 -0.308 -0.307 -0.290 -0.290
 0.212  0.943 -0.262 -0.304 -0.304 -0.287 -0.287
 0.214  0.949 -0.258 -0.300 -0.302 -0.285 -0.285
 0.216  0.954 -0.252 -0.297 -0.300 -0.282 -0.282
 0.218  0.960 -0.245 -0.293 -0.297 -0.280 -0.280
 0.220  0.965 -0.239 -0.289 -0.294 -0.278 -0.278
 0.222  0.970 -0.233 -0.286 -0.292 -0.275 -0.275
 0.224  0.976 -0.227 -0.282 -0.289 -0.273 -0.273
 0.226  0.981 -0.221 -0.279 -0.287 -0.270 -0.270
 0.228  0.987 -0.215 -0.275 -0.284 -0.269 -0.269
 0.230  0.992 -0.210 -0.272 -0.282 -0.266 -0.266
 0.232  0.997 -0.204 -0.268 -0.279 -0.264 -0.264
 0.234  1.003 -0.198 -0.265 -0.276 -0.261 -0.261
 0.236  1.007 -0.192 -0.262 -0.274 -0.259 -0.259
 0.238  1.013 -0.187 -0.258 -0.272 -0.257 -0.257
 0.240  1.017 -0.181 -0.255 -0.269 -0.255 -0.255
 0.242  1.023 -0.175 -0.251 -0.267 -0.253 -0.253
 0.244  1.028 -0.171 -0.248 -0.264 -0.250 -0.250
 0.246  1.032 -0.165 -0.244 -0.262 -0.248 -0.248
 0.248  1.038 -0.160 -0.241 -0.260 -0.246 -0.246
 0.250  1.042 -0.154 -0.238 -0.257 -0.244 -0.244
 0.252  1.047 -0.148 -0.234 -0.254 -0.241 -0.241
 0.254  1.052 -0.143 -0.231 -0.253 -0.240 -0.240
 0.256  1.057 -0.139 -0.229 -0.250 -0.237 -0.237
 0.258  1.061 -0.133 -0.226 -0.248 -0.235 -0.235
 0.260  1.066 -0.128 -0.222 -0.245 -0.233 -0.233
 0.262  1.070 -0.122 -0.219 -0.243 -0.231 -0.231
 0.264  1.076 -0.117 -0.216 -0.241 -0.229 -0.229
 0.266  1.080 -0.113 -0.213 -0.238 -0.227 -0.227
 0.268  1.085 -0.108 -0.209 -0.236 -0.225 -0.225
 0.270  1.089 -0.102 -0.207 -0.234 -0.223 -0.223
 0.272  1.093 -0.097 -0.204 -0.232 -0.221 -0.221
 0.274  1.098 -0.093 -0.201 -0.230 -0.219 -0.219
 0.276  1.102 -0.088 -0.197 -0.227 -0.217 -0.217
 0.278  1.107 -0.084 -0.195 -0.225 -0.215 -0.215
 0.280  1.111 -0.079 -0.192 -0.223 -0.213 -0.213
 0.282  1.115 -0.073 -0.189 -0.221 -0.210 -0.210
 0.284  1.118 -0.068 -0.187 -0.218 -0.209 -0.209
 0.286  1.123 -0.064 -0.183 -0.216 -0.207 -0.207
 0.288  1.127 -0.059 -0.180 -0.214 -0.205 -0.205
 0.290  1.131 -0.055 -0.178 -0.212 -0.203 -0.203
 0.292  1.136 -0.052 -0.175 -0.210 -0.201 -0.201
 0.294  1.140 -0.047 -0.172 -0.208 -0.199 -0.199
 0.296  1.143 -0.043 -0.169 -0.205 -0.198 -0.198
 0.298  1.148 -0.038 -0.167 -0.204 -0.195 -0.195
 0.300  1.152 -0.033 -0.164 -0.201 -0.193 -0.193
 0.302  1.156 -0.029 -0.160 -0.199 -0.192 -0.192
 0.304  1.159 -0.024 -0.158 -0.197 -0.189 -0.189
 0.306  1.164 -0.020 -0.155 -0.194 -0.188 -0.188
 0.308  1.168 -0.017 -0.153 -0.193 -0.186 -0.186
 0.310  1.172 -0.012 -0.149 -0.190 -0.184 -0.184
 0.312  1.175 -0.007 -0.147 -0.188 -0.182 -0.182
 0.314  1.180 -0.003 -0.144 -0.186 -0.181 -0.181
 0.316  1.184  0.002 -0.141 -0.184 -0.178 -0.178
 0.318  1.188  0.006 -0.139 -0.182 -0.177 -0.177
 0.320  1.191  0.009 -0.135 -0.179 -0.175 -0.175
 0.322  1.196  0.014 -0.133 -0.177 -0.172 -0.172
 0.324  1.200  0.018 -0.130 -0.175 -0.171 -0.171
 0.326  1.203  0.023 -0.127 -0.173 -0.169 -0.169
 0.328  1.208  0.028 -0.124 -0.170 -0.167 -0.167
 0.330  1.212  0.031 -0.121 -0.168 -0.165 -0.165
 0.332  1.216  0.035 -0.119 -0.165 -0.164 -0.164
 0.334  1.219  0.040 -0.116 -0.164 -0.162 -0.162
 0.336  1.224  0.044 -0.113 -0.161 -0.160 -0.160
 0.338  1.228  0.049 -0.110 -0.159 -0.158 -0.158
 0.340  1.231  0.052 -0.108 -0.156 -0.156 -0.156
 0.342  1.235  0.057 -0.105 -0.155 -0.154 -0.154
 0.344  1.238  0.061 -0.101 -0.152 -0.152 -0.152
 0.346  1.243  0.066 -0.099 -0.149 -0.151 -0.151
 0.348  1.247  0.069 -0.096 -0.147 -0.148 -0.148
 0.350  1.250  0.073 -0.094 -0.145 -0.147 -0.147
 0.352  1.254  0.078 -0.091 -0.143 -0.145 -0.145
 0.354  1.259  0.082 -0.088 -0.140 -0.143 -0.143
 0.356  1.262  0.086 -0.085 -0.138 -0.141 -0.141
 0.358  1.266  0.090 -0.082 -0.135 -0.139 -0.139
 0.360  1.269  0.095 -0.080 -0.133 -0.138 -0.138
 0.362  1.273  0.098 -0.076 -0.131 -0.135 -0.135
 0.364  1.278  0.102 -0.074 -0.128 -0.134 -0.134
 0.366  1.281  0.107 -0.071 -0.126 -0.132 -0.132
 0.368  1.285  0.111 -0.069 -0.124 -0.130 -0.130
 0.370  1.288  0.115 -0.065 -0.121 -0.128 -0.128
 0.372  1.292  0.119 -0.063 -0.119 -0.126 -0.126
 0.374  1.295  0.124 -0.060 -0.116 -0.124 -0.124
 0.376  1.300  0.127 -0.058 -0.115 -0.122 -0.122
 0.378  1.303  0.131 -0.055 -0.112 -0.120 -0.120
 0.380  1.307  0.136 -0.052 -0.110 -0.118 -0.118
 0.382  1.310  0.140 -0.049 -0.107 -0.117 -0.117
 0.384  1.314  0.143 -0.047 -0.106 -0.114 -0.114
 0.386  1.317  0.148 -0.044 -0.103 -0.113 -0.113
 0.388  1.322  0.153 -0.042 -0.101 -0.110 -0.110
 0.390  1.325  0.157 -0.038 -0.098 -0.109 -0.109
 0.392  1.329  0.160 -0.036 -0.096 -0.106 -0.106
 0.394  1.332  0.165 -0.033 -0.094 -0.105 -0.105
 0.396  1.336  0.169 -0.031 -0.092 -0.102 -0.102
 0.398  1.339  0.174 -0.027 -0.089 -0.100 -0.100
 0.400  1.344  0.177 -0.025 -0.087 -0.098 -0.098
 0.402  1.347  0.182 -0.022 -0.086 -0.096 -0.096
 0.404  1.351  0.186 -0.020 -0.083 -0.094 -0.094
 0.406  1.354  0.191 -0.016 -0.081 -0.092 -0.092
 0.408  1.357  0.195 -0.014 -0.079 -0.090 -0.090
 0.410  1.361  0.198 -0.011 -0.077 -0.088 -0.088
 0.412  1.364  0.203 -0.009 -0.075 -0.086 -0.086
 0.414  1.367  0.208 -0.006 -0.072 -0.083 -0.083
 0.416  1.371  0.212 -0.003 -0.070 -0.082 -0.082
 0.418  1.374  0.217 -0.001 -0.068 -0.079 -0.079
 0.420  1.379  0.220  0.002 -0.067 -0.077 -0.077
 0.422  1.382  0.224  0.004 -0.064 -0.075 -0.075
 0.424  1.385  0.229  0.008 -0.062 -0.073 -0.073
 0.426  1.389  0.233  0.010 -0.060 -0.071 -0.071
 0.428  1.392  0.238  0.013 -0.057 -0.069 -0.069
 0.430  1.395  0.243  0.015 -0.056 -0.066 -0.066
 0.432  1.398  0.246  0.017 -0.054 -0.064 -0.064
 0.434  1.402  0.250  0.021 -0.052 -0.062 -0.062
 0.436  1.405  0.255  0.023 -0.050 -0.060 -0.060
 0.438  1.408  0.259  0.026 -0.047 -0.058 -0.058
 0.440  1.411  0.264  0.028 -0.046 -0.056 -0.056
 0.442  1.415  0.269  0.030 -0.044 -0.054 -0.054
 0.444  1.418  0.272  0.034 -0.042 -0.051 -0.051
 0.446  1.421  0.276  0.036 -0.039 -0.050 -0.050
 0.448  1.424  0.281  0.038 -0.037 -0.047 -0.047
 0.450  1.427  0.284  0.040 -0.036 -0.045 -0.045
 0.452  1.430  0.288  0.044 -0.034 -0.043 -0.043
 0.454  1.433  0.291  0.046 -0.032 -0.041 -0.041
 0.456  1.436  0.294  0.048 -0.029 -0.039 -0.039
 0.458  1.439  0.299  0.050 -0.027 -0.037 -0.037
 0.460  1.442  0.302  0.053 -0.026 -0.035 -0.035
 0.462  1.445  0.305  0.056 -0.024 -0.033 -0.033
 0.464  1.447  0.308  0.058 -0.021 -0.032 -0.032
 0.466  1.450  0.311  0.060 -0.019 -0.029 -0.029
 0.468  1.453  0.314  0.062 -0.018 -0.028 -0.028
 0.470  1.456  0.317  0.064 -0.016 -0.026 -0.026
 0.472  1.459  0.320  0.068 -0.013 -0.024 -0.024
 0.474  1.462  0.323  0.070 -0.011 -0.022 -0.022
 0.476  1.465  0.327  0.072 -0.009 -0.020 -0.020
 0.478  1.466  0.330  0.074 -0.008 -0.019 -0.019
 0.480  1.469  0.331  0.076 -0.005 -0.016 -0.016
 0.482  1.472  0.334  0.078 -0.003 -0.015 -0.015
 0.484  1.475  0.337  0.081 -0.001 -0.013 -0.013
 0.486  1.477  0.339  0.083  0.001 -0.011 -0.011
 0.488  1.480  0.342  0.085  0.003 -0.010 -0.010
 0.490  1.483  0.343  0.087  0.005 -0.008 -0.008
 0.492  1.484  0.345  0.089  0.007 -0.007 -0.007
 0.494  1.487  0.348  0.092  0.009 -0.005 -0.005
 0.496  1.490  0.349  0.094  0.012 -0.003 -0.003
 0.498  1.491  0.351  0.096  0.013 -0.002 -0.002
 0.500  1.494  0.352  0.098  0.015 -0.000 -0.000
 0.502  1.496  0.354  0.100  0.018  0.001  0.001
 0.504  1.499  0.355  0.102  0.020  0.003  0.003
 0.506  1.500  0.357  0.105  0.022  0.005  0.005
 0.508  1.503  0.359  0.106  0.023  0.006  0.006
 0.510  1.505  0.360  0.108  0.025  0.007  0.007
 0.512  1.507  0.362  0.110  0.027  0.009  0.009
 0.514  1.509  0.363  0.112  0.029  0.010  0.010
 0.516  1.510  0.363  0.113  0.031  0.012  0.012
 0.518  1.512  0.365  0.115  0.032  0.014  0.014
 0.520  1.515  0.366  0.118  0.034  0.014  0.014
 0.522  1.516  0.366  0.119  0.036  0.016  0.016
 0.524  1.518  0.368  0.121  0.038  0.018  0.018
 0.526  1.519  0.369  0.122  0.040  0.018  0.018
 0.528  1.521  0.371  0.124  0.041  0.020  0.020
 0.530  1.522  0.371  0.125  0.042  0.021  0.021
 0.532  1.524  0.372  0.127  0.044  0.022  0.022
 0.534  1.525  0.372  0.129  0.045  0.024  0.024
 0.536  1.526  0.374  0.131  0.047  0.025  0.025
 0.538  1.528  0.375  0.132  0.048  0.027  0.027
 0.540  1.529  0.375  0.133  0.049  0.027  0.027
 0.542  1.531  0.377  0.135  0.051  0.029  0.029
 0.544  1.532  0.378  0.136  0.051  0.030  0.030
 0.546  1.534  0.378  0.137  0.052  0.031  0.031
 0.548  1.535  0.380  0.138  0.053  0.032  0.032
 0.550  1.535  0.380  0.139  0.055  0.033  0.033
 0.552  1.537  0.381  0.142  0.056  0.035  0.035
 0.554  1.538  0.381  0.143  0.057  0.035  0.035
 0.556  1.538  0.383  0.144  0.058  0.036  0.036
 0.558  1.540  0.383  0.145  0.059  0.037  0.037
 0.560  1.540  0.384  0.146  0.059  0.039  0.039
 0.562  1.541  0.384  0.147  0.060  0.039  0.039
 0.564  1.541  0.386  0.148  0.061  0.040  0.040
 0.566  1.543  0.386  0.149  0.061  0.041  0.041
 0.568  1.543  0.386  0.150  0.061  0.042  0.042
 0.570  1.544  0.388  0.150  0.062  0.044  0.044
 0.572  1.544  0.388  0.151  0.063  0.044  0.044
 0.574  1.544  0.389  0.153  0.063  0.045  0.045
 0.576  1.545  0.389  0.154  0.064  0.046  0.046
 0.578  1.545  0.389  0.154  0.064  0.047  0.047
 0.580  1.545  0.391  0.155  0.065  0.048  0.048
 0.582  1.545  0.391  0.156  0.065  0.048  0.048
 0.584  1.547  0.391  0.156  0.066  0.049  0.049
 0.586  1.547  0.392  0.157  0.066  0.050  0.050
 0.588  1.547  0.392  0.157  0.066  0.051  0.051
 0.590  1.547  0.392  0.158  0.067  0.052  0.052
 0.592  1.547  0.392  0.158  0.067  0.052  0.052
 0.594  1.548  0.394  0.159  0.068  0.053  0.053
 0.596  1.548  0.394  0.159  0.068  0.053  0.053
 0.598  1.548  0.394  0.160  0.069  0.054  0.054
 0.600  1.548  0.394  0.160  0.069  0.055  0.055
 0.602  1.548  0.395  0.160  0.069  0.056  0.056
 0.604  1.548  0.395  0.160  0.070  0.056  0.056
 0.606  1.548  0.395  0.161  0.070  0.057  0.057
 0.608  1.548  0.395  0.161  0.071  0.057  0.057
 0.610  1.548  0.395  0.161  0.071  0.058  0.058
 0.612  1.548  0.397  0.161  0.071  0.059  0.059
 0.614  1.548  0.397  0.161  0.071  0.060  0.060
 0.616  1.548  0.397  0.161  0.071  0.060  0.060
 0.618  1.548  0.397  0.161  0.072  0.061  0.061
 0.620  1.548  0.397  0.161  0.072  0.061  0.061
 0.622  1.548  0.397  0.161  0.073  0.062  0.062
 0.624  1.548  0.397  0.161  0.073  0.062  0.062
 0.626  1.547  0.398  0.161  0.073  0.063  0.063
 0.628  1.547  0.398  0.160  0.074  0.063  0.063
 0.630  1.547  0.398  0.160  0.074  0.064  0.064
 0.632  1.547  0.398  0.160  0.074  0.065  0.065
 0.634  1.547  0.398  0.159  0.075  0.065  0.065
 0.636  1.545  0.398  0.159  0.075  0.065  0.065
 0.638  1.545  0.398  0.159  0.076  0.065  0.065
 0.640  1.545  0.398  0.158  0.076  0.066  0.066
 0.642  1.545  0.398  0.158  0.076  0.066  0.066
 0.644  1.544  0.398  0.157  0.077  0.067  0.067
 0.646  1.544  0.398  0.157  0.077  0.067  0.067
 0.648  1.544  0.398  0.156  0.077  0.068  0.068
 0.650  1.543  0.398  0.156  0.078  0.068  0.068
 0.652  1.543  0.398  0.155  0.078  0.069  0.069
 0.654  1.543  0.398  0.155  0.078  0.069  0.069
 0.656  1.543  0.398  0.154  0.078  0.069  0.069
 0.658  1.541  0.398  0.154  0.079  0.069  0.069
 0.660  1.541  0.398  0.154  0.079  0.069  0.069
 0.662  1.541  0.397  0.153  0.079  0.070  0.070
 0.664  1.540  0.397  0.153  0.079  0.070  0.070
 0.666  1.540  0.397  0.151  0.079  0.071  0.071
 0.668  1.540  0.397  0.151  0.080  0.071  0.071
 0.670  1.538  0.397  0.150  0.080  0.071  0.071
 0.672  1.538  0.395  0.150  0.080  0.072  0.072
 0.674  1.538  0.395  0.150  0.080  0.072  0.072
 0.676  1.537  0.395  0.149  0.080  0.073  0.073
 0.678  1.537  0.394  0.149  0.080  0.073  0.073
 0.680  1.537  0.394  0.149  0.080  0.073  0.073
 0.682  1.537  0.392  0.148  0.080  0.073  0.073
 0.684  1.535  0.392  0.148  0.080  0.074  0.074
 0.686  1.535  0.392  0.148  0.080  0.074  0.074
 0.688  1.535  0.391  0.148  0.080  0.074  0.074
 0.690  1.534  0.391  0.147  0.080  0.075  0.075
 0.692  1.534  0.389  0.147  0.080  0.075  0.075
 0.694  1.534  0.389  0.147  0.080  0.076  0.076
 0.696  1.532  0.388  0.147  0.079  0.076  0.076
 0.698  1.532  0.386  0.147  0.079  0.077  0.077
 0.700  1.532  0.386  0.146  0.079  0.077  0.077
 0.702  1.531  0.384  0.146  0.079  0.077  0.077
 0.704  1.531  0.383  0.146  0.079  0.077  0.077
 0.706  1.531  0.383  0.146  0.078  0.077  0.077
 0.708  1.531  0.381  0.146  0.078  0.078  0.078
 0.710  1.529  0.380  0.146  0.078  0.078  0.078
 0.712  1.529  0.378  0.146  0.077  0.079  0.079
 0.714  1.529  0.377  0.145  0.077  0.079  0.079
 0.716  1.528  0.377  0.145  0.077  0.079  0.079
 0.718  1.528  0.375  0.145  0.076  0.080  0.080
 0.720  1.528  0.374  0.145  0.076  0.080  0.080
 0.722  1.528  0.372  0.145  0.076  0.081  0.081
 0.724  1.526  0.371  0.145  0.076  0.081  0.081
 0.726  1.526  0.369  0.145  0.076  0.082  0.082
 0.728  1.526  0.368  0.145  0.076  0.082  0.082
 0.730  1.526  0.368  0.145  0.076  0.082  0.082
 0.732  1.525  0.366  0.145  0.076  0.083  0.083
 0.734  1.525  0.365  0.145  0.076  0.084  0.084
 0.736  1.525  0.365  0.145  0.077  0.085  0.085
 0.738  1.525  0.365  0.145  0.078  0.086  0.086
 0.740  1.524  0.363  0.145  0.078  0.086  0.086
 0.742  1.524  0.363  0.144  0.079  0.087  0.087
 0.744  1.524  0.363  0.144  0.080  0.089  0.089
 0.746  1.524  0.363  0.144  0.081  0.090  0.090
 0.748  1.524  0.363  0.144  0.081  0.090  0.090
 0.750  1.524  0.363  0.144  0.083  0.092  0.092
 0.752  1.522  0.365  0.144  0.084  0.093  0.093
 0.754  1.522  0.365  0.144  0.086  0.094  0.094
 0.756  1.522  0.365  0.144  0.087  0.095  0.095
 0.758  1.522  0.366  0.144  0.089  0.097  0.097
 0.760  1.522  0.366  0.144  0.090  0.098  0.098
 0.762  1.522  0.368  0.144  0.091  0.099  0.099
 0.764  1.522  0.369  0.144  0.093  0.101  0.101
 0.766  1.522  0.371  0.144  0.095  0.103  0.103
 0.768  1.522  0.372  0.144  0.098  0.104  0.104
 0.770  1.522  0.374  0.144  0.100  0.106  0.106
 0.772  1.522  0.375  0.144  0.101  0.107  0.107
 0.774  1.522  0.378  0.144  0.104  0.109  0.109
 0.776  1.521  0.380  0.144  0.107  0.111  0.111
 0.778  1.521  0.383  0.144  0.110  0.113  0.113
 0.780  1.521  0.384  0.143  0.112  0.115  0.115
 0.782  1.521  0.388  0.143  0.115  0.117  0.117
 0.784  1.521  0.391  0.143  0.118  0.119  0.119
 0.786  1.521  0.394  0.144  0.120  0.121  0.121
 0.788  1.521  0.395  0.144  0.123  0.123  0.123
 0.790  1.522  0.398  0.144  0.127  0.125  0.125
 0.792  1.522  0.401  0.144  0.130  0.127  0.127
 0.794  1.524  0.404  0.145  0.132  0.129  0.129
 0.796  1.524  0.409  0.146  0.136  0.132  0.132
 0.798  1.525  0.412  0.146  0.139  0.133  0.133
 0.800  1.526  0.415  0.148  0.142  0.136  0.136
 0.802  1.528  0.418  0.149  0.146  0.138  0.138
 0.804  1.529  0.421  0.150  0.149  0.141  0.141
 0.806  1.531  0.424  0.153  0.152  0.142  0.142
 0.808  1.534  0.427  0.154  0.156  0.145  0.145
