# IsPeriodic    : True
# Period        : 0.818777 days
# Normalization : <g_mag>=0
# 
# Phase u_mag  g_mag  r_mag  i_mag  z_mag  y_mag
 0.000  0.833 -0.253 -0.388 -0.441 -0.442 -0.442
 0.002  0.833 -0.253 -0.388 -0.441 -0.442 -0.442
 0.004  0.833 -0.252 -0.388 -0.441 -0.442 -0.442
 0.006  0.833 -0.252 -0.388 -0.441 -0.442 -0.442
 0.008  0.834 -0.252 -0.388 -0.441 -0.442 -0.442
 0.010  0.835 -0.251 -0.388 -0.440 -0.441 -0.441
 0.012  0.836 -0.251 -0.388 -0.440 -0.441 -0.441
 0.014  0.837 -0.250 -0.387 -0.440 -0.440 -0.440
 0.016  0.838 -0.250 -0.387 -0.439 -0.440 -0.440
 0.018  0.839 -0.250 -0.387 -0.438 -0.439 -0.439
 0.020  0.841 -0.249 -0.386 -0.438 -0.439 -0.439
 0.022  0.842 -0.248 -0.386 -0.437 -0.438 -0.438
 0.024  0.843 -0.247 -0.385 -0.437 -0.437 -0.437
 0.026  0.845 -0.246 -0.385 -0.436 -0.436 -0.436
 0.028  0.846 -0.246 -0.384 -0.435 -0.436 -0.436
 0.030  0.848 -0.245 -0.384 -0.435 -0.435 -0.435
 0.032  0.850 -0.244 -0.383 -0.434 -0.434 -0.434
 0.034  0.851 -0.243 -0.383 -0.433 -0.433 -0.433
 0.036  0.853 -0.242 -0.382 -0.433 -0.433 -0.433
 0.038  0.854 -0.241 -0.381 -0.432 -0.432 -0.432
 0.040  0.856 -0.240 -0.380 -0.431 -0.431 -0.431
 0.042  0.858 -0.239 -0.380 -0.430 -0.430 -0.430
 0.044  0.860 -0.237 -0.379 -0.430 -0.429 -0.429
 0.046  0.862 -0.236 -0.378 -0.429 -0.429 -0.429
 0.048  0.864 -0.235 -0.377 -0.428 -0.428 -0.428
 0.050  0.866 -0.233 -0.376 -0.427 -0.427 -0.427
 0.052  0.868 -0.232 -0.375 -0.427 -0.426 -0.426
 0.054  0.870 -0.230 -0.374 -0.426 -0.426 -0.426
 0.056  0.872 -0.229 -0.373 -0.425 -0.425 -0.425
 0.058  0.875 -0.227 -0.372 -0.424 -0.424 -0.424
 0.060  0.877 -0.226 -0.371 -0.423 -0.424 -0.424
 0.062  0.879 -0.224 -0.369 -0.422 -0.423 -0.423
 0.064  0.881 -0.222 -0.368 -0.421 -0.422 -0.422
 0.066  0.884 -0.220 -0.367 -0.420 -0.422 -0.422
 0.068  0.887 -0.218 -0.365 -0.419 -0.421 -0.421
 0.070  0.889 -0.217 -0.364 -0.418 -0.420 -0.420
 0.072  0.892 -0.214 -0.362 -0.417 -0.420 -0.420
 0.074  0.895 -0.213 -0.361 -0.416 -0.419 -0.419
 0.076  0.897 -0.210 -0.360 -0.415 -0.418 -0.418
 0.078  0.900 -0.209 -0.358 -0.414 -0.417 -0.417
 0.080  0.903 -0.207 -0.357 -0.413 -0.417 -0.417
 0.082  0.906 -0.204 -0.355 -0.412 -0.416 -0.416
 0.084  0.908 -0.203 -0.354 -0.411 -0.415 -0.415
 0.086  0.911 -0.200 -0.352 -0.410 -0.415 -0.415
 0.088  0.914 -0.198 -0.351 -0.409 -0.414 -0.414
 0.090  0.917 -0.197 -0.350 -0.408 -0.413 -0.413
 0.092  0.919 -0.194 -0.348 -0.407 -0.413 -0.413
 0.094  0.922 -0.193 -0.347 -0.406 -0.412 -0.412
 0.096  0.924 -0.190 -0.345 -0.405 -0.411 -0.411
 0.098  0.927 -0.189 -0.344 -0.404 -0.411 -0.411
 0.100  0.930 -0.187 -0.343 -0.403 -0.410 -0.410
 0.102  0.933 -0.185 -0.342 -0.402 -0.409 -0.409
 0.104  0.935 -0.183 -0.340 -0.401 -0.409 -0.409
 0.106  0.937 -0.181 -0.339 -0.399 -0.408 -0.408
 0.108  0.940 -0.179 -0.338 -0.399 -0.408 -0.408
 0.110  0.942 -0.177 -0.337 -0.398 -0.407 -0.407
 0.112  0.945 -0.175 -0.336 -0.397 -0.406 -0.406
 0.114  0.947 -0.173 -0.334 -0.396 -0.406 -0.406
 0.116  0.949 -0.171 -0.333 -0.395 -0.405 -0.405
 0.118  0.952 -0.170 -0.332 -0.394 -0.404 -0.404
 0.120  0.954 -0.168 -0.331 -0.393 -0.404 -0.404
 0.122  0.956 -0.166 -0.330 -0.392 -0.403 -0.403
 0.124  0.958 -0.164 -0.329 -0.391 -0.403 -0.403
 0.126  0.960 -0.162 -0.328 -0.390 -0.402 -0.402
 0.128  0.962 -0.160 -0.327 -0.390 -0.401 -0.401
 0.130  0.964 -0.159 -0.326 -0.389 -0.401 -0.401
 0.132  0.967 -0.157 -0.325 -0.388 -0.400 -0.400
 0.134  0.969 -0.155 -0.324 -0.387 -0.400 -0.400
 0.136  0.971 -0.153 -0.323 -0.386 -0.399 -0.399
 0.138  0.972 -0.152 -0.323 -0.385 -0.398 -0.398
 0.140  0.974 -0.150 -0.322 -0.385 -0.398 -0.398
 0.142  0.976 -0.148 -0.321 -0.384 -0.397 -0.397
 0.144  0.978 -0.147 -0.320 -0.383 -0.397 -0.397
 0.146  0.980 -0.145 -0.319 -0.382 -0.396 -0.396
 0.148  0.982 -0.143 -0.318 -0.382 -0.395 -0.395
 0.150  0.983 -0.142 -0.318 -0.381 -0.395 -0.395
 0.152  0.985 -0.140 -0.317 -0.380 -0.394 -0.394
 0.154  0.986 -0.138 -0.316 -0.379 -0.394 -0.394
 0.156  0.988 -0.137 -0.315 -0.378 -0.393 -0.393
 0.158  0.990 -0.135 -0.314 -0.378 -0.393 -0.393
 0.160  0.992 -0.133 -0.313 -0.377 -0.392 -0.392
 0.162  0.993 -0.131 -0.312 -0.377 -0.391 -0.391
 0.164  0.995 -0.130 -0.311 -0.376 -0.391 -0.391
 0.166  0.996 -0.128 -0.311 -0.375 -0.390 -0.390
 0.168  0.998 -0.126 -0.310 -0.374 -0.390 -0.390
 0.170  1.000 -0.124 -0.309 -0.374 -0.389 -0.389
 0.172  1.001 -0.122 -0.308 -0.373 -0.389 -0.389
 0.174  1.003 -0.120 -0.307 -0.372 -0.388 -0.388
 0.176  1.005 -0.119 -0.306 -0.372 -0.388 -0.388
 0.178  1.007 -0.117 -0.305 -0.371 -0.387 -0.387
 0.180  1.008 -0.115 -0.304 -0.370 -0.386 -0.386
 0.182  1.010 -0.113 -0.303 -0.369 -0.386 -0.386
 0.184  1.012 -0.111 -0.302 -0.369 -0.385 -0.385
 0.186  1.013 -0.110 -0.300 -0.368 -0.385 -0.385
 0.188  1.015 -0.108 -0.299 -0.367 -0.384 -0.384
 0.190  1.017 -0.106 -0.298 -0.367 -0.384 -0.384
 0.192  1.018 -0.104 -0.297 -0.366 -0.383 -0.383
 0.194  1.020 -0.102 -0.296 -0.365 -0.383 -0.383
 0.196  1.022 -0.100 -0.295 -0.364 -0.382 -0.382
 0.198  1.024 -0.098 -0.294 -0.364 -0.381 -0.381
 0.200  1.025 -0.096 -0.293 -0.363 -0.381 -0.381
 0.202  1.027 -0.094 -0.291 -0.362 -0.380 -0.380
 0.204  1.029 -0.093 -0.290 -0.362 -0.380 -0.380
 0.206  1.030 -0.090 -0.289 -0.361 -0.379 -0.379
 0.208  1.032 -0.089 -0.288 -0.360 -0.379 -0.379
 0.210  1.034 -0.087 -0.286 -0.359 -0.378 -0.378
 0.212  1.036 -0.085 -0.285 -0.359 -0.378 -0.378
 0.214  1.038 -0.083 -0.284 -0.358 -0.377 -0.377
 0.216  1.040 -0.080 -0.283 -0.357 -0.377 -0.377
 0.218  1.042 -0.079 -0.281 -0.356 -0.376 -0.376
 0.220  1.043 -0.077 -0.280 -0.356 -0.376 -0.376
 0.222  1.045 -0.075 -0.279 -0.355 -0.375 -0.375
 0.224  1.047 -0.073 -0.277 -0.354 -0.375 -0.375
 0.226  1.049 -0.071 -0.276 -0.354 -0.374 -0.374
 0.228  1.050 -0.069 -0.274 -0.353 -0.373 -0.373
 0.230  1.052 -0.067 -0.273 -0.352 -0.373 -0.373
 0.232  1.054 -0.065 -0.272 -0.351 -0.372 -0.372
 0.234  1.055 -0.063 -0.271 -0.351 -0.372 -0.372
 0.236  1.057 -0.061 -0.269 -0.350 -0.371 -0.371
 0.238  1.059 -0.059 -0.268 -0.349 -0.371 -0.371
 0.240  1.061 -0.057 -0.266 -0.348 -0.370 -0.370
 0.242  1.063 -0.055 -0.265 -0.348 -0.370 -0.370
 0.244  1.064 -0.053 -0.264 -0.347 -0.369 -0.369
 0.246  1.066 -0.051 -0.262 -0.346 -0.369 -0.369
 0.248  1.067 -0.049 -0.261 -0.345 -0.368 -0.368
 0.250  1.069 -0.047 -0.260 -0.345 -0.368 -0.368
 0.252  1.071 -0.045 -0.259 -0.344 -0.367 -0.367
 0.254  1.073 -0.043 -0.257 -0.343 -0.366 -0.366
 0.256  1.074 -0.041 -0.256 -0.342 -0.366 -0.366
 0.258  1.076 -0.039 -0.254 -0.341 -0.365 -0.365
 0.260  1.077 -0.037 -0.253 -0.341 -0.365 -0.365
 0.262  1.079 -0.035 -0.252 -0.340 -0.364 -0.364
 0.264  1.081 -0.034 -0.251 -0.339 -0.363 -0.363
 0.266  1.082 -0.031 -0.249 -0.338 -0.363 -0.363
 0.268  1.084 -0.030 -0.248 -0.337 -0.362 -0.362
 0.270  1.086 -0.027 -0.246 -0.337 -0.362 -0.362
 0.272  1.087 -0.026 -0.245 -0.336 -0.361 -0.361
 0.274  1.089 -0.024 -0.244 -0.335 -0.360 -0.360
 0.276  1.090 -0.022 -0.242 -0.334 -0.360 -0.360
 0.278  1.092 -0.020 -0.241 -0.333 -0.359 -0.359
 0.280  1.093 -0.018 -0.240 -0.332 -0.359 -0.359
 0.282  1.095 -0.016 -0.238 -0.332 -0.358 -0.358
 0.284  1.097 -0.014 -0.237 -0.331 -0.357 -0.357
 0.286  1.098 -0.012 -0.236 -0.330 -0.357 -0.357
 0.288  1.100 -0.011 -0.234 -0.329 -0.356 -0.356
 0.290  1.101 -0.008 -0.233 -0.328 -0.355 -0.355
 0.292  1.102 -0.007 -0.232 -0.327 -0.354 -0.354
 0.294  1.104 -0.005 -0.230 -0.327 -0.354 -0.354
 0.296  1.105 -0.003 -0.229 -0.326 -0.353 -0.353
 0.298  1.107 -0.001 -0.228 -0.325 -0.352 -0.352
 0.300  1.108  0.001 -0.227 -0.324 -0.352 -0.352
 0.302  1.110  0.003 -0.225 -0.323 -0.351 -0.351
 0.304  1.111  0.004 -0.224 -0.322 -0.350 -0.350
 0.306  1.112  0.006 -0.223 -0.322 -0.349 -0.349
 0.308  1.114  0.008 -0.221 -0.321 -0.349 -0.349
 0.310  1.115  0.009 -0.220 -0.320 -0.348 -0.348
 0.312  1.117  0.011 -0.219 -0.319 -0.347 -0.347
 0.314  1.118  0.013 -0.218 -0.318 -0.346 -0.346
 0.316  1.120  0.014 -0.217 -0.317 -0.346 -0.346
 0.318  1.121  0.016 -0.216 -0.316 -0.345 -0.345
 0.320  1.123  0.017 -0.215 -0.316 -0.344 -0.344
 0.322  1.124  0.019 -0.213 -0.315 -0.343 -0.343
 0.324  1.125  0.020 -0.212 -0.314 -0.343 -0.343
 0.326  1.126  0.022 -0.211 -0.313 -0.342 -0.342
 0.328  1.128  0.023 -0.210 -0.312 -0.341 -0.341
 0.330  1.129  0.025 -0.209 -0.311 -0.341 -0.341
 0.332  1.130  0.026 -0.208 -0.311 -0.340 -0.340
 0.334  1.132  0.028 -0.207 -0.310 -0.339 -0.339
 0.336  1.133  0.029 -0.206 -0.309 -0.338 -0.338
 0.338  1.134  0.031 -0.205 -0.308 -0.338 -0.338
 0.340  1.136  0.032 -0.204 -0.307 -0.337 -0.337
 0.342  1.137  0.033 -0.203 -0.306 -0.336 -0.336
 0.344  1.138  0.035 -0.202 -0.306 -0.336 -0.336
 0.346  1.139  0.036 -0.201 -0.305 -0.335 -0.335
 0.348  1.141  0.037 -0.200 -0.304 -0.335 -0.335
 0.350  1.142  0.039 -0.200 -0.303 -0.334 -0.334
 0.352  1.143  0.040 -0.199 -0.302 -0.333 -0.333
 0.354  1.144  0.041 -0.198 -0.302 -0.333 -0.333
 0.356  1.146  0.042 -0.197 -0.301 -0.332 -0.332
 0.358  1.147  0.043 -0.196 -0.300 -0.331 -0.331
 0.360  1.148  0.044 -0.196 -0.299 -0.331 -0.331
 0.362  1.149  0.046 -0.195 -0.298 -0.330 -0.330
 0.364  1.150  0.047 -0.194 -0.298 -0.329 -0.329
 0.366  1.151  0.048 -0.193 -0.297 -0.329 -0.329
 0.368  1.153  0.049 -0.192 -0.296 -0.328 -0.328
 0.370  1.154  0.050 -0.192 -0.295 -0.328 -0.328
 0.372  1.155  0.051 -0.191 -0.295 -0.327 -0.327
 0.374  1.156  0.053 -0.190 -0.294 -0.327 -0.327
 0.376  1.158  0.054 -0.189 -0.293 -0.326 -0.326
 0.378  1.159  0.055 -0.188 -0.292 -0.325 -0.325
 0.380  1.160  0.056 -0.187 -0.291 -0.325 -0.325
 0.382  1.161  0.057 -0.187 -0.291 -0.324 -0.324
 0.384  1.162  0.059 -0.186 -0.290 -0.324 -0.324
 0.386  1.163  0.060 -0.185 -0.289 -0.323 -0.323
 0.388  1.165  0.061 -0.185 -0.288 -0.323 -0.323
 0.390  1.166  0.062 -0.184 -0.288 -0.322 -0.322
 0.392  1.167  0.063 -0.183 -0.287 -0.321 -0.321
 0.394  1.168  0.065 -0.182 -0.286 -0.321 -0.321
 0.396  1.170  0.066 -0.181 -0.285 -0.320 -0.320
 0.398  1.171  0.067 -0.181 -0.285 -0.319 -0.319
 0.400  1.172  0.069 -0.180 -0.284 -0.319 -0.319
 0.402  1.173  0.070 -0.179 -0.283 -0.318 -0.318
 0.404  1.174  0.071 -0.178 -0.282 -0.318 -0.318
 0.406  1.176  0.073 -0.177 -0.282 -0.317 -0.317
 0.408  1.177  0.074 -0.177 -0.281 -0.316 -0.316
 0.410  1.178  0.075 -0.176 -0.280 -0.316 -0.316
 0.412  1.180  0.076 -0.175 -0.280 -0.315 -0.315
 0.414  1.181  0.078 -0.174 -0.279 -0.314 -0.314
 0.416  1.182  0.079 -0.174 -0.278 -0.314 -0.314
 0.418  1.183  0.081 -0.173 -0.278 -0.313 -0.313
 0.420  1.184  0.082 -0.172 -0.277 -0.312 -0.312
 0.422  1.186  0.083 -0.171 -0.276 -0.311 -0.311
 0.424  1.187  0.085 -0.170 -0.276 -0.311 -0.311
 0.426  1.188  0.086 -0.170 -0.275 -0.310 -0.310
 0.428  1.190  0.088 -0.169 -0.274 -0.309 -0.309
 0.430  1.191  0.089 -0.168 -0.274 -0.309 -0.309
 0.432  1.193  0.090 -0.167 -0.273 -0.308 -0.308
 0.434  1.194  0.092 -0.166 -0.272 -0.307 -0.307
 0.436  1.195  0.093 -0.166 -0.272 -0.306 -0.306
 0.438  1.196  0.095 -0.165 -0.271 -0.305 -0.305
 0.440  1.197  0.096 -0.164 -0.271 -0.305 -0.305
 0.442  1.199  0.097 -0.163 -0.270 -0.304 -0.304
 0.444  1.200  0.099 -0.163 -0.269 -0.303 -0.303
 0.446  1.201  0.100 -0.162 -0.269 -0.302 -0.302
 0.448  1.203  0.101 -0.161 -0.268 -0.302 -0.302
 0.450  1.204  0.102 -0.161 -0.268 -0.301 -0.301
 0.452  1.205  0.104 -0.160 -0.267 -0.300 -0.300
 0.454  1.206  0.105 -0.159 -0.266 -0.299 -0.299
 0.456  1.207  0.106 -0.158 -0.266 -0.298 -0.298
 0.458  1.208  0.107 -0.158 -0.265 -0.298 -0.298
 0.460  1.209  0.109 -0.157 -0.264 -0.297 -0.297
 0.462  1.211  0.110 -0.156 -0.264 -0.296 -0.296
 0.464  1.212  0.111 -0.155 -0.263 -0.295 -0.295
 0.466  1.213  0.112 -0.155 -0.263 -0.295 -0.295
 0.468  1.214  0.113 -0.154 -0.262 -0.294 -0.294
 0.470  1.215  0.114 -0.153 -0.261 -0.293 -0.293
 0.472  1.216  0.115 -0.152 -0.261 -0.293 -0.293
 0.474  1.217  0.116 -0.152 -0.260 -0.292 -0.292
 0.476  1.218  0.117 -0.151 -0.259 -0.291 -0.291
 0.478  1.218  0.118 -0.151 -0.259 -0.291 -0.291
 0.480  1.219  0.119 -0.150 -0.258 -0.290 -0.290
 0.482  1.220  0.120 -0.149 -0.258 -0.290 -0.290
 0.484  1.221  0.121 -0.149 -0.257 -0.289 -0.289
 0.486  1.222  0.122 -0.148 -0.256 -0.288 -0.288
 0.488  1.223  0.122 -0.147 -0.256 -0.288 -0.288
 0.490  1.223  0.123 -0.147 -0.255 -0.287 -0.287
 0.492  1.224  0.124 -0.146 -0.255 -0.287 -0.287
 0.494  1.225  0.125 -0.145 -0.254 -0.286 -0.286
 0.496  1.226  0.126 -0.145 -0.253 -0.286 -0.286
 0.498  1.226  0.126 -0.144 -0.253 -0.285 -0.285
 0.500  1.227  0.127 -0.143 -0.252 -0.285 -0.285
 0.502  1.228  0.128 -0.143 -0.252 -0.284 -0.284
 0.504  1.228  0.129 -0.142 -0.251 -0.284 -0.284
 0.506  1.229  0.129 -0.142 -0.250 -0.283 -0.283
 0.508  1.230  0.130 -0.141 -0.250 -0.283 -0.283
 0.510  1.230  0.130 -0.140 -0.249 -0.282 -0.282
 0.512  1.230  0.131 -0.140 -0.249 -0.282 -0.282
 0.514  1.231  0.132 -0.139 -0.248 -0.281 -0.281
 0.516  1.231  0.132 -0.139 -0.248 -0.281 -0.281
 0.518  1.232  0.133 -0.138 -0.247 -0.281 -0.281
 0.520  1.232  0.134 -0.138 -0.246 -0.280 -0.280
 0.522  1.233  0.134 -0.137 -0.246 -0.280 -0.280
 0.524  1.233  0.135 -0.137 -0.245 -0.280 -0.280
 0.526  1.234  0.136 -0.136 -0.245 -0.279 -0.279
 0.528  1.234  0.136 -0.136 -0.244 -0.279 -0.279
 0.530  1.235  0.137 -0.135 -0.243 -0.278 -0.278
 0.532  1.235  0.137 -0.134 -0.243 -0.278 -0.278
 0.534  1.236  0.138 -0.134 -0.243 -0.278 -0.278
 0.536  1.236  0.139 -0.133 -0.242 -0.277 -0.277
 0.538  1.237  0.139 -0.133 -0.242 -0.277 -0.277
 0.540  1.237  0.139 -0.132 -0.241 -0.277 -0.277
 0.542  1.237  0.140 -0.132 -0.241 -0.276 -0.276
 0.544  1.238  0.141 -0.131 -0.240 -0.276 -0.276
 0.546  1.238  0.141 -0.131 -0.240 -0.276 -0.276
 0.548  1.238  0.142 -0.130 -0.239 -0.275 -0.275
 0.550  1.239  0.142 -0.130 -0.239 -0.275 -0.275
 0.552  1.239  0.143 -0.129 -0.239 -0.274 -0.274
 0.554  1.240  0.143 -0.129 -0.238 -0.274 -0.274
 0.556  1.240  0.144 -0.129 -0.238 -0.274 -0.274
 0.558  1.240  0.144 -0.128 -0.237 -0.273 -0.273
 0.560  1.240  0.145 -0.128 -0.237 -0.273 -0.273
 0.562  1.241  0.146 -0.127 -0.237 -0.273 -0.273
 0.564  1.241  0.146 -0.127 -0.236 -0.272 -0.272
 0.566  1.241  0.146 -0.127 -0.236 -0.272 -0.272
 0.568  1.242  0.147 -0.126 -0.235 -0.271 -0.271
 0.570  1.242  0.147 -0.126 -0.235 -0.271 -0.271
 0.572  1.242  0.148 -0.125 -0.235 -0.271 -0.271
 0.574  1.242  0.148 -0.125 -0.235 -0.270 -0.270
 0.576  1.242  0.149 -0.125 -0.234 -0.270 -0.270
 0.578  1.242  0.149 -0.124 -0.234 -0.270 -0.270
 0.580  1.242  0.149 -0.124 -0.234 -0.269 -0.269
 0.582  1.243  0.150 -0.123 -0.234 -0.269 -0.269
 0.584  1.243  0.150 -0.123 -0.233 -0.268 -0.268
 0.586  1.243  0.151 -0.122 -0.233 -0.268 -0.268
 0.588  1.243  0.151 -0.122 -0.233 -0.268 -0.268
 0.590  1.243  0.152 -0.122 -0.232 -0.267 -0.267
 0.592  1.244  0.152 -0.121 -0.232 -0.267 -0.267
 0.594  1.244  0.152 -0.121 -0.232 -0.267 -0.267
 0.596  1.244  0.152 -0.120 -0.232 -0.266 -0.266
 0.598  1.244  0.153 -0.120 -0.231 -0.266 -0.266
 0.600  1.244  0.153 -0.119 -0.231 -0.265 -0.265
 0.602  1.245  0.154 -0.119 -0.231 -0.265 -0.265
 0.604  1.245  0.154 -0.118 -0.231 -0.265 -0.265
 0.606  1.245  0.154 -0.118 -0.230 -0.264 -0.264
 0.608  1.245  0.154 -0.118 -0.230 -0.264 -0.264
 0.610  1.245  0.155 -0.117 -0.229 -0.263 -0.263
 0.612  1.246  0.155 -0.117 -0.229 -0.263 -0.263
 0.614  1.246  0.155 -0.116 -0.229 -0.262 -0.262
 0.616  1.246  0.155 -0.116 -0.228 -0.262 -0.262
 0.618  1.246  0.156 -0.115 -0.228 -0.261 -0.261
 0.620  1.247  0.156 -0.115 -0.228 -0.261 -0.261
 0.622  1.247  0.156 -0.114 -0.227 -0.261 -0.261
 0.624  1.247  0.156 -0.114 -0.227 -0.260 -0.260
 0.626  1.247  0.156 -0.113 -0.226 -0.260 -0.260
 0.628  1.247  0.156 -0.113 -0.226 -0.259 -0.259
 0.630  1.248  0.156 -0.112 -0.226 -0.259 -0.259
 0.632  1.248  0.156 -0.111 -0.225 -0.258 -0.258
 0.634  1.248  0.156 -0.111 -0.225 -0.258 -0.258
 0.636  1.248  0.156 -0.110 -0.224 -0.257 -0.257
 0.638  1.249  0.156 -0.110 -0.224 -0.256 -0.256
 0.640  1.249  0.157 -0.109 -0.223 -0.256 -0.256
 0.642  1.249  0.157 -0.109 -0.223 -0.255 -0.255
 0.644  1.249  0.157 -0.108 -0.222 -0.255 -0.255
 0.646  1.250  0.157 -0.107 -0.222 -0.254 -0.254
 0.648  1.250  0.157 -0.107 -0.221 -0.254 -0.254
 0.650  1.250  0.157 -0.106 -0.221 -0.253 -0.253
 0.652  1.250  0.157 -0.106 -0.221 -0.253 -0.253
 0.654  1.250  0.157 -0.105 -0.220 -0.252 -0.252
 0.656  1.251  0.157 -0.104 -0.219 -0.251 -0.251
 0.658  1.251  0.157 -0.104 -0.219 -0.251 -0.251
 0.660  1.251  0.157 -0.103 -0.218 -0.250 -0.250
 0.662  1.252  0.158 -0.102 -0.218 -0.250 -0.250
 0.664  1.252  0.158 -0.101 -0.217 -0.249 -0.249
 0.666  1.252  0.158 -0.101 -0.216 -0.248 -0.248
 0.668  1.252  0.159 -0.100 -0.216 -0.248 -0.248
 0.670  1.253  0.159 -0.099 -0.215 -0.247 -0.247
 0.672  1.253  0.159 -0.098 -0.214 -0.246 -0.246
 0.674  1.253  0.159 -0.097 -0.213 -0.246 -0.246
 0.676  1.253  0.160 -0.096 -0.213 -0.245 -0.245
 0.678  1.253  0.160 -0.095 -0.212 -0.244 -0.244
 0.680  1.254  0.161 -0.094 -0.211 -0.243 -0.243
 0.682  1.254  0.161 -0.093 -0.210 -0.242 -0.242
 0.684  1.254  0.162 -0.092 -0.209 -0.242 -0.242
 0.686  1.255  0.162 -0.091 -0.208 -0.241 -0.241
 0.688  1.255  0.163 -0.090 -0.207 -0.240 -0.240
 0.690  1.255  0.164 -0.089 -0.206 -0.239 -0.239
 0.692  1.256  0.164 -0.088 -0.205 -0.238 -0.238
 0.694  1.256  0.165 -0.087 -0.204 -0.237 -0.237
 0.696  1.256  0.166 -0.085 -0.203 -0.236 -0.236
 0.698  1.257  0.166 -0.085 -0.202 -0.235 -0.235
 0.700  1.257  0.167 -0.083 -0.201 -0.234 -0.234
 0.702  1.258  0.168 -0.082 -0.200 -0.233 -0.233
 0.704  1.258  0.169 -0.081 -0.198 -0.232 -0.232
 0.706  1.258  0.170 -0.079 -0.197 -0.231 -0.231
 0.708  1.259  0.171 -0.078 -0.196 -0.230 -0.230
 0.710  1.259  0.172 -0.077 -0.195 -0.229 -0.229
 0.712  1.260  0.173 -0.075 -0.193 -0.228 -0.228
 0.714  1.260  0.174 -0.074 -0.192 -0.227 -0.227
 0.716  1.260  0.175 -0.073 -0.190 -0.225 -0.225
 0.718  1.261  0.176 -0.071 -0.189 -0.224 -0.224
 0.720  1.261  0.177 -0.070 -0.187 -0.223 -0.223
 0.722  1.262  0.178 -0.069 -0.186 -0.222 -0.222
 0.724  1.262  0.179 -0.068 -0.184 -0.220 -0.220
 0.726  1.263  0.179 -0.067 -0.183 -0.219 -0.219
 0.728  1.263  0.180 -0.066 -0.181 -0.218 -0.218
 0.730  1.264  0.181 -0.065 -0.180 -0.216 -0.216
 0.732  1.265  0.181 -0.065 -0.179 -0.215 -0.215
 0.734  1.265  0.182 -0.065 -0.177 -0.213 -0.213
 0.736  1.265  0.182 -0.065 -0.176 -0.212 -0.212
 0.738  1.266  0.182 -0.065 -0.175 -0.211 -0.211
 0.740  1.267  0.182 -0.065 -0.173 -0.209 -0.209
 0.742  1.268  0.182 -0.066 -0.172 -0.208 -0.208
 0.744  1.269  0.182 -0.067 -0.171 -0.207 -0.207
 0.746  1.270  0.182 -0.068 -0.170 -0.206 -0.206
 0.748  1.271  0.181 -0.069 -0.169 -0.204 -0.204
 0.750  1.272  0.181 -0.070 -0.169 -0.203 -0.203
 0.752  1.273  0.180 -0.071 -0.168 -0.202 -0.202
 0.754  1.274  0.180 -0.073 -0.167 -0.201 -0.201
 0.756  1.275  0.179 -0.074 -0.167 -0.200 -0.200
 0.758  1.276  0.178 -0.076 -0.166 -0.199 -0.199
 0.760  1.277  0.177 -0.078 -0.166 -0.199 -0.199
 0.762  1.278  0.176 -0.080 -0.166 -0.198 -0.198
 0.764  1.279  0.176 -0.083 -0.165 -0.197 -0.197
 0.766  1.281  0.174 -0.085 -0.165 -0.197 -0.197
 0.768  1.282  0.173 -0.088 -0.165 -0.196 -0.196
 0.770  1.283  0.172 -0.091 -0.165 -0.195 -0.195
 0.772  1.285  0.170 -0.094 -0.165 -0.195 -0.195
 0.774  1.287  0.169 -0.097 -0.165 -0.195 -0.195
 0.776  1.288  0.167 -0.101 -0.166 -0.194 -0.194
 0.778  1.289  0.166 -0.104 -0.166 -0.194 -0.194
 0.780  1.291  0.164 -0.108 -0.166 -0.194 -0.194
 0.782  1.293  0.162 -0.112 -0.166 -0.194 -0.194
 0.784  1.295  0.160 -0.116 -0.167 -0.193 -0.193
 0.786  1.297  0.158 -0.120 -0.168 -0.193 -0.193
 0.788  1.298  0.156 -0.125 -0.168 -0.193 -0.193
 0.790  1.300  0.153 -0.129 -0.169 -0.193 -0.193
 0.792  1.302  0.151 -0.134 -0.170 -0.193 -0.193
 0.794  1.303  0.148 -0.138 -0.171 -0.194 -0.194
 0.796  1.305  0.146 -0.142 -0.172 -0.194 -0.194
 0.798  1.307  0.142 -0.147 -0.173 -0.194 -0.194
 0.800  1.308  0.139 -0.151 -0.174 -0.194 -0.194
 0.802  1.310  0.136 -0.156 -0.175 -0.195 -0.195
 0.804  1.311  0.133 -0.161 -0.176 -0.195 -0.195
 0.806  1.312  0.130 -0.165 -0.178 -0.196 -0.196
 0.808  1.312  0.127 -0.170 -0.179 -0.196 -0.196
