# IsPeriodic    : True
# Period        : 0.607426 days
# Normalization : <g_mag>=0
# 
# Phase u_mag  g_mag  r_mag  i_mag  z_mag  y_mag
 0.000  0.809 -0.347 -0.419 -0.424 -0.412 -0.412
 0.002  0.809 -0.347 -0.419 -0.424 -0.412 -0.412
 0.004  0.809 -0.347 -0.419 -0.424 -0.412 -0.412
 0.006  0.810 -0.347 -0.419 -0.424 -0.411 -0.411
 0.008  0.810 -0.346 -0.418 -0.423 -0.411 -0.411
 0.010  0.811 -0.346 -0.418 -0.423 -0.411 -0.411
 0.012  0.812 -0.345 -0.418 -0.423 -0.411 -0.411
 0.014  0.814 -0.344 -0.417 -0.423 -0.410 -0.410
 0.016  0.815 -0.343 -0.417 -0.423 -0.410 -0.410
 0.018  0.817 -0.342 -0.416 -0.422 -0.410 -0.410
 0.020  0.818 -0.340 -0.416 -0.422 -0.410 -0.410
 0.022  0.820 -0.339 -0.415 -0.421 -0.409 -0.409
 0.024  0.822 -0.338 -0.414 -0.421 -0.409 -0.409
 0.026  0.824 -0.336 -0.414 -0.420 -0.408 -0.408
 0.028  0.825 -0.335 -0.413 -0.420 -0.408 -0.408
 0.030  0.828 -0.334 -0.412 -0.419 -0.407 -0.407
 0.032  0.830 -0.332 -0.411 -0.419 -0.406 -0.406
 0.034  0.831 -0.330 -0.410 -0.418 -0.406 -0.406
 0.036  0.834 -0.328 -0.409 -0.417 -0.405 -0.405
 0.038  0.836 -0.327 -0.408 -0.417 -0.405 -0.405
 0.040  0.838 -0.324 -0.406 -0.416 -0.404 -0.404
 0.042  0.840 -0.322 -0.405 -0.415 -0.404 -0.404
 0.044  0.842 -0.320 -0.404 -0.414 -0.403 -0.403
 0.046  0.844 -0.318 -0.402 -0.413 -0.402 -0.402
 0.048  0.847 -0.316 -0.401 -0.412 -0.401 -0.401
 0.050  0.849 -0.314 -0.399 -0.411 -0.401 -0.401
 0.052  0.851 -0.311 -0.398 -0.410 -0.400 -0.400
 0.054  0.854 -0.309 -0.396 -0.409 -0.399 -0.399
 0.056  0.856 -0.306 -0.394 -0.407 -0.398 -0.398
 0.058  0.858 -0.303 -0.393 -0.406 -0.397 -0.397
 0.060  0.861 -0.301 -0.391 -0.405 -0.396 -0.396
 0.062  0.863 -0.298 -0.389 -0.404 -0.395 -0.395
 0.064  0.866 -0.295 -0.387 -0.403 -0.394 -0.394
 0.066  0.869 -0.292 -0.385 -0.401 -0.393 -0.393
 0.068  0.871 -0.289 -0.383 -0.400 -0.392 -0.392
 0.070  0.874 -0.286 -0.381 -0.398 -0.391 -0.391
 0.072  0.877 -0.282 -0.379 -0.397 -0.390 -0.390
 0.074  0.880 -0.279 -0.377 -0.396 -0.389 -0.389
 0.076  0.883 -0.276 -0.375 -0.394 -0.388 -0.388
 0.078  0.885 -0.273 -0.373 -0.393 -0.387 -0.387
 0.080  0.888 -0.269 -0.371 -0.391 -0.386 -0.386
 0.082  0.891 -0.266 -0.369 -0.390 -0.385 -0.385
 0.084  0.894 -0.262 -0.367 -0.389 -0.384 -0.384
 0.086  0.897 -0.259 -0.366 -0.387 -0.383 -0.383
 0.088  0.900 -0.255 -0.364 -0.386 -0.382 -0.382
 0.090  0.903 -0.252 -0.362 -0.385 -0.381 -0.381
 0.092  0.906 -0.248 -0.360 -0.383 -0.380 -0.380
 0.094  0.909 -0.245 -0.359 -0.382 -0.379 -0.379
 0.096  0.912 -0.242 -0.357 -0.381 -0.378 -0.378
 0.098  0.915 -0.238 -0.355 -0.380 -0.377 -0.377
 0.100  0.918 -0.235 -0.353 -0.379 -0.376 -0.376
 0.102  0.921 -0.232 -0.352 -0.377 -0.375 -0.375
 0.104  0.924 -0.229 -0.350 -0.376 -0.374 -0.374
 0.106  0.927 -0.226 -0.349 -0.375 -0.373 -0.373
 0.108  0.930 -0.222 -0.347 -0.374 -0.372 -0.372
 0.110  0.933 -0.219 -0.346 -0.373 -0.371 -0.371
 0.112  0.935 -0.216 -0.344 -0.372 -0.370 -0.370
 0.114  0.938 -0.213 -0.343 -0.371 -0.369 -0.369
 0.116  0.941 -0.211 -0.341 -0.370 -0.369 -0.369
 0.118  0.943 -0.208 -0.340 -0.369 -0.368 -0.368
 0.120  0.946 -0.205 -0.338 -0.368 -0.367 -0.367
 0.122  0.949 -0.202 -0.337 -0.367 -0.366 -0.366
 0.124  0.951 -0.199 -0.335 -0.366 -0.365 -0.365
 0.126  0.954 -0.197 -0.334 -0.366 -0.364 -0.364
 0.128  0.956 -0.194 -0.333 -0.365 -0.364 -0.364
 0.130  0.959 -0.191 -0.331 -0.364 -0.363 -0.363
 0.132  0.961 -0.188 -0.330 -0.363 -0.362 -0.362
 0.134  0.964 -0.186 -0.329 -0.363 -0.361 -0.361
 0.136  0.966 -0.183 -0.327 -0.362 -0.360 -0.360
 0.138  0.969 -0.181 -0.326 -0.361 -0.359 -0.359
 0.140  0.971 -0.179 -0.325 -0.360 -0.359 -0.359
 0.142  0.973 -0.176 -0.324 -0.360 -0.358 -0.358
 0.144  0.976 -0.174 -0.322 -0.359 -0.357 -0.357
 0.146  0.978 -0.172 -0.321 -0.358 -0.357 -0.357
 0.148  0.980 -0.169 -0.320 -0.358 -0.356 -0.356
 0.150  0.982 -0.167 -0.318 -0.357 -0.355 -0.355
 0.152  0.984 -0.165 -0.317 -0.357 -0.354 -0.354
 0.154  0.987 -0.162 -0.316 -0.356 -0.354 -0.354
 0.156  0.989 -0.161 -0.315 -0.355 -0.353 -0.353
 0.158  0.991 -0.158 -0.314 -0.354 -0.352 -0.352
 0.160  0.993 -0.156 -0.312 -0.354 -0.352 -0.352
 0.162  0.995 -0.154 -0.311 -0.353 -0.351 -0.351
 0.164  0.997 -0.152 -0.310 -0.352 -0.350 -0.350
 0.166  1.000 -0.150 -0.308 -0.352 -0.349 -0.349
 0.168  1.002 -0.147 -0.307 -0.351 -0.348 -0.348
 0.170  1.004 -0.145 -0.306 -0.350 -0.348 -0.348
 0.172  1.006 -0.143 -0.305 -0.350 -0.347 -0.347
 0.174  1.008 -0.140 -0.303 -0.349 -0.346 -0.346
 0.176  1.010 -0.138 -0.302 -0.348 -0.346 -0.346
 0.178  1.013 -0.136 -0.301 -0.347 -0.345 -0.345
 0.180  1.015 -0.133 -0.300 -0.346 -0.344 -0.344
 0.182  1.017 -0.131 -0.299 -0.346 -0.343 -0.343
 0.184  1.020 -0.129 -0.297 -0.345 -0.342 -0.342
 0.186  1.022 -0.126 -0.296 -0.344 -0.342 -0.342
 0.188  1.024 -0.124 -0.295 -0.343 -0.341 -0.341
 0.190  1.026 -0.122 -0.293 -0.342 -0.340 -0.340
 0.192  1.029 -0.119 -0.292 -0.342 -0.339 -0.339
 0.194  1.031 -0.117 -0.291 -0.341 -0.339 -0.339
 0.196  1.033 -0.114 -0.289 -0.340 -0.338 -0.338
 0.198  1.036 -0.112 -0.288 -0.339 -0.337 -0.337
 0.200  1.038 -0.110 -0.287 -0.338 -0.336 -0.336
 0.202  1.041 -0.107 -0.285 -0.337 -0.336 -0.336
 0.204  1.043 -0.104 -0.284 -0.336 -0.335 -0.335
 0.206  1.045 -0.102 -0.283 -0.336 -0.334 -0.334
 0.208  1.048 -0.100 -0.282 -0.335 -0.333 -0.333
 0.210  1.050 -0.097 -0.281 -0.334 -0.332 -0.332
 0.212  1.053 -0.095 -0.279 -0.333 -0.331 -0.331
 0.214  1.055 -0.092 -0.278 -0.332 -0.331 -0.331
 0.216  1.057 -0.089 -0.277 -0.331 -0.330 -0.330
 0.218  1.060 -0.086 -0.275 -0.330 -0.329 -0.329
 0.220  1.062 -0.084 -0.274 -0.329 -0.328 -0.328
 0.222  1.065 -0.081 -0.273 -0.328 -0.328 -0.328
 0.224  1.068 -0.079 -0.271 -0.327 -0.327 -0.327
 0.226  1.070 -0.076 -0.270 -0.326 -0.326 -0.326
 0.228  1.073 -0.074 -0.269 -0.326 -0.325 -0.325
 0.230  1.075 -0.071 -0.267 -0.325 -0.324 -0.324
 0.232  1.078 -0.068 -0.266 -0.324 -0.324 -0.324
 0.234  1.080 -0.066 -0.265 -0.323 -0.323 -0.323
 0.236  1.083 -0.063 -0.263 -0.322 -0.322 -0.322
 0.238  1.086 -0.061 -0.262 -0.321 -0.321 -0.321
 0.240  1.088 -0.059 -0.261 -0.320 -0.320 -0.320
 0.242  1.090 -0.056 -0.260 -0.319 -0.320 -0.320
 0.244  1.093 -0.054 -0.258 -0.318 -0.319 -0.319
 0.246  1.095 -0.052 -0.257 -0.317 -0.318 -0.318
 0.248  1.098 -0.049 -0.256 -0.316 -0.317 -0.317
 0.250  1.100 -0.047 -0.255 -0.316 -0.317 -0.317
 0.252  1.102 -0.045 -0.253 -0.315 -0.316 -0.316
 0.254  1.105 -0.042 -0.252 -0.314 -0.315 -0.315
 0.256  1.107 -0.040 -0.251 -0.313 -0.314 -0.314
 0.258  1.109 -0.038 -0.250 -0.312 -0.314 -0.314
 0.260  1.111 -0.036 -0.248 -0.311 -0.313 -0.313
 0.262  1.113 -0.034 -0.247 -0.310 -0.312 -0.312
 0.264  1.115 -0.032 -0.246 -0.309 -0.311 -0.311
 0.266  1.118 -0.030 -0.244 -0.308 -0.311 -0.311
 0.268  1.120 -0.028 -0.243 -0.307 -0.310 -0.310
 0.270  1.122 -0.026 -0.242 -0.306 -0.309 -0.309
 0.272  1.124 -0.024 -0.240 -0.306 -0.309 -0.309
 0.274  1.126 -0.022 -0.239 -0.305 -0.308 -0.308
 0.276  1.128 -0.020 -0.238 -0.303 -0.307 -0.307
 0.278  1.130 -0.019 -0.236 -0.303 -0.306 -0.306
 0.280  1.132 -0.017 -0.235 -0.302 -0.306 -0.306
 0.282  1.134 -0.015 -0.234 -0.301 -0.305 -0.305
 0.284  1.136 -0.013 -0.232 -0.300 -0.304 -0.304
 0.286  1.138 -0.012 -0.231 -0.299 -0.303 -0.303
 0.288  1.140 -0.010 -0.230 -0.298 -0.303 -0.303
 0.290  1.142 -0.008 -0.228 -0.297 -0.302 -0.302
 0.292  1.144 -0.006 -0.227 -0.296 -0.301 -0.301
 0.294  1.145 -0.005 -0.226 -0.295 -0.301 -0.301
 0.296  1.147 -0.003 -0.225 -0.294 -0.300 -0.300
 0.298  1.149 -0.002 -0.223 -0.293 -0.299 -0.299
 0.300  1.151 -0.001 -0.222 -0.293 -0.298 -0.298
 0.302  1.152  0.001 -0.221 -0.292 -0.298 -0.298
 0.304  1.154  0.003 -0.220 -0.291 -0.297 -0.297
 0.306  1.155  0.005 -0.218 -0.290 -0.296 -0.296
 0.308  1.157  0.006 -0.217 -0.289 -0.296 -0.296
 0.310  1.159  0.008 -0.216 -0.288 -0.295 -0.295
 0.312  1.161  0.009 -0.214 -0.287 -0.294 -0.294
 0.314  1.162  0.011 -0.213 -0.286 -0.293 -0.293
 0.316  1.164  0.013 -0.212 -0.285 -0.292 -0.292
 0.318  1.166  0.015 -0.211 -0.284 -0.292 -0.292
 0.320  1.167  0.016 -0.210 -0.283 -0.291 -0.291
 0.322  1.169  0.018 -0.208 -0.282 -0.290 -0.290
 0.324  1.171  0.020 -0.207 -0.281 -0.290 -0.290
 0.326  1.172  0.022 -0.206 -0.280 -0.289 -0.289
 0.328  1.174  0.023 -0.205 -0.279 -0.288 -0.288
 0.330  1.176  0.025 -0.204 -0.278 -0.287 -0.287
 0.332  1.178  0.027 -0.202 -0.276 -0.286 -0.286
 0.334  1.179  0.028 -0.201 -0.275 -0.286 -0.286
 0.336  1.181  0.030 -0.200 -0.274 -0.285 -0.285
 0.338  1.182  0.033 -0.199 -0.273 -0.284 -0.284
 0.340  1.184  0.034 -0.198 -0.272 -0.283 -0.283
 0.342  1.186  0.036 -0.197 -0.271 -0.282 -0.282
 0.344  1.187  0.038 -0.195 -0.270 -0.281 -0.281
 0.346  1.189  0.040 -0.194 -0.269 -0.280 -0.280
 0.348  1.191  0.042 -0.193 -0.268 -0.280 -0.280
 0.350  1.193  0.044 -0.192 -0.267 -0.279 -0.279
 0.352  1.194  0.046 -0.191 -0.265 -0.278 -0.278
 0.354  1.196  0.048 -0.189 -0.264 -0.277 -0.277
 0.356  1.198  0.050 -0.188 -0.263 -0.276 -0.276
 0.358  1.199  0.052 -0.187 -0.262 -0.275 -0.275
 0.360  1.201  0.054 -0.186 -0.261 -0.275 -0.275
 0.362  1.202  0.056 -0.185 -0.260 -0.274 -0.274
 0.364  1.205  0.058 -0.184 -0.259 -0.273 -0.273
 0.366  1.206  0.060 -0.183 -0.257 -0.272 -0.272
 0.368  1.208  0.062 -0.181 -0.256 -0.271 -0.271
 0.370  1.209  0.064 -0.181 -0.255 -0.270 -0.270
 0.372  1.211  0.066 -0.179 -0.254 -0.270 -0.270
 0.374  1.213  0.069 -0.178 -0.253 -0.269 -0.269
 0.376  1.214  0.070 -0.177 -0.252 -0.268 -0.268
 0.378  1.216  0.072 -0.176 -0.251 -0.267 -0.267
 0.380  1.218  0.074 -0.175 -0.250 -0.266 -0.266
 0.382  1.219  0.076 -0.174 -0.249 -0.266 -0.266
 0.384  1.221  0.078 -0.173 -0.248 -0.265 -0.265
 0.386  1.223  0.080 -0.172 -0.247 -0.264 -0.264
 0.388  1.225  0.082 -0.171 -0.246 -0.263 -0.263
 0.390  1.226  0.084 -0.170 -0.245 -0.262 -0.262
 0.392  1.228  0.085 -0.169 -0.244 -0.262 -0.262
 0.394  1.229  0.087 -0.168 -0.243 -0.261 -0.261
 0.396  1.231  0.089 -0.167 -0.242 -0.260 -0.260
 0.398  1.232  0.091 -0.167 -0.241 -0.259 -0.259
 0.400  1.234  0.092 -0.165 -0.240 -0.258 -0.258
 0.402  1.235  0.094 -0.165 -0.239 -0.258 -0.258
 0.404  1.237  0.095 -0.164 -0.238 -0.257 -0.257
 0.406  1.239  0.097 -0.163 -0.237 -0.256 -0.256
 0.408  1.240  0.099 -0.162 -0.236 -0.255 -0.255
 0.410  1.242  0.100 -0.161 -0.235 -0.255 -0.255
 0.412  1.243  0.102 -0.160 -0.234 -0.254 -0.254
 0.414  1.245  0.103 -0.159 -0.233 -0.253 -0.253
 0.416  1.246  0.104 -0.159 -0.233 -0.252 -0.252
 0.418  1.248  0.106 -0.158 -0.232 -0.252 -0.252
 0.420  1.249  0.107 -0.157 -0.231 -0.251 -0.251
 0.422  1.251  0.109 -0.156 -0.230 -0.250 -0.250
 0.424  1.252  0.110 -0.155 -0.229 -0.249 -0.249
 0.426  1.254  0.111 -0.155 -0.228 -0.249 -0.249
 0.428  1.255  0.113 -0.154 -0.227 -0.248 -0.248
 0.430  1.257  0.114 -0.153 -0.227 -0.247 -0.247
 0.432  1.258  0.115 -0.152 -0.226 -0.247 -0.247
 0.434  1.259  0.116 -0.151 -0.225 -0.246 -0.246
 0.436  1.261  0.117 -0.151 -0.224 -0.245 -0.245
 0.438  1.262  0.118 -0.150 -0.223 -0.244 -0.244
 0.440  1.264  0.120 -0.149 -0.223 -0.244 -0.244
 0.442  1.265  0.121 -0.148 -0.222 -0.243 -0.243
 0.444  1.266  0.122 -0.148 -0.221 -0.242 -0.242
 0.446  1.268  0.123 -0.147 -0.220 -0.241 -0.241
 0.448  1.269  0.124 -0.146 -0.220 -0.241 -0.241
 0.450  1.270  0.125 -0.145 -0.219 -0.240 -0.240
 0.452  1.272  0.126 -0.144 -0.218 -0.240 -0.240
 0.454  1.273  0.127 -0.144 -0.217 -0.239 -0.239
 0.456  1.274  0.128 -0.143 -0.217 -0.238 -0.238
 0.458  1.275  0.129 -0.142 -0.216 -0.237 -0.237
 0.460  1.277  0.130 -0.142 -0.215 -0.237 -0.237
 0.462  1.278  0.131 -0.141 -0.214 -0.236 -0.236
 0.464  1.279  0.132 -0.140 -0.214 -0.235 -0.235
 0.466  1.280  0.133 -0.139 -0.213 -0.235 -0.235
 0.468  1.281  0.134 -0.138 -0.212 -0.234 -0.234
 0.470  1.282  0.135 -0.138 -0.212 -0.233 -0.233
 0.472  1.283  0.136 -0.137 -0.211 -0.232 -0.232
 0.474  1.284  0.137 -0.136 -0.210 -0.232 -0.232
 0.476  1.285  0.138 -0.135 -0.210 -0.231 -0.231
 0.478  1.286  0.139 -0.134 -0.209 -0.230 -0.230
 0.480  1.287  0.139 -0.134 -0.208 -0.230 -0.230
 0.482  1.288  0.140 -0.133 -0.208 -0.229 -0.229
 0.484  1.289  0.141 -0.132 -0.207 -0.228 -0.228
 0.486  1.290  0.142 -0.131 -0.206 -0.228 -0.228
 0.488  1.291  0.143 -0.130 -0.206 -0.227 -0.227
 0.490  1.292  0.144 -0.130 -0.205 -0.226 -0.226
 0.492  1.292  0.144 -0.129 -0.205 -0.225 -0.225
 0.494  1.293  0.145 -0.128 -0.204 -0.225 -0.225
 0.496  1.294  0.146 -0.128 -0.203 -0.224 -0.224
 0.498  1.294  0.147 -0.127 -0.203 -0.224 -0.224
 0.500  1.295  0.147 -0.126 -0.202 -0.223 -0.223
 0.502  1.296  0.148 -0.125 -0.202 -0.222 -0.222
 0.504  1.297  0.149 -0.124 -0.201 -0.221 -0.221
 0.506  1.297  0.150 -0.124 -0.200 -0.221 -0.221
 0.508  1.298  0.150 -0.123 -0.200 -0.220 -0.220
 0.510  1.298  0.151 -0.122 -0.199 -0.219 -0.219
 0.512  1.299  0.151 -0.122 -0.199 -0.219 -0.219
 0.514  1.299  0.153 -0.121 -0.198 -0.218 -0.218
 0.516  1.300  0.153 -0.120 -0.198 -0.218 -0.218
 0.518  1.300  0.154 -0.120 -0.197 -0.217 -0.217
 0.520  1.301  0.154 -0.119 -0.196 -0.216 -0.216
 0.522  1.301  0.155 -0.118 -0.196 -0.216 -0.216
 0.524  1.302  0.156 -0.118 -0.195 -0.215 -0.215
 0.526  1.303  0.156 -0.117 -0.194 -0.214 -0.214
 0.528  1.303  0.157 -0.116 -0.194 -0.214 -0.214
 0.530  1.303  0.157 -0.116 -0.193 -0.213 -0.213
 0.532  1.304  0.158 -0.115 -0.193 -0.213 -0.213
 0.534  1.304  0.158 -0.115 -0.192 -0.212 -0.212
 0.536  1.305  0.158 -0.114 -0.192 -0.212 -0.212
 0.538  1.305  0.159 -0.114 -0.191 -0.211 -0.211
 0.540  1.306  0.160 -0.113 -0.190 -0.211 -0.211
 0.542  1.306  0.160 -0.112 -0.190 -0.210 -0.210
 0.544  1.306  0.160 -0.112 -0.189 -0.209 -0.209
 0.546  1.307  0.161 -0.111 -0.189 -0.209 -0.209
 0.548  1.307  0.161 -0.111 -0.188 -0.208 -0.208
 0.550  1.308  0.161 -0.110 -0.188 -0.208 -0.208
 0.552  1.308  0.162 -0.110 -0.187 -0.207 -0.207
 0.554  1.308  0.162 -0.109 -0.187 -0.207 -0.207
 0.556  1.309  0.162 -0.109 -0.186 -0.207 -0.207
 0.558  1.310  0.162 -0.108 -0.186 -0.206 -0.206
 0.560  1.310  0.163 -0.108 -0.185 -0.206 -0.206
 0.562  1.310  0.163 -0.107 -0.185 -0.205 -0.205
 0.564  1.311  0.164 -0.107 -0.184 -0.205 -0.205
 0.566  1.311  0.164 -0.106 -0.183 -0.204 -0.204
 0.568  1.311  0.164 -0.106 -0.183 -0.204 -0.204
 0.570  1.312  0.164 -0.106 -0.182 -0.203 -0.203
 0.572  1.312  0.164 -0.105 -0.182 -0.203 -0.203
 0.574  1.313  0.164 -0.105 -0.181 -0.202 -0.202
 0.576  1.313  0.165 -0.104 -0.181 -0.202 -0.202
 0.578  1.313  0.165 -0.104 -0.180 -0.202 -0.202
 0.580  1.314  0.165 -0.104 -0.180 -0.201 -0.201
 0.582  1.314  0.165 -0.103 -0.179 -0.201 -0.201
 0.584  1.314  0.165 -0.103 -0.179 -0.200 -0.200
 0.586  1.315  0.165 -0.103 -0.178 -0.200 -0.200
 0.588  1.315  0.165 -0.102 -0.177 -0.199 -0.199
 0.590  1.316  0.165 -0.102 -0.177 -0.199 -0.199
 0.592  1.316  0.165 -0.102 -0.176 -0.199 -0.199
 0.594  1.316  0.165 -0.102 -0.176 -0.198 -0.198
 0.596  1.317  0.165 -0.101 -0.175 -0.198 -0.198
 0.598  1.317  0.166 -0.101 -0.174 -0.197 -0.197
 0.600  1.317  0.166 -0.101 -0.174 -0.197 -0.197
 0.602  1.318  0.166 -0.100 -0.173 -0.196 -0.196
 0.604  1.318  0.166 -0.100 -0.172 -0.196 -0.196
 0.606  1.318  0.166 -0.100 -0.172 -0.196 -0.196
 0.608  1.318  0.166 -0.100 -0.171 -0.195 -0.195
 0.610  1.319  0.167 -0.100 -0.170 -0.195 -0.195
 0.612  1.319  0.167 -0.100 -0.169 -0.194 -0.194
 0.614  1.319  0.167 -0.100 -0.169 -0.194 -0.194
 0.616  1.319  0.167 -0.100 -0.168 -0.193 -0.193
 0.618  1.320  0.167 -0.099 -0.167 -0.193 -0.193
 0.620  1.320  0.167 -0.099 -0.166 -0.192 -0.192
 0.622  1.320  0.167 -0.099 -0.166 -0.192 -0.192
 0.624  1.320  0.167 -0.099 -0.165 -0.192 -0.192
 0.626  1.320  0.167 -0.099 -0.164 -0.191 -0.191
 0.628  1.320  0.168 -0.099 -0.163 -0.191 -0.191
 0.630  1.321  0.168 -0.099 -0.162 -0.190 -0.190
 0.632  1.321  0.168 -0.099 -0.162 -0.190 -0.190
 0.634  1.321  0.168 -0.099 -0.161 -0.190 -0.190
 0.636  1.321  0.168 -0.099 -0.160 -0.189 -0.189
 0.638  1.321  0.168 -0.099 -0.159 -0.189 -0.189
 0.640  1.321  0.168 -0.099 -0.158 -0.188 -0.188
 0.642  1.321  0.168 -0.099 -0.157 -0.188 -0.188
 0.644  1.321  0.168 -0.099 -0.156 -0.187 -0.187
 0.646  1.322  0.168 -0.099 -0.156 -0.187 -0.187
 0.648  1.322  0.169 -0.099 -0.155 -0.186 -0.186
 0.650  1.322  0.169 -0.099 -0.154 -0.186 -0.186
 0.652  1.322  0.169 -0.099 -0.153 -0.185 -0.185
 0.654  1.322  0.169 -0.099 -0.152 -0.185 -0.185
 0.656  1.322  0.169 -0.099 -0.151 -0.185 -0.185
 0.658  1.322  0.169 -0.098 -0.150 -0.184 -0.184
 0.660  1.322  0.170 -0.098 -0.149 -0.184 -0.184
 0.662  1.322  0.171 -0.098 -0.148 -0.183 -0.183
 0.664  1.323  0.171 -0.097 -0.147 -0.183 -0.183
 0.666  1.323  0.171 -0.097 -0.146 -0.182 -0.182
 0.668  1.323  0.172 -0.097 -0.145 -0.181 -0.181
 0.670  1.323  0.172 -0.096 -0.144 -0.181 -0.181
 0.672  1.323  0.173 -0.096 -0.143 -0.180 -0.180
 0.674  1.323  0.174 -0.095 -0.142 -0.180 -0.180
 0.676  1.323  0.174 -0.095 -0.140 -0.179 -0.179
 0.678  1.324  0.175 -0.094 -0.139 -0.179 -0.179
 0.680  1.324  0.176 -0.094 -0.138 -0.178 -0.178
 0.682  1.324  0.177 -0.093 -0.137 -0.178 -0.178
 0.684  1.324  0.178 -0.093 -0.136 -0.177 -0.177
 0.686  1.325  0.179 -0.092 -0.135 -0.177 -0.177
 0.688  1.325  0.180 -0.091 -0.134 -0.176 -0.176
 0.690  1.325  0.181 -0.091 -0.132 -0.175 -0.175
 0.692  1.326  0.182 -0.090 -0.131 -0.175 -0.175
 0.694  1.326  0.183 -0.089 -0.130 -0.174 -0.174
 0.696  1.326  0.185 -0.089 -0.129 -0.173 -0.173
 0.698  1.327  0.186 -0.088 -0.127 -0.173 -0.173
 0.700  1.327  0.187 -0.087 -0.126 -0.172 -0.172
 0.702  1.327  0.189 -0.086 -0.125 -0.172 -0.172
 0.704  1.328  0.190 -0.085 -0.123 -0.171 -0.171
 0.706  1.328  0.191 -0.084 -0.122 -0.170 -0.170
 0.708  1.329  0.193 -0.083 -0.121 -0.170 -0.170
 0.710  1.330  0.195 -0.083 -0.120 -0.169 -0.169
 0.712  1.330  0.197 -0.081 -0.118 -0.168 -0.168
 0.714  1.331  0.198 -0.081 -0.117 -0.168 -0.168
 0.716  1.332  0.200 -0.079 -0.116 -0.167 -0.167
 0.718  1.332  0.203 -0.078 -0.114 -0.166 -0.166
 0.720  1.333  0.204 -0.077 -0.113 -0.166 -0.166
 0.722  1.334  0.207 -0.076 -0.112 -0.165 -0.165
 0.724  1.334  0.208 -0.075 -0.111 -0.164 -0.164
 0.726  1.335  0.210 -0.074 -0.109 -0.163 -0.163
 0.728  1.336  0.212 -0.073 -0.108 -0.162 -0.162
 0.730  1.337  0.214 -0.071 -0.107 -0.161 -0.161
 0.732  1.337  0.216 -0.070 -0.106 -0.160 -0.160
 0.734  1.338  0.218 -0.069 -0.105 -0.159 -0.159
 0.736  1.339  0.219 -0.067 -0.104 -0.158 -0.158
 0.738  1.339  0.220 -0.066 -0.103 -0.157 -0.157
 0.740  1.340  0.222 -0.065 -0.102 -0.156 -0.156
 0.742  1.341  0.223 -0.063 -0.101 -0.154 -0.154
 0.744  1.341  0.225 -0.062 -0.100 -0.153 -0.153
 0.746  1.342  0.226 -0.060 -0.099 -0.152 -0.152
 0.748  1.343  0.227 -0.059 -0.098 -0.150 -0.150
 0.750  1.343  0.228 -0.057 -0.098 -0.149 -0.149
 0.752  1.344  0.229 -0.055 -0.097 -0.147 -0.147
 0.754  1.344  0.230 -0.054 -0.096 -0.146 -0.146
 0.756  1.345  0.230 -0.052 -0.096 -0.145 -0.145
 0.758  1.345  0.231 -0.051 -0.095 -0.143 -0.143
 0.760  1.346  0.232 -0.049 -0.094 -0.141 -0.141
 0.762  1.346  0.232 -0.047 -0.094 -0.140 -0.140
 0.764  1.346  0.232 -0.046 -0.093 -0.138 -0.138
 0.766  1.347  0.233 -0.044 -0.093 -0.136 -0.136
 0.768  1.347  0.233 -0.042 -0.092 -0.134 -0.134
 0.770  1.347  0.233 -0.040 -0.092 -0.132 -0.132
 0.772  1.348  0.233 -0.038 -0.091 -0.130 -0.130
 0.774  1.348  0.233 -0.036 -0.091 -0.128 -0.128
 0.776  1.348  0.233 -0.034 -0.090 -0.126 -0.126
 0.778  1.349  0.232 -0.032 -0.090 -0.124 -0.124
 0.780  1.349  0.232 -0.030 -0.090 -0.122 -0.122
 0.782  1.349  0.232 -0.028 -0.090 -0.119 -0.119
 0.784  1.349  0.231 -0.027 -0.089 -0.117 -0.117
 0.786  1.349  0.230 -0.025 -0.089 -0.115 -0.115
 0.788  1.349  0.230 -0.024 -0.089 -0.113 -0.113
 0.790  1.349  0.229 -0.023 -0.090 -0.111 -0.111
 0.792  1.350  0.228 -0.022 -0.090 -0.109 -0.109
 0.794  1.350  0.227 -0.021 -0.090 -0.107 -0.107
 0.796  1.350  0.226 -0.021 -0.091 -0.106 -0.106
 0.798  1.350  0.225 -0.021 -0.092 -0.104 -0.104
 0.800  1.350  0.223 -0.021 -0.093 -0.102 -0.102
 0.802  1.349  0.221 -0.021 -0.094 -0.101 -0.101
 0.804  1.349  0.219 -0.022 -0.095 -0.100 -0.100
 0.806  1.349  0.217 -0.022 -0.097 -0.099 -0.099
 0.808  1.347  0.215 -0.023 -0.099 -0.098 -0.098
