# IsPeriodic    : True
# Period        : 0.530439 days
# Normalization : <g_mag>=0
# 
# Phase u_mag  g_mag  r_mag  i_mag  z_mag  y_mag
 0.000  0.301 -0.854 -0.721 -0.611 -0.520 -0.520
 0.002  0.301 -0.853 -0.721 -0.611 -0.520 -0.520
 0.004  0.301 -0.852 -0.720 -0.611 -0.519 -0.519
 0.006  0.303 -0.849 -0.720 -0.609 -0.518 -0.518
 0.008  0.304 -0.847 -0.717 -0.608 -0.517 -0.517
 0.010  0.306 -0.843 -0.714 -0.606 -0.516 -0.516
 0.012  0.308 -0.838 -0.711 -0.603 -0.514 -0.514
 0.014  0.310 -0.832 -0.708 -0.600 -0.513 -0.513
 0.016  0.312 -0.825 -0.704 -0.597 -0.511 -0.511
 0.018  0.316 -0.819 -0.700 -0.593 -0.510 -0.510
 0.020  0.320 -0.813 -0.697 -0.590 -0.508 -0.508
 0.022  0.322 -0.806 -0.692 -0.586 -0.506 -0.506
 0.024  0.326 -0.799 -0.687 -0.583 -0.503 -0.503
 0.026  0.330 -0.793 -0.684 -0.579 -0.501 -0.501
 0.028  0.334 -0.785 -0.679 -0.575 -0.499 -0.499
 0.030  0.338 -0.779 -0.675 -0.572 -0.497 -0.497
 0.032  0.342 -0.772 -0.671 -0.569 -0.495 -0.495
 0.034  0.347 -0.766 -0.667 -0.565 -0.493 -0.493
 0.036  0.352 -0.760 -0.663 -0.562 -0.491 -0.491
 0.038  0.357 -0.754 -0.659 -0.559 -0.488 -0.488
 0.040  0.362 -0.747 -0.655 -0.556 -0.486 -0.486
 0.042  0.368 -0.741 -0.651 -0.552 -0.484 -0.484
 0.044  0.374 -0.735 -0.647 -0.549 -0.482 -0.482
 0.046  0.380 -0.728 -0.642 -0.546 -0.479 -0.479
 0.048  0.386 -0.722 -0.638 -0.542 -0.477 -0.477
 0.050  0.392 -0.715 -0.633 -0.539 -0.475 -0.475
 0.052  0.399 -0.708 -0.629 -0.535 -0.472 -0.472
 0.054  0.406 -0.701 -0.624 -0.532 -0.469 -0.469
 0.056  0.413 -0.693 -0.619 -0.528 -0.466 -0.466
 0.058  0.421 -0.687 -0.614 -0.524 -0.463 -0.463
 0.060  0.428 -0.679 -0.609 -0.521 -0.461 -0.461
 0.062  0.436 -0.672 -0.604 -0.517 -0.457 -0.457
 0.064  0.445 -0.664 -0.599 -0.513 -0.455 -0.455
 0.066  0.452 -0.657 -0.594 -0.509 -0.451 -0.451
 0.068  0.462 -0.649 -0.588 -0.506 -0.448 -0.448
 0.070  0.470 -0.642 -0.583 -0.501 -0.446 -0.446
 0.072  0.478 -0.634 -0.578 -0.498 -0.442 -0.442
 0.074  0.488 -0.627 -0.573 -0.494 -0.439 -0.439
 0.076  0.497 -0.619 -0.567 -0.490 -0.436 -0.436
 0.078  0.506 -0.611 -0.562 -0.486 -0.432 -0.432
 0.080  0.515 -0.604 -0.557 -0.483 -0.429 -0.429
 0.082  0.524 -0.596 -0.552 -0.479 -0.426 -0.426
 0.084  0.533 -0.589 -0.546 -0.475 -0.423 -0.423
 0.086  0.541 -0.581 -0.541 -0.471 -0.420 -0.420
 0.088  0.550 -0.574 -0.536 -0.468 -0.417 -0.417
 0.090  0.558 -0.566 -0.530 -0.464 -0.414 -0.414
 0.092  0.566 -0.559 -0.525 -0.460 -0.411 -0.411
 0.094  0.575 -0.552 -0.520 -0.456 -0.408 -0.408
 0.096  0.582 -0.545 -0.515 -0.453 -0.405 -0.405
 0.098  0.590 -0.537 -0.510 -0.449 -0.402 -0.402
 0.100  0.598 -0.530 -0.505 -0.445 -0.399 -0.399
 0.102  0.605 -0.523 -0.500 -0.442 -0.397 -0.397
 0.104  0.612 -0.516 -0.495 -0.438 -0.394 -0.394
 0.106  0.619 -0.508 -0.490 -0.435 -0.391 -0.391
 0.108  0.627 -0.502 -0.486 -0.432 -0.389 -0.389
 0.110  0.634 -0.496 -0.481 -0.428 -0.386 -0.386
 0.112  0.641 -0.488 -0.476 -0.425 -0.384 -0.384
 0.114  0.647 -0.482 -0.472 -0.422 -0.382 -0.382
 0.116  0.654 -0.476 -0.467 -0.418 -0.379 -0.379
 0.118  0.660 -0.469 -0.463 -0.415 -0.376 -0.376
 0.120  0.668 -0.463 -0.458 -0.412 -0.374 -0.374
 0.122  0.674 -0.457 -0.454 -0.409 -0.372 -0.372
 0.124  0.680 -0.450 -0.450 -0.406 -0.370 -0.370
 0.126  0.686 -0.444 -0.445 -0.402 -0.367 -0.367
 0.128  0.692 -0.438 -0.441 -0.399 -0.365 -0.365
 0.130  0.698 -0.431 -0.437 -0.397 -0.363 -0.363
 0.132  0.702 -0.425 -0.433 -0.394 -0.361 -0.361
 0.134  0.708 -0.420 -0.430 -0.391 -0.359 -0.359
 0.136  0.713 -0.414 -0.425 -0.388 -0.357 -0.357
 0.138  0.719 -0.408 -0.421 -0.385 -0.355 -0.355
 0.140  0.724 -0.403 -0.418 -0.382 -0.353 -0.353
 0.142  0.729 -0.396 -0.414 -0.379 -0.351 -0.351
 0.144  0.734 -0.391 -0.410 -0.376 -0.349 -0.349
 0.146  0.739 -0.385 -0.407 -0.374 -0.348 -0.348
 0.148  0.743 -0.380 -0.403 -0.371 -0.346 -0.346
 0.150  0.748 -0.375 -0.399 -0.368 -0.344 -0.344
 0.152  0.753 -0.370 -0.396 -0.366 -0.343 -0.343
 0.154  0.758 -0.364 -0.392 -0.363 -0.341 -0.341
 0.156  0.763 -0.358 -0.388 -0.361 -0.339 -0.339
 0.158  0.767 -0.353 -0.385 -0.358 -0.337 -0.337
 0.160  0.772 -0.348 -0.382 -0.356 -0.335 -0.335
 0.162  0.776 -0.343 -0.378 -0.353 -0.334 -0.334
 0.164  0.781 -0.338 -0.374 -0.351 -0.332 -0.332
 0.166  0.785 -0.333 -0.371 -0.348 -0.330 -0.330
 0.168  0.790 -0.328 -0.368 -0.346 -0.329 -0.329
 0.170  0.795 -0.323 -0.364 -0.344 -0.327 -0.327
 0.172  0.800 -0.318 -0.361 -0.341 -0.326 -0.326
 0.174  0.805 -0.312 -0.358 -0.339 -0.324 -0.324
 0.176  0.808 -0.307 -0.354 -0.337 -0.322 -0.322
 0.178  0.813 -0.302 -0.352 -0.334 -0.320 -0.320
 0.180  0.818 -0.297 -0.348 -0.332 -0.318 -0.318
 0.182  0.823 -0.292 -0.344 -0.330 -0.317 -0.317
 0.184  0.828 -0.287 -0.341 -0.328 -0.315 -0.315
 0.186  0.832 -0.282 -0.338 -0.325 -0.313 -0.313
 0.188  0.837 -0.277 -0.335 -0.323 -0.312 -0.312
 0.190  0.841 -0.272 -0.331 -0.320 -0.310 -0.310
 0.192  0.846 -0.267 -0.329 -0.318 -0.308 -0.308
 0.194  0.851 -0.262 -0.325 -0.316 -0.306 -0.306
 0.196  0.855 -0.257 -0.322 -0.314 -0.304 -0.304
 0.198  0.860 -0.252 -0.318 -0.312 -0.303 -0.303
 0.200  0.865 -0.247 -0.316 -0.310 -0.301 -0.301
 0.202  0.869 -0.241 -0.312 -0.307 -0.300 -0.300
 0.204  0.873 -0.236 -0.309 -0.305 -0.298 -0.298
 0.206  0.878 -0.231 -0.307 -0.303 -0.296 -0.296
 0.208  0.883 -0.226 -0.303 -0.301 -0.295 -0.295
 0.210  0.887 -0.221 -0.300 -0.299 -0.293 -0.293
 0.212  0.891 -0.216 -0.297 -0.297 -0.291 -0.291
 0.214  0.896 -0.213 -0.294 -0.295 -0.289 -0.289
 0.216  0.901 -0.208 -0.291 -0.293 -0.287 -0.287
 0.218  0.906 -0.202 -0.288 -0.291 -0.286 -0.286
 0.220  0.910 -0.197 -0.285 -0.289 -0.284 -0.284
 0.222  0.914 -0.192 -0.282 -0.287 -0.283 -0.283
 0.224  0.919 -0.187 -0.279 -0.285 -0.281 -0.281
 0.226  0.923 -0.182 -0.276 -0.283 -0.279 -0.279
 0.228  0.928 -0.177 -0.273 -0.282 -0.277 -0.277
 0.230  0.932 -0.174 -0.270 -0.279 -0.275 -0.275
 0.232  0.936 -0.168 -0.267 -0.277 -0.274 -0.274
 0.234  0.941 -0.163 -0.264 -0.276 -0.272 -0.272
 0.236  0.944 -0.158 -0.262 -0.274 -0.271 -0.271
 0.238  0.949 -0.155 -0.259 -0.271 -0.269 -0.269
 0.240  0.953 -0.150 -0.256 -0.270 -0.267 -0.267
 0.242  0.958 -0.145 -0.253 -0.268 -0.266 -0.266
 0.244  0.961 -0.141 -0.251 -0.266 -0.264 -0.264
 0.246  0.965 -0.136 -0.248 -0.264 -0.262 -0.262
 0.248  0.970 -0.132 -0.245 -0.262 -0.260 -0.260
 0.250  0.973 -0.127 -0.242 -0.260 -0.259 -0.259
 0.252  0.977 -0.122 -0.240 -0.259 -0.257 -0.257
 0.254  0.982 -0.118 -0.237 -0.256 -0.256 -0.256
 0.256  0.985 -0.114 -0.234 -0.255 -0.254 -0.254
 0.258  0.989 -0.109 -0.231 -0.253 -0.252 -0.252
 0.260  0.993 -0.106 -0.229 -0.251 -0.250 -0.250
 0.262  0.996 -0.101 -0.227 -0.249 -0.249 -0.249
 0.264  1.001 -0.097 -0.224 -0.247 -0.247 -0.247
 0.266  1.005 -0.093 -0.221 -0.245 -0.246 -0.246
 0.268  1.008 -0.089 -0.218 -0.243 -0.244 -0.244
 0.270  1.012 -0.084 -0.217 -0.241 -0.242 -0.242
 0.272  1.015 -0.080 -0.214 -0.240 -0.240 -0.240
 0.274  1.019 -0.077 -0.211 -0.238 -0.239 -0.239
 0.276  1.023 -0.073 -0.209 -0.236 -0.238 -0.238
 0.278  1.026 -0.069 -0.207 -0.234 -0.236 -0.236
 0.280  1.030 -0.065 -0.204 -0.232 -0.235 -0.235
 0.282  1.034 -0.060 -0.202 -0.231 -0.233 -0.233
 0.284  1.036 -0.057 -0.199 -0.228 -0.231 -0.231
 0.286  1.040 -0.053 -0.197 -0.227 -0.229 -0.229
 0.288  1.043 -0.049 -0.195 -0.225 -0.228 -0.228
 0.290  1.047 -0.045 -0.193 -0.223 -0.226 -0.226
 0.292  1.050 -0.043 -0.190 -0.221 -0.225 -0.225
 0.294  1.054 -0.039 -0.188 -0.220 -0.223 -0.223
 0.296  1.056 -0.035 -0.185 -0.218 -0.221 -0.221
 0.298  1.060 -0.031 -0.184 -0.215 -0.220 -0.220
 0.300  1.064 -0.028 -0.181 -0.214 -0.218 -0.218
 0.302  1.067 -0.024 -0.179 -0.212 -0.217 -0.217
 0.304  1.070 -0.020 -0.176 -0.210 -0.215 -0.215
 0.306  1.073 -0.016 -0.174 -0.208 -0.213 -0.213
 0.308  1.077 -0.014 -0.172 -0.207 -0.212 -0.212
 0.310  1.080 -0.010 -0.170 -0.205 -0.210 -0.210
 0.312  1.083 -0.006 -0.167 -0.203 -0.209 -0.209
 0.314  1.086 -0.002 -0.164 -0.201 -0.207 -0.207
 0.316  1.090  0.001 -0.162 -0.199 -0.206 -0.206
 0.318  1.094  0.005 -0.160 -0.197 -0.204 -0.204
 0.320  1.096  0.008 -0.158 -0.195 -0.202 -0.202
 0.322  1.100  0.011 -0.155 -0.194 -0.201 -0.201
 0.324  1.103  0.015 -0.152 -0.192 -0.199 -0.199
 0.326  1.106  0.019 -0.151 -0.190 -0.198 -0.198
 0.328  1.109  0.023 -0.148 -0.188 -0.196 -0.196
 0.330  1.113  0.025 -0.145 -0.186 -0.194 -0.194
 0.332  1.117  0.029 -0.143 -0.185 -0.193 -0.193
 0.334  1.119  0.033 -0.140 -0.182 -0.191 -0.191
 0.336  1.123  0.037 -0.138 -0.180 -0.190 -0.190
 0.338  1.126  0.040 -0.135 -0.179 -0.188 -0.188
 0.340  1.129  0.043 -0.133 -0.177 -0.186 -0.186
 0.342  1.132  0.047 -0.130 -0.175 -0.185 -0.185
 0.344  1.135  0.050 -0.128 -0.173 -0.183 -0.183
 0.346  1.138  0.054 -0.125 -0.171 -0.182 -0.182
 0.348  1.142  0.057 -0.122 -0.169 -0.180 -0.180
 0.350  1.144  0.061 -0.120 -0.167 -0.178 -0.178
 0.352  1.148  0.064 -0.117 -0.165 -0.177 -0.177
 0.354  1.152  0.068 -0.115 -0.164 -0.175 -0.175
 0.356  1.154  0.071 -0.112 -0.162 -0.174 -0.174
 0.358  1.158  0.074 -0.109 -0.159 -0.173 -0.173
 0.360  1.160  0.078 -0.106 -0.158 -0.171 -0.171
 0.362  1.164  0.081 -0.104 -0.156 -0.169 -0.169
 0.364  1.167  0.084 -0.101 -0.154 -0.168 -0.168
 0.366  1.170  0.088 -0.099 -0.152 -0.166 -0.166
 0.368  1.173  0.092 -0.096 -0.150 -0.165 -0.165
 0.370  1.176  0.094 -0.094 -0.148 -0.163 -0.163
 0.372  1.179  0.098 -0.091 -0.146 -0.161 -0.161
 0.374  1.182  0.102 -0.088 -0.144 -0.160 -0.160
 0.376  1.185  0.105 -0.085 -0.142 -0.158 -0.158
 0.378  1.188  0.108 -0.083 -0.140 -0.157 -0.157
 0.380  1.191  0.112 -0.081 -0.139 -0.155 -0.155
 0.382  1.194  0.116 -0.078 -0.136 -0.153 -0.153
 0.384  1.197  0.118 -0.075 -0.135 -0.152 -0.152
 0.386  1.200  0.122 -0.073 -0.133 -0.150 -0.150
 0.388  1.203  0.126 -0.071 -0.131 -0.149 -0.149
 0.390  1.206  0.130 -0.068 -0.129 -0.147 -0.147
 0.392  1.209  0.132 -0.065 -0.127 -0.146 -0.146
 0.394  1.212  0.136 -0.062 -0.126 -0.144 -0.144
 0.396  1.215  0.140 -0.061 -0.123 -0.142 -0.142
 0.398  1.218  0.144 -0.058 -0.121 -0.140 -0.140
 0.400  1.221  0.146 -0.056 -0.120 -0.139 -0.139
 0.402  1.224  0.150 -0.053 -0.118 -0.138 -0.138
 0.404  1.227  0.154 -0.051 -0.116 -0.136 -0.136
 0.406  1.230  0.157 -0.049 -0.114 -0.134 -0.134
 0.408  1.232  0.161 -0.046 -0.113 -0.132 -0.132
 0.410  1.236  0.164 -0.044 -0.111 -0.131 -0.131
 0.412  1.238  0.167 -0.041 -0.109 -0.129 -0.129
 0.414  1.241  0.171 -0.039 -0.107 -0.127 -0.127
 0.416  1.244  0.175 -0.037 -0.106 -0.126 -0.126
 0.418  1.247  0.179 -0.035 -0.103 -0.124 -0.124
 0.420  1.250  0.181 -0.033 -0.102 -0.122 -0.122
 0.422  1.253  0.185 -0.030 -0.100 -0.120 -0.120
 0.424  1.255  0.189 -0.028 -0.098 -0.119 -0.119
 0.426  1.259  0.193 -0.026 -0.097 -0.117 -0.117
 0.428  1.261  0.196 -0.024 -0.095 -0.116 -0.116
 0.430  1.263  0.200 -0.022 -0.093 -0.114 -0.114
 0.432  1.266  0.203 -0.019 -0.092 -0.113 -0.113
 0.434  1.270  0.206 -0.017 -0.090 -0.111 -0.111
 0.436  1.272  0.210 -0.016 -0.088 -0.109 -0.109
 0.438  1.274  0.214 -0.014 -0.086 -0.107 -0.107
 0.440  1.277  0.218 -0.011 -0.085 -0.105 -0.105
 0.442  1.280  0.222 -0.009 -0.083 -0.104 -0.104
 0.444  1.283  0.224 -0.007 -0.081 -0.102 -0.102
 0.446  1.285  0.228 -0.006 -0.080 -0.101 -0.101
 0.448  1.288  0.232 -0.004 -0.078 -0.099 -0.099
 0.450  1.290  0.234 -0.001 -0.076 -0.097 -0.097
 0.452  1.292  0.238  0.001 -0.075 -0.095 -0.095
 0.454  1.295  0.240  0.003 -0.073 -0.094 -0.094
 0.456  1.297  0.243  0.005 -0.071 -0.093 -0.093
 0.458  1.300  0.247  0.006 -0.070 -0.091 -0.091
 0.460  1.302  0.249  0.008 -0.068 -0.089 -0.089
 0.462  1.304  0.252  0.010 -0.066 -0.087 -0.087
 0.464  1.307  0.254  0.012 -0.065 -0.086 -0.086
 0.466  1.309  0.257  0.014 -0.063 -0.085 -0.085
 0.468  1.312  0.259  0.016 -0.062 -0.083 -0.083
 0.470  1.314  0.262  0.017 -0.060 -0.082 -0.082
 0.472  1.316  0.264  0.019 -0.058 -0.080 -0.080
 0.474  1.319  0.267  0.021 -0.057 -0.079 -0.079
 0.476  1.321  0.269  0.023 -0.055 -0.077 -0.077
 0.478  1.322  0.272  0.025 -0.053 -0.076 -0.076
 0.480  1.325  0.273  0.027 -0.052 -0.074 -0.074
 0.482  1.327  0.276  0.028 -0.050 -0.073 -0.073
 0.484  1.330  0.278  0.029 -0.048 -0.071 -0.071
 0.486  1.331  0.279  0.031 -0.047 -0.070 -0.070
 0.488  1.333  0.282  0.033 -0.045 -0.068 -0.068
 0.490  1.336  0.283  0.035 -0.043 -0.067 -0.067
 0.492  1.337  0.284  0.036 -0.042 -0.066 -0.066
 0.494  1.339  0.287  0.038 -0.040 -0.064 -0.064
 0.496  1.342  0.288  0.039 -0.039 -0.062 -0.062
 0.498  1.343  0.290  0.041 -0.037 -0.061 -0.061
 0.500  1.345  0.291  0.042 -0.035 -0.060 -0.060
 0.502  1.347  0.292  0.044 -0.034 -0.058 -0.058
 0.504  1.349  0.293  0.046 -0.032 -0.057 -0.057
 0.506  1.350  0.295  0.047 -0.030 -0.056 -0.056
 0.508  1.353  0.296  0.049 -0.029 -0.055 -0.055
 0.510  1.354  0.297  0.050 -0.027 -0.053 -0.053
 0.512  1.356  0.298  0.051 -0.026 -0.052 -0.052
 0.514  1.357  0.300  0.053 -0.024 -0.051 -0.051
 0.516  1.359  0.300  0.054 -0.022 -0.049 -0.049
 0.518  1.360  0.301  0.056 -0.021 -0.048 -0.048
 0.520  1.362  0.302  0.057 -0.019 -0.047 -0.047
 0.522  1.363  0.302  0.059 -0.018 -0.046 -0.046
 0.524  1.365  0.303  0.060 -0.017 -0.045 -0.045
 0.526  1.366  0.305  0.061 -0.016 -0.043 -0.043
 0.528  1.367  0.306  0.062 -0.014 -0.042 -0.042
 0.530  1.368  0.306  0.063 -0.013 -0.041 -0.041
 0.532  1.369  0.307  0.064 -0.011 -0.040 -0.040
 0.534  1.371  0.307  0.066 -0.011 -0.039 -0.039
 0.536  1.372  0.308  0.067 -0.009 -0.038 -0.038
 0.538  1.373  0.310  0.068 -0.009 -0.037 -0.037
 0.540  1.374  0.310  0.069 -0.008 -0.036 -0.036
 0.542  1.375  0.311  0.071 -0.006 -0.035 -0.035
 0.544  1.377  0.312  0.072 -0.006 -0.034 -0.034
 0.546  1.378  0.312  0.072 -0.005 -0.033 -0.033
 0.548  1.379  0.313  0.073 -0.003 -0.032 -0.032
 0.550  1.379  0.313  0.074 -0.003 -0.031 -0.031
 0.552  1.380  0.315  0.075 -0.002 -0.030 -0.030
 0.554  1.381  0.315  0.076 -0.001 -0.029 -0.029
 0.556  1.381  0.316  0.077 -0.001 -0.028 -0.028
 0.558  1.383  0.316  0.078  0.000 -0.027 -0.027
 0.560  1.383  0.317  0.079  0.001 -0.027 -0.027
 0.562  1.384  0.317  0.080  0.001 -0.025 -0.025
 0.564  1.384  0.318  0.081  0.002 -0.025 -0.025
 0.566  1.385  0.318  0.081  0.002 -0.024 -0.024
 0.568  1.385  0.318  0.082  0.003 -0.024 -0.024
 0.570  1.386  0.320  0.083  0.003 -0.023 -0.023
 0.572  1.386  0.320  0.083  0.004 -0.022 -0.022
 0.574  1.386  0.321  0.083  0.004 -0.021 -0.021
 0.576  1.388  0.321  0.084  0.004 -0.020 -0.020
 0.578  1.388  0.321  0.085  0.004 -0.020 -0.020
 0.580  1.388  0.322  0.085  0.004 -0.019 -0.019
 0.582  1.388  0.322  0.086  0.004 -0.018 -0.018
 0.584  1.389  0.322  0.087  0.005 -0.018 -0.018
 0.586  1.389  0.323  0.087  0.005 -0.017 -0.017
 0.588  1.389  0.323  0.088  0.005 -0.016 -0.016
 0.590  1.389  0.323  0.088  0.005 -0.016 -0.016
 0.592  1.389  0.323  0.089  0.006 -0.015 -0.015
 0.594  1.390  0.325  0.089  0.006 -0.014 -0.014
 0.596  1.390  0.325  0.090  0.006 -0.014 -0.014
 0.598  1.390  0.325  0.090  0.007 -0.013 -0.013
 0.600  1.390  0.325  0.091  0.007 -0.012 -0.012
 0.602  1.390  0.326  0.091  0.007 -0.011 -0.011
 0.604  1.390  0.326  0.092  0.007 -0.010 -0.010
 0.606  1.390  0.326  0.092  0.007 -0.010 -0.010
 0.608  1.390  0.326  0.093  0.007 -0.009 -0.009
 0.610  1.390  0.326  0.093  0.007 -0.008 -0.008
 0.612  1.390  0.327  0.093  0.008 -0.008 -0.008
 0.614  1.390  0.327  0.094  0.008 -0.007 -0.007
 0.616  1.390  0.327  0.094  0.009 -0.006 -0.006
 0.618  1.390  0.327  0.094  0.009 -0.006 -0.006
 0.620  1.390  0.327  0.094  0.009 -0.004 -0.004
 0.622  1.390  0.327  0.094  0.009 -0.004 -0.004
 0.624  1.390  0.327  0.094  0.009 -0.003 -0.003
 0.626  1.389  0.329  0.095  0.009 -0.002 -0.002
 0.628  1.389  0.329  0.095  0.010 -0.002 -0.002
 0.630  1.389  0.329  0.095  0.010 -0.001 -0.001
 0.632  1.389  0.329  0.095  0.011 -0.000 -0.000
 0.634  1.389  0.329  0.095  0.011  0.000  0.000
 0.636  1.388  0.329  0.096  0.012  0.002  0.002
 0.638  1.388  0.329  0.096  0.012  0.002  0.002
 0.640  1.388  0.329  0.096  0.012  0.003  0.003
 0.642  1.388  0.329  0.096  0.012  0.004  0.004
 0.644  1.386  0.329  0.096  0.012  0.004  0.004
 0.646  1.386  0.329  0.096  0.013  0.005  0.005
 0.648  1.386  0.329  0.096  0.013  0.006  0.006
 0.650  1.385  0.329  0.096  0.014  0.007  0.007
 0.652  1.385  0.329  0.096  0.014  0.007  0.007
 0.654  1.385  0.329  0.097  0.014  0.008  0.008
 0.656  1.385  0.329  0.097  0.014  0.009  0.009
 0.658  1.384  0.329  0.097  0.015  0.009  0.009
 0.660  1.384  0.329  0.097  0.015  0.010  0.010
 0.662  1.384  0.327  0.096  0.015  0.011  0.011
 0.664  1.383  0.327  0.096  0.016  0.011  0.011
 0.666  1.383  0.327  0.096  0.016  0.011  0.011
 0.668  1.383  0.327  0.096  0.016  0.012  0.012
 0.670  1.381  0.327  0.096  0.017  0.013  0.013
 0.672  1.381  0.326  0.096  0.017  0.013  0.013
 0.674  1.381  0.326  0.096  0.017  0.013  0.013
 0.676  1.380  0.326  0.096  0.017  0.014  0.014
 0.678  1.380  0.325  0.095  0.017  0.014  0.014
 0.680  1.380  0.325  0.095  0.017  0.015  0.015
 0.682  1.380  0.323  0.095  0.017  0.015  0.015
 0.684  1.379  0.323  0.095  0.017  0.015  0.015
 0.686  1.379  0.323  0.094  0.017  0.015  0.015
 0.688  1.379  0.322  0.094  0.017  0.016  0.016
 0.690  1.378  0.322  0.094  0.017  0.016  0.016
 0.692  1.378  0.321  0.094  0.017  0.016  0.016
 0.694  1.378  0.321  0.094  0.016  0.017  0.017
 0.696  1.377  0.320  0.094  0.016  0.017  0.017
 0.698  1.377  0.318  0.093  0.016  0.017  0.017
 0.700  1.377  0.318  0.093  0.016  0.017  0.017
 0.702  1.375  0.317  0.092  0.016  0.017  0.017
 0.704  1.375  0.316  0.092  0.015  0.017  0.017
 0.706  1.375  0.316  0.092  0.015  0.017  0.017
 0.708  1.375  0.315  0.091  0.014  0.017  0.017
 0.710  1.374  0.313  0.090  0.014  0.017  0.017
 0.712  1.374  0.312  0.090  0.014  0.017  0.017
 0.714  1.374  0.311  0.089  0.014  0.017  0.017
 0.716  1.373  0.311  0.089  0.013  0.017  0.017
 0.718  1.373  0.310  0.088  0.012  0.017  0.017
 0.720  1.373  0.308  0.087  0.012  0.017  0.017
 0.722  1.373  0.307  0.087  0.012  0.017  0.017
 0.724  1.372  0.306  0.086  0.011  0.017  0.017
 0.726  1.372  0.305  0.086  0.011  0.017  0.017
 0.728  1.372  0.303  0.085  0.010  0.017  0.017
 0.730  1.372  0.303  0.085  0.010  0.017  0.017
 0.732  1.371  0.302  0.085  0.010  0.018  0.018
 0.734  1.371  0.301  0.085  0.010  0.019  0.019
 0.736  1.371  0.301  0.085  0.010  0.019  0.019
 0.738  1.371  0.301  0.085  0.010  0.020  0.020
 0.740  1.369  0.300  0.085  0.010  0.021  0.021
 0.742  1.369  0.300  0.085  0.011  0.022  0.022
 0.744  1.369  0.300  0.086  0.012  0.023  0.023
 0.746  1.369  0.300  0.086  0.012  0.024  0.024
 0.748  1.369  0.300  0.087  0.012  0.025  0.025
 0.750  1.369  0.300  0.088  0.013  0.027  0.027
 0.752  1.368  0.301  0.088  0.014  0.028  0.028
 0.754  1.368  0.301  0.089  0.015  0.029  0.029
 0.756  1.368  0.301  0.090  0.017  0.031  0.031
 0.758  1.368  0.302  0.091  0.017  0.033  0.033
 0.760  1.368  0.302  0.092  0.019  0.034  0.034
 0.762  1.368  0.303  0.094  0.020  0.036  0.036
 0.764  1.368  0.305  0.094  0.022  0.038  0.038
 0.766  1.368  0.306  0.096  0.024  0.040  0.040
 0.768  1.368  0.307  0.097  0.025  0.042  0.042
 0.770  1.368  0.308  0.099  0.027  0.044  0.044
 0.772  1.368  0.310  0.101  0.030  0.046  0.046
 0.774  1.368  0.312  0.103  0.032  0.049  0.049
 0.776  1.367  0.313  0.105  0.034  0.052  0.052
 0.778  1.367  0.316  0.106  0.037  0.054  0.054
 0.780  1.367  0.317  0.109  0.039  0.057  0.057
 0.782  1.367  0.320  0.111  0.042  0.060  0.060
 0.784  1.367  0.322  0.114  0.045  0.062  0.062
 0.786  1.367  0.325  0.116  0.048  0.065  0.065
 0.788  1.367  0.326  0.118  0.050  0.068  0.068
 0.790  1.368  0.329  0.120  0.053  0.071  0.071
 0.792  1.368  0.331  0.123  0.056  0.074  0.074
 0.794  1.369  0.334  0.126  0.060  0.077  0.077
 0.796  1.369  0.337  0.128  0.063  0.080  0.080
 0.798  1.371  0.340  0.130  0.065  0.083  0.083
 0.800  1.372  0.342  0.133  0.069  0.086  0.086
 0.802  1.373  0.345  0.136  0.072  0.089  0.089
 0.804  1.374  0.347  0.139  0.075  0.091  0.091
 0.806  1.375  0.350  0.141  0.078  0.094  0.094
 0.808  1.378  0.352  0.143  0.081  0.096  0.096
