# IsPeriodic    : True
# Period        : 0.645405 days
# Normalization : <g_mag>=0
# 
# Phase u_mag  g_mag  r_mag  i_mag  z_mag  y_mag
 0.000  0.641 -0.419 -0.541 -0.487 -0.473 -0.473
 0.002  0.641 -0.419 -0.541 -0.487 -0.473 -0.473
 0.004  0.641 -0.419 -0.541 -0.487 -0.472 -0.472
 0.006  0.642 -0.418 -0.540 -0.486 -0.472 -0.472
 0.008  0.643 -0.418 -0.539 -0.486 -0.471 -0.471
 0.010  0.644 -0.417 -0.538 -0.485 -0.471 -0.471
 0.012  0.645 -0.416 -0.537 -0.485 -0.470 -0.470
 0.014  0.646 -0.415 -0.536 -0.484 -0.469 -0.469
 0.016  0.648 -0.414 -0.534 -0.483 -0.468 -0.468
 0.018  0.649 -0.412 -0.533 -0.482 -0.467 -0.467
 0.020  0.651 -0.411 -0.531 -0.481 -0.465 -0.465
 0.022  0.653 -0.409 -0.529 -0.480 -0.464 -0.464
 0.024  0.656 -0.408 -0.527 -0.479 -0.463 -0.463
 0.026  0.659 -0.406 -0.526 -0.478 -0.462 -0.462
 0.028  0.661 -0.405 -0.524 -0.477 -0.461 -0.461
 0.030  0.664 -0.402 -0.522 -0.476 -0.460 -0.460
 0.032  0.668 -0.400 -0.521 -0.475 -0.459 -0.459
 0.034  0.672 -0.398 -0.519 -0.474 -0.458 -0.458
 0.036  0.676 -0.396 -0.517 -0.473 -0.457 -0.457
 0.038  0.679 -0.394 -0.515 -0.472 -0.456 -0.456
 0.040  0.684 -0.391 -0.514 -0.471 -0.455 -0.455
 0.042  0.688 -0.389 -0.512 -0.470 -0.454 -0.454
 0.044  0.693 -0.386 -0.510 -0.469 -0.453 -0.453
 0.046  0.698 -0.384 -0.508 -0.468 -0.452 -0.452
 0.048  0.702 -0.381 -0.506 -0.467 -0.451 -0.451
 0.050  0.708 -0.379 -0.504 -0.466 -0.450 -0.450
 0.052  0.713 -0.376 -0.502 -0.465 -0.449 -0.449
 0.054  0.718 -0.372 -0.499 -0.464 -0.448 -0.448
 0.056  0.723 -0.370 -0.498 -0.462 -0.447 -0.447
 0.058  0.729 -0.366 -0.495 -0.461 -0.446 -0.446
 0.060  0.733 -0.363 -0.493 -0.460 -0.445 -0.445
 0.062  0.739 -0.360 -0.490 -0.459 -0.444 -0.444
 0.064  0.744 -0.356 -0.488 -0.458 -0.443 -0.443
 0.066  0.749 -0.353 -0.486 -0.456 -0.442 -0.442
 0.068  0.754 -0.349 -0.483 -0.455 -0.441 -0.441
 0.070  0.759 -0.345 -0.481 -0.454 -0.441 -0.441
 0.072  0.764 -0.341 -0.478 -0.453 -0.440 -0.440
 0.074  0.768 -0.337 -0.475 -0.451 -0.439 -0.439
 0.076  0.773 -0.333 -0.473 -0.450 -0.438 -0.438
 0.078  0.777 -0.329 -0.471 -0.449 -0.437 -0.437
 0.080  0.782 -0.325 -0.468 -0.447 -0.436 -0.436
 0.082  0.786 -0.321 -0.466 -0.446 -0.435 -0.435
 0.084  0.791 -0.316 -0.463 -0.445 -0.434 -0.434
 0.086  0.794 -0.312 -0.461 -0.443 -0.434 -0.434
 0.088  0.798 -0.308 -0.458 -0.442 -0.433 -0.433
 0.090  0.802 -0.304 -0.455 -0.441 -0.432 -0.432
 0.092  0.807 -0.300 -0.453 -0.439 -0.431 -0.431
 0.094  0.811 -0.295 -0.450 -0.438 -0.430 -0.430
 0.096  0.815 -0.292 -0.448 -0.437 -0.429 -0.429
 0.098  0.819 -0.288 -0.445 -0.435 -0.428 -0.428
 0.100  0.823 -0.283 -0.443 -0.434 -0.427 -0.427
 0.102  0.827 -0.280 -0.441 -0.432 -0.426 -0.426
 0.104  0.830 -0.276 -0.438 -0.431 -0.425 -0.425
 0.106  0.834 -0.272 -0.435 -0.430 -0.424 -0.424
 0.108  0.838 -0.268 -0.433 -0.428 -0.423 -0.423
 0.110  0.841 -0.265 -0.431 -0.427 -0.421 -0.421
 0.112  0.844 -0.261 -0.429 -0.426 -0.420 -0.420
 0.114  0.848 -0.258 -0.426 -0.425 -0.419 -0.419
 0.116  0.852 -0.254 -0.424 -0.423 -0.418 -0.418
 0.118  0.855 -0.251 -0.422 -0.422 -0.417 -0.417
 0.120  0.858 -0.247 -0.419 -0.421 -0.416 -0.416
 0.122  0.861 -0.244 -0.417 -0.419 -0.414 -0.414
 0.124  0.864 -0.240 -0.415 -0.418 -0.413 -0.413
 0.126  0.867 -0.237 -0.412 -0.417 -0.412 -0.412
 0.128  0.871 -0.234 -0.410 -0.415 -0.410 -0.410
 0.130  0.874 -0.231 -0.408 -0.414 -0.409 -0.409
 0.132  0.877 -0.227 -0.406 -0.413 -0.408 -0.408
 0.134  0.880 -0.225 -0.403 -0.411 -0.406 -0.406
 0.136  0.884 -0.221 -0.402 -0.410 -0.405 -0.405
 0.138  0.887 -0.218 -0.399 -0.409 -0.403 -0.403
 0.140  0.890 -0.216 -0.397 -0.408 -0.402 -0.402
 0.142  0.894 -0.213 -0.395 -0.406 -0.400 -0.400
 0.144  0.897 -0.210 -0.393 -0.405 -0.399 -0.399
 0.146  0.900 -0.207 -0.391 -0.404 -0.397 -0.397
 0.148  0.903 -0.204 -0.389 -0.402 -0.396 -0.396
 0.150  0.906 -0.202 -0.387 -0.401 -0.394 -0.394
 0.152  0.909 -0.199 -0.384 -0.400 -0.393 -0.393
 0.154  0.913 -0.196 -0.383 -0.398 -0.391 -0.391
 0.156  0.916 -0.194 -0.380 -0.397 -0.390 -0.390
 0.158  0.919 -0.191 -0.379 -0.396 -0.388 -0.388
 0.160  0.922 -0.188 -0.376 -0.395 -0.386 -0.386
 0.162  0.925 -0.185 -0.375 -0.394 -0.385 -0.385
 0.164  0.928 -0.183 -0.373 -0.392 -0.383 -0.383
 0.166  0.932 -0.181 -0.371 -0.391 -0.382 -0.382
 0.168  0.936 -0.178 -0.369 -0.390 -0.380 -0.380
 0.170  0.939 -0.175 -0.367 -0.389 -0.379 -0.379
 0.172  0.942 -0.172 -0.365 -0.387 -0.377 -0.377
 0.174  0.945 -0.169 -0.363 -0.386 -0.376 -0.376
 0.176  0.948 -0.167 -0.361 -0.385 -0.374 -0.374
 0.178  0.951 -0.164 -0.359 -0.384 -0.373 -0.373
 0.180  0.955 -0.161 -0.358 -0.383 -0.372 -0.372
 0.182  0.958 -0.158 -0.355 -0.381 -0.370 -0.370
 0.184  0.961 -0.155 -0.354 -0.380 -0.369 -0.369
 0.186  0.964 -0.153 -0.352 -0.379 -0.368 -0.368
 0.188  0.968 -0.150 -0.350 -0.378 -0.367 -0.367
 0.190  0.971 -0.147 -0.348 -0.377 -0.365 -0.365
 0.192  0.974 -0.144 -0.346 -0.375 -0.364 -0.364
 0.194  0.978 -0.141 -0.344 -0.374 -0.363 -0.363
 0.196  0.981 -0.138 -0.343 -0.373 -0.362 -0.362
 0.198  0.984 -0.135 -0.341 -0.372 -0.361 -0.361
 0.200  0.987 -0.132 -0.339 -0.371 -0.360 -0.360
 0.202  0.990 -0.129 -0.337 -0.369 -0.359 -0.359
 0.204  0.994 -0.126 -0.335 -0.368 -0.357 -0.357
 0.206  0.997 -0.123 -0.334 -0.367 -0.356 -0.356
 0.208  1.000 -0.120 -0.332 -0.366 -0.355 -0.355
 0.210  1.003 -0.117 -0.330 -0.364 -0.355 -0.355
 0.212  1.006 -0.114 -0.328 -0.364 -0.353 -0.353
 0.214  1.009 -0.111 -0.327 -0.362 -0.353 -0.353
 0.216  1.013 -0.108 -0.325 -0.361 -0.352 -0.352
 0.218  1.015 -0.104 -0.323 -0.360 -0.351 -0.351
 0.220  1.018 -0.101 -0.322 -0.359 -0.350 -0.350
 0.222  1.021 -0.098 -0.320 -0.358 -0.349 -0.349
 0.224  1.024 -0.095 -0.318 -0.357 -0.348 -0.348
 0.226  1.027 -0.092 -0.317 -0.356 -0.348 -0.348
 0.228  1.030 -0.089 -0.315 -0.354 -0.347 -0.347
 0.230  1.033 -0.085 -0.314 -0.353 -0.346 -0.346
 0.232  1.036 -0.083 -0.312 -0.352 -0.345 -0.345
 0.234  1.039 -0.080 -0.310 -0.351 -0.345 -0.345
 0.236  1.042 -0.076 -0.308 -0.350 -0.343 -0.343
 0.238  1.044 -0.073 -0.307 -0.349 -0.343 -0.343
 0.240  1.047 -0.071 -0.305 -0.348 -0.342 -0.342
 0.242  1.050 -0.068 -0.303 -0.347 -0.341 -0.341
 0.244  1.053 -0.065 -0.302 -0.345 -0.340 -0.340
 0.246  1.055 -0.062 -0.300 -0.344 -0.339 -0.339
 0.248  1.059 -0.059 -0.298 -0.343 -0.339 -0.339
 0.250  1.061 -0.057 -0.296 -0.342 -0.338 -0.338
 0.252  1.063 -0.054 -0.295 -0.341 -0.337 -0.337
 0.254  1.066 -0.051 -0.293 -0.340 -0.336 -0.336
 0.256  1.069 -0.048 -0.291 -0.339 -0.335 -0.335
 0.258  1.071 -0.046 -0.289 -0.338 -0.334 -0.334
 0.260  1.074 -0.043 -0.288 -0.337 -0.333 -0.333
 0.262  1.077 -0.041 -0.286 -0.336 -0.332 -0.332
 0.264  1.079 -0.038 -0.284 -0.335 -0.331 -0.331
 0.266  1.082 -0.036 -0.283 -0.333 -0.330 -0.330
 0.268  1.085 -0.034 -0.281 -0.332 -0.329 -0.329
 0.270  1.087 -0.031 -0.280 -0.331 -0.328 -0.328
 0.272  1.089 -0.029 -0.278 -0.330 -0.326 -0.326
 0.274  1.092 -0.027 -0.276 -0.329 -0.325 -0.325
 0.276  1.095 -0.024 -0.275 -0.328 -0.324 -0.324
 0.278  1.097 -0.022 -0.273 -0.327 -0.323 -0.323
 0.280  1.100 -0.020 -0.271 -0.326 -0.322 -0.322
 0.282  1.102 -0.018 -0.269 -0.325 -0.321 -0.321
 0.284  1.105 -0.016 -0.268 -0.324 -0.319 -0.319
 0.286  1.108 -0.014 -0.266 -0.323 -0.318 -0.318
 0.288  1.110 -0.012 -0.264 -0.322 -0.317 -0.317
 0.290  1.112 -0.010 -0.263 -0.320 -0.316 -0.316
 0.292  1.115 -0.008 -0.261 -0.320 -0.315 -0.315
 0.294  1.117 -0.006 -0.259 -0.318 -0.314 -0.314
 0.296  1.120 -0.004 -0.257 -0.318 -0.312 -0.312
 0.298  1.123 -0.002 -0.256 -0.316 -0.311 -0.311
 0.300  1.125 -0.001 -0.254 -0.315 -0.310 -0.310
 0.302  1.128  0.001 -0.252 -0.314 -0.308 -0.308
 0.304  1.130  0.004 -0.251 -0.313 -0.307 -0.307
 0.306  1.133  0.006 -0.249 -0.312 -0.306 -0.306
 0.308  1.135  0.007 -0.248 -0.311 -0.305 -0.305
 0.310  1.138  0.009 -0.246 -0.310 -0.304 -0.304
 0.312  1.140  0.011 -0.244 -0.309 -0.302 -0.302
 0.314  1.143  0.013 -0.243 -0.308 -0.301 -0.301
 0.316  1.145  0.015 -0.241 -0.307 -0.300 -0.300
 0.318  1.148  0.018 -0.240 -0.305 -0.299 -0.299
 0.320  1.151  0.020 -0.238 -0.304 -0.298 -0.298
 0.322  1.153  0.022 -0.236 -0.303 -0.297 -0.297
 0.324  1.155  0.024 -0.235 -0.302 -0.295 -0.295
 0.326  1.158  0.026 -0.233 -0.301 -0.294 -0.294
 0.328  1.160  0.028 -0.232 -0.300 -0.293 -0.293
 0.330  1.163  0.030 -0.230 -0.299 -0.292 -0.292
 0.332  1.166  0.032 -0.229 -0.297 -0.291 -0.291
 0.334  1.168  0.034 -0.227 -0.296 -0.290 -0.290
 0.336  1.170  0.036 -0.225 -0.295 -0.289 -0.289
 0.338  1.173  0.039 -0.224 -0.294 -0.288 -0.288
 0.340  1.175  0.041 -0.223 -0.292 -0.287 -0.287
 0.342  1.177  0.043 -0.221 -0.291 -0.286 -0.286
 0.344  1.180  0.046 -0.220 -0.290 -0.285 -0.285
 0.346  1.182  0.048 -0.218 -0.289 -0.284 -0.284
 0.348  1.185  0.050 -0.217 -0.288 -0.283 -0.283
 0.350  1.188  0.053 -0.215 -0.286 -0.282 -0.282
 0.352  1.190  0.055 -0.214 -0.285 -0.281 -0.281
 0.354  1.193  0.057 -0.212 -0.284 -0.280 -0.280
 0.356  1.194  0.060 -0.211 -0.283 -0.279 -0.279
 0.358  1.196  0.062 -0.209 -0.282 -0.278 -0.278
 0.360  1.199  0.065 -0.208 -0.280 -0.278 -0.278
 0.362  1.201  0.067 -0.207 -0.279 -0.277 -0.277
 0.364  1.204  0.070 -0.205 -0.278 -0.276 -0.276
 0.366  1.206  0.073 -0.204 -0.276 -0.275 -0.275
 0.368  1.208  0.075 -0.203 -0.275 -0.274 -0.274
 0.370  1.211  0.078 -0.201 -0.274 -0.273 -0.273
 0.372  1.212  0.080 -0.200 -0.272 -0.273 -0.273
 0.374  1.215  0.083 -0.199 -0.271 -0.272 -0.272
 0.376  1.217  0.085 -0.197 -0.270 -0.271 -0.271
 0.378  1.219  0.087 -0.196 -0.269 -0.270 -0.270
 0.380  1.221  0.090 -0.195 -0.267 -0.269 -0.269
 0.382  1.223  0.092 -0.193 -0.266 -0.268 -0.268
 0.384  1.226  0.095 -0.192 -0.265 -0.268 -0.268
 0.386  1.227  0.097 -0.191 -0.263 -0.267 -0.267
 0.388  1.230  0.099 -0.189 -0.262 -0.266 -0.266
 0.390  1.232  0.101 -0.188 -0.261 -0.265 -0.265
 0.392  1.234  0.103 -0.187 -0.260 -0.264 -0.264
 0.394  1.236  0.105 -0.185 -0.259 -0.263 -0.263
 0.396  1.238  0.107 -0.184 -0.257 -0.262 -0.262
 0.398  1.240  0.109 -0.183 -0.256 -0.261 -0.261
 0.400  1.242  0.111 -0.181 -0.255 -0.260 -0.260
 0.402  1.244  0.113 -0.180 -0.254 -0.259 -0.259
 0.404  1.246  0.115 -0.179 -0.253 -0.258 -0.258
 0.406  1.248  0.117 -0.177 -0.252 -0.257 -0.257
 0.408  1.250  0.119 -0.176 -0.250 -0.256 -0.256
 0.410  1.252  0.121 -0.175 -0.249 -0.256 -0.256
 0.412  1.254  0.123 -0.173 -0.248 -0.254 -0.254
 0.414  1.256  0.125 -0.172 -0.247 -0.253 -0.253
 0.416  1.258  0.126 -0.170 -0.246 -0.253 -0.253
 0.418  1.259  0.128 -0.169 -0.245 -0.251 -0.251
 0.420  1.262  0.130 -0.168 -0.244 -0.250 -0.250
 0.422  1.263  0.131 -0.166 -0.243 -0.249 -0.249
 0.424  1.265  0.133 -0.165 -0.242 -0.248 -0.248
 0.426  1.267  0.134 -0.164 -0.241 -0.247 -0.247
 0.428  1.269  0.136 -0.162 -0.239 -0.246 -0.246
 0.430  1.270  0.137 -0.161 -0.239 -0.245 -0.245
 0.432  1.272  0.139 -0.160 -0.237 -0.244 -0.244
 0.434  1.273  0.140 -0.158 -0.237 -0.243 -0.243
 0.436  1.276  0.141 -0.157 -0.236 -0.241 -0.241
 0.438  1.277  0.143 -0.156 -0.235 -0.240 -0.240
 0.440  1.279  0.144 -0.154 -0.234 -0.239 -0.239
 0.442  1.281  0.146 -0.153 -0.233 -0.238 -0.238
 0.444  1.282  0.147 -0.152 -0.232 -0.237 -0.237
 0.446  1.284  0.148 -0.150 -0.231 -0.236 -0.236
 0.448  1.285  0.150 -0.149 -0.230 -0.235 -0.235
 0.450  1.287  0.151 -0.148 -0.229 -0.234 -0.234
 0.452  1.288  0.152 -0.147 -0.228 -0.233 -0.233
 0.454  1.290  0.153 -0.146 -0.227 -0.232 -0.232
 0.456  1.292  0.155 -0.144 -0.226 -0.230 -0.230
 0.458  1.293  0.156 -0.143 -0.225 -0.230 -0.230
 0.460  1.295  0.157 -0.142 -0.225 -0.229 -0.229
 0.462  1.296  0.158 -0.141 -0.224 -0.227 -0.227
 0.464  1.298  0.160 -0.140 -0.223 -0.226 -0.226
 0.466  1.300  0.160 -0.138 -0.222 -0.226 -0.226
 0.468  1.301  0.162 -0.137 -0.221 -0.224 -0.224
 0.470  1.303  0.163 -0.136 -0.220 -0.223 -0.223
 0.472  1.304  0.164 -0.135 -0.219 -0.223 -0.223
 0.474  1.306  0.165 -0.134 -0.218 -0.222 -0.222
 0.476  1.308  0.166 -0.133 -0.217 -0.221 -0.221
 0.478  1.308  0.167 -0.132 -0.216 -0.220 -0.220
 0.480  1.310  0.168 -0.130 -0.216 -0.219 -0.219
 0.482  1.311  0.169 -0.129 -0.214 -0.218 -0.218
 0.484  1.313  0.170 -0.128 -0.214 -0.217 -0.217
 0.486  1.314  0.172 -0.127 -0.213 -0.216 -0.216
 0.488  1.315  0.172 -0.126 -0.212 -0.216 -0.216
 0.490  1.317  0.174 -0.125 -0.211 -0.215 -0.215
 0.492  1.318  0.174 -0.124 -0.210 -0.214 -0.214
 0.494  1.319  0.175 -0.123 -0.209 -0.213 -0.213
 0.496  1.320  0.176 -0.122 -0.208 -0.212 -0.212
 0.498  1.322  0.177 -0.121 -0.208 -0.212 -0.212
 0.500  1.323  0.178 -0.120 -0.207 -0.211 -0.211
 0.502  1.324  0.179 -0.118 -0.206 -0.210 -0.210
 0.504  1.325  0.180 -0.118 -0.205 -0.210 -0.210
 0.506  1.327  0.181 -0.117 -0.204 -0.209 -0.209
 0.508  1.327  0.181 -0.116 -0.203 -0.208 -0.208
 0.510  1.328  0.182 -0.114 -0.202 -0.207 -0.207
 0.512  1.330  0.183 -0.114 -0.201 -0.207 -0.207
 0.514  1.331  0.184 -0.113 -0.201 -0.206 -0.206
 0.516  1.331  0.185 -0.112 -0.200 -0.206 -0.206
 0.518  1.333  0.186 -0.111 -0.199 -0.205 -0.205
 0.520  1.334  0.186 -0.110 -0.198 -0.204 -0.204
 0.522  1.334  0.187 -0.109 -0.197 -0.204 -0.204
 0.524  1.335  0.188 -0.108 -0.197 -0.203 -0.203
 0.526  1.336  0.188 -0.107 -0.196 -0.202 -0.202
 0.528  1.337  0.189 -0.106 -0.195 -0.202 -0.202
 0.530  1.338  0.190 -0.106 -0.194 -0.201 -0.201
 0.532  1.338  0.190 -0.105 -0.194 -0.200 -0.200
 0.534  1.339  0.190 -0.104 -0.193 -0.200 -0.200
 0.536  1.340  0.191 -0.103 -0.192 -0.199 -0.199
 0.538  1.341  0.192 -0.102 -0.191 -0.199 -0.199
 0.540  1.342  0.193 -0.102 -0.191 -0.198 -0.198
 0.542  1.342  0.193 -0.101 -0.190 -0.198 -0.198
 0.544  1.343  0.193 -0.100 -0.190 -0.197 -0.197
 0.546  1.344  0.194 -0.100 -0.189 -0.196 -0.196
 0.548  1.345  0.195 -0.098 -0.189 -0.196 -0.196
 0.550  1.345  0.195 -0.098 -0.188 -0.195 -0.195
 0.552  1.346  0.195 -0.097 -0.187 -0.195 -0.195
 0.554  1.346  0.195 -0.097 -0.187 -0.194 -0.194
 0.556  1.346  0.196 -0.096 -0.186 -0.193 -0.193
 0.558  1.347  0.196 -0.096 -0.186 -0.193 -0.193
 0.560  1.348  0.197 -0.094 -0.185 -0.192 -0.192
 0.562  1.348  0.197 -0.094 -0.185 -0.192 -0.192
 0.564  1.349  0.197 -0.093 -0.184 -0.192 -0.192
 0.566  1.349  0.197 -0.093 -0.184 -0.191 -0.191
 0.568  1.349  0.197 -0.092 -0.183 -0.190 -0.190
 0.570  1.350  0.198 -0.092 -0.182 -0.190 -0.190
 0.572  1.350  0.198 -0.091 -0.182 -0.189 -0.189
 0.574  1.350  0.198 -0.090 -0.182 -0.189 -0.189
 0.576  1.350  0.199 -0.090 -0.181 -0.188 -0.188
 0.578  1.350  0.199 -0.090 -0.181 -0.188 -0.188
 0.580  1.350  0.199 -0.089 -0.181 -0.187 -0.187
 0.582  1.350  0.199 -0.089 -0.180 -0.187 -0.187
 0.584  1.350  0.199 -0.088 -0.180 -0.186 -0.186
 0.586  1.351  0.200 -0.088 -0.180 -0.186 -0.186
 0.588  1.351  0.200 -0.088 -0.179 -0.185 -0.185
 0.590  1.351  0.200 -0.087 -0.179 -0.185 -0.185
 0.592  1.351  0.200 -0.086 -0.179 -0.184 -0.184
 0.594  1.350  0.200 -0.086 -0.178 -0.184 -0.184
 0.596  1.350  0.200 -0.086 -0.178 -0.183 -0.183
 0.598  1.350  0.200 -0.086 -0.178 -0.183 -0.183
 0.600  1.350  0.200 -0.085 -0.177 -0.182 -0.182
 0.602  1.350  0.200 -0.085 -0.177 -0.182 -0.182
 0.604  1.350  0.200 -0.085 -0.177 -0.181 -0.181
 0.606  1.350  0.200 -0.085 -0.176 -0.181 -0.181
 0.608  1.350  0.200 -0.084 -0.176 -0.180 -0.180
 0.610  1.350  0.201 -0.084 -0.176 -0.180 -0.180
 0.612  1.349  0.201 -0.084 -0.176 -0.179 -0.179
 0.614  1.349  0.201 -0.084 -0.175 -0.179 -0.179
 0.616  1.348  0.201 -0.084 -0.175 -0.178 -0.178
 0.618  1.348  0.201 -0.084 -0.174 -0.178 -0.178
 0.620  1.347  0.202 -0.083 -0.174 -0.177 -0.177
 0.622  1.346  0.202 -0.083 -0.174 -0.176 -0.176
 0.624  1.346  0.202 -0.083 -0.174 -0.176 -0.176
 0.626  1.346  0.202 -0.083 -0.173 -0.175 -0.175
 0.628  1.346  0.202 -0.083 -0.173 -0.175 -0.175
 0.630  1.345  0.202 -0.083 -0.173 -0.174 -0.174
 0.632  1.345  0.202 -0.083 -0.172 -0.174 -0.174
 0.634  1.344  0.202 -0.083 -0.172 -0.173 -0.173
 0.636  1.344  0.202 -0.083 -0.172 -0.173 -0.173
 0.638  1.343  0.203 -0.083 -0.172 -0.172 -0.172
 0.640  1.343  0.203 -0.083 -0.171 -0.172 -0.172
 0.642  1.342  0.203 -0.083 -0.171 -0.171 -0.171
 0.644  1.342  0.203 -0.083 -0.171 -0.171 -0.171
 0.646  1.342  0.203 -0.083 -0.170 -0.170 -0.170
 0.648  1.342  0.204 -0.084 -0.170 -0.169 -0.169
 0.650  1.342  0.204 -0.084 -0.170 -0.169 -0.169
 0.652  1.342  0.204 -0.084 -0.170 -0.168 -0.168
 0.654  1.341  0.204 -0.084 -0.169 -0.168 -0.168
 0.656  1.341  0.204 -0.084 -0.169 -0.167 -0.167
 0.658  1.341  0.204 -0.084 -0.168 -0.167 -0.167
 0.660  1.340  0.205 -0.084 -0.168 -0.166 -0.166
 0.662  1.340  0.206 -0.084 -0.168 -0.166 -0.166
 0.664  1.340  0.206 -0.084 -0.167 -0.165 -0.165
 0.666  1.340  0.207 -0.084 -0.167 -0.165 -0.165
 0.668  1.340  0.207 -0.084 -0.166 -0.164 -0.164
 0.670  1.339  0.208 -0.083 -0.165 -0.164 -0.164
 0.672  1.339  0.209 -0.083 -0.165 -0.163 -0.163
 0.674  1.339  0.209 -0.083 -0.164 -0.162 -0.162
 0.676  1.339  0.210 -0.083 -0.163 -0.162 -0.162
 0.678  1.339  0.211 -0.082 -0.163 -0.161 -0.161
 0.680  1.339  0.212 -0.082 -0.162 -0.161 -0.161
 0.682  1.339  0.214 -0.082 -0.161 -0.160 -0.160
 0.684  1.339  0.214 -0.082 -0.160 -0.159 -0.159
 0.686  1.339  0.216 -0.081 -0.159 -0.159 -0.159
 0.688  1.339  0.217 -0.081 -0.157 -0.158 -0.158
 0.690  1.339  0.218 -0.081 -0.157 -0.157 -0.157
 0.692  1.339  0.220 -0.080 -0.155 -0.157 -0.157
 0.694  1.339  0.221 -0.080 -0.154 -0.156 -0.156
 0.696  1.339  0.223 -0.079 -0.153 -0.155 -0.155
 0.698  1.339  0.224 -0.078 -0.151 -0.155 -0.155
 0.700  1.339  0.226 -0.078 -0.150 -0.154 -0.154
 0.702  1.339  0.228 -0.077 -0.149 -0.154 -0.154
 0.704  1.339  0.230 -0.077 -0.147 -0.153 -0.153
 0.706  1.339  0.231 -0.076 -0.146 -0.152 -0.152
 0.708  1.339  0.233 -0.076 -0.144 -0.152 -0.152
 0.710  1.340  0.235 -0.075 -0.142 -0.151 -0.151
 0.712  1.340  0.237 -0.074 -0.140 -0.150 -0.150
 0.714  1.340  0.239 -0.074 -0.139 -0.150 -0.150
 0.716  1.340  0.242 -0.073 -0.137 -0.149 -0.149
 0.718  1.340  0.244 -0.072 -0.135 -0.148 -0.148
 0.720  1.340  0.246 -0.072 -0.133 -0.148 -0.148
 0.722  1.340  0.249 -0.070 -0.131 -0.147 -0.147
 0.724  1.341  0.251 -0.070 -0.129 -0.146 -0.146
 0.726  1.341  0.253 -0.069 -0.127 -0.145 -0.145
 0.728  1.341  0.256 -0.068 -0.125 -0.145 -0.145
 0.730  1.341  0.258 -0.066 -0.123 -0.144 -0.144
 0.732  1.342  0.260 -0.065 -0.121 -0.144 -0.144
 0.734  1.342  0.263 -0.064 -0.119 -0.143 -0.143
 0.736  1.342  0.264 -0.063 -0.117 -0.142 -0.142
 0.738  1.342  0.266 -0.061 -0.115 -0.141 -0.141
 0.740  1.342  0.267 -0.060 -0.113 -0.140 -0.140
 0.742  1.342  0.270 -0.058 -0.111 -0.140 -0.140
 0.744  1.343  0.271 -0.057 -0.109 -0.139 -0.139
 0.746  1.343  0.272 -0.055 -0.107 -0.138 -0.138
 0.748  1.343  0.274 -0.053 -0.106 -0.137 -0.137
 0.750  1.344  0.275 -0.052 -0.104 -0.136 -0.136
 0.752  1.344  0.276 -0.050 -0.102 -0.135 -0.135
 0.754  1.344  0.277 -0.047 -0.101 -0.134 -0.134
 0.756  1.344  0.278 -0.046 -0.100 -0.133 -0.133
 0.758  1.345  0.279 -0.043 -0.098 -0.132 -0.132
 0.760  1.345  0.279 -0.042 -0.097 -0.131 -0.131
 0.762  1.346  0.279 -0.039 -0.096 -0.130 -0.130
 0.764  1.346  0.280 -0.037 -0.094 -0.129 -0.129
 0.766  1.346  0.281 -0.035 -0.093 -0.128 -0.128
 0.768  1.346  0.281 -0.033 -0.092 -0.127 -0.127
 0.770  1.347  0.281 -0.030 -0.091 -0.126 -0.126
 0.772  1.348  0.281 -0.027 -0.090 -0.125 -0.125
 0.774  1.349  0.281 -0.024 -0.089 -0.124 -0.124
 0.776  1.350  0.281 -0.021 -0.089 -0.122 -0.122
 0.778  1.351  0.280 -0.018 -0.088 -0.121 -0.121
 0.780  1.352  0.280 -0.015 -0.087 -0.120 -0.120
 0.782  1.354  0.279 -0.013 -0.086 -0.119 -0.119
 0.784  1.354  0.279 -0.009 -0.086 -0.117 -0.117
 0.786  1.356  0.278 -0.006 -0.085 -0.116 -0.116
 0.788  1.357  0.277 -0.003 -0.085 -0.115 -0.115
 0.790  1.359  0.276 -0.000 -0.084 -0.114 -0.114
 0.792  1.361  0.275  0.003 -0.083 -0.112 -0.112
 0.794  1.362  0.274  0.006 -0.083 -0.111 -0.111
 0.796  1.365  0.272  0.009 -0.083 -0.110 -0.110
 0.798  1.366  0.271  0.011 -0.083 -0.108 -0.108
 0.800  1.369  0.269  0.014 -0.083 -0.107 -0.107
 0.802  1.371  0.267  0.017 -0.083 -0.106 -0.106
 0.804  1.373  0.265  0.019 -0.083 -0.105 -0.105
 0.806  1.375  0.262  0.021 -0.083 -0.104 -0.104
 0.808  1.378  0.259  0.023 -0.084 -0.104 -0.104
