# IsPeriodic    : True
# Period        : 0.510390 days
# Normalization : <g_mag>=0
# 
# Phase u_mag  g_mag  r_mag  i_mag  z_mag  y_mag
 0.000  0.650 -0.526 -0.470 -0.414 -0.369 -0.369
 0.002  0.650 -0.526 -0.470 -0.414 -0.369 -0.369
 0.004  0.650 -0.525 -0.470 -0.414 -0.368 -0.368
 0.006  0.651 -0.525 -0.469 -0.413 -0.368 -0.368
 0.008  0.652 -0.525 -0.469 -0.413 -0.367 -0.367
 0.010  0.653 -0.524 -0.468 -0.413 -0.366 -0.366
 0.012  0.655 -0.523 -0.468 -0.413 -0.365 -0.365
 0.014  0.656 -0.522 -0.467 -0.412 -0.364 -0.364
 0.016  0.658 -0.520 -0.467 -0.412 -0.362 -0.362
 0.018  0.660 -0.518 -0.465 -0.411 -0.361 -0.361
 0.020  0.663 -0.517 -0.464 -0.410 -0.359 -0.359
 0.022  0.665 -0.515 -0.464 -0.409 -0.357 -0.357
 0.024  0.667 -0.513 -0.463 -0.408 -0.355 -0.355
 0.026  0.670 -0.510 -0.461 -0.407 -0.353 -0.353
 0.028  0.672 -0.508 -0.460 -0.406 -0.351 -0.351
 0.030  0.675 -0.505 -0.458 -0.405 -0.349 -0.349
 0.032  0.677 -0.502 -0.457 -0.404 -0.347 -0.347
 0.034  0.680 -0.499 -0.455 -0.403 -0.345 -0.345
 0.036  0.683 -0.495 -0.453 -0.401 -0.343 -0.343
 0.038  0.685 -0.493 -0.451 -0.400 -0.341 -0.341
 0.040  0.688 -0.488 -0.449 -0.398 -0.340 -0.340
 0.042  0.690 -0.485 -0.447 -0.397 -0.337 -0.337
 0.044  0.693 -0.480 -0.445 -0.395 -0.336 -0.336
 0.046  0.696 -0.476 -0.442 -0.393 -0.334 -0.334
 0.048  0.700 -0.472 -0.440 -0.392 -0.332 -0.332
 0.050  0.703 -0.467 -0.437 -0.390 -0.330 -0.330
 0.052  0.706 -0.463 -0.435 -0.388 -0.328 -0.328
 0.054  0.710 -0.457 -0.432 -0.387 -0.326 -0.326
 0.056  0.713 -0.452 -0.429 -0.385 -0.325 -0.325
 0.058  0.717 -0.448 -0.426 -0.383 -0.323 -0.323
 0.060  0.720 -0.442 -0.423 -0.382 -0.321 -0.321
 0.062  0.724 -0.437 -0.419 -0.380 -0.320 -0.320
 0.064  0.728 -0.432 -0.416 -0.378 -0.318 -0.318
 0.066  0.733 -0.426 -0.413 -0.376 -0.317 -0.317
 0.068  0.736 -0.422 -0.410 -0.374 -0.315 -0.315
 0.070  0.740 -0.417 -0.407 -0.373 -0.314 -0.314
 0.072  0.745 -0.412 -0.404 -0.371 -0.312 -0.312
 0.074  0.750 -0.407 -0.401 -0.370 -0.311 -0.311
 0.076  0.753 -0.403 -0.398 -0.368 -0.309 -0.309
 0.078  0.758 -0.397 -0.396 -0.367 -0.308 -0.308
 0.080  0.763 -0.393 -0.393 -0.365 -0.306 -0.306
 0.082  0.767 -0.388 -0.390 -0.363 -0.305 -0.305
 0.084  0.771 -0.383 -0.387 -0.362 -0.303 -0.303
 0.086  0.776 -0.379 -0.385 -0.361 -0.302 -0.302
 0.088  0.780 -0.374 -0.382 -0.359 -0.301 -0.301
 0.090  0.785 -0.369 -0.380 -0.358 -0.299 -0.299
 0.092  0.789 -0.365 -0.377 -0.356 -0.298 -0.298
 0.094  0.793 -0.360 -0.375 -0.355 -0.297 -0.297
 0.096  0.797 -0.356 -0.372 -0.353 -0.295 -0.295
 0.098  0.802 -0.351 -0.369 -0.352 -0.294 -0.294
 0.100  0.806 -0.347 -0.368 -0.350 -0.293 -0.293
 0.102  0.810 -0.342 -0.365 -0.349 -0.292 -0.292
 0.104  0.814 -0.338 -0.363 -0.348 -0.290 -0.290
 0.106  0.818 -0.334 -0.361 -0.346 -0.289 -0.289
 0.108  0.822 -0.330 -0.359 -0.345 -0.287 -0.287
 0.110  0.826 -0.326 -0.356 -0.344 -0.286 -0.286
 0.112  0.830 -0.321 -0.355 -0.342 -0.285 -0.285
 0.114  0.833 -0.317 -0.353 -0.341 -0.284 -0.284
 0.116  0.837 -0.313 -0.350 -0.340 -0.282 -0.282
 0.118  0.841 -0.309 -0.349 -0.339 -0.281 -0.281
 0.120  0.844 -0.305 -0.347 -0.338 -0.280 -0.280
 0.122  0.848 -0.301 -0.345 -0.336 -0.278 -0.278
 0.124  0.851 -0.297 -0.343 -0.335 -0.277 -0.277
 0.126  0.855 -0.293 -0.342 -0.334 -0.276 -0.276
 0.128  0.858 -0.289 -0.340 -0.332 -0.274 -0.274
 0.130  0.861 -0.285 -0.338 -0.331 -0.273 -0.273
 0.132  0.865 -0.281 -0.337 -0.330 -0.272 -0.272
 0.134  0.868 -0.278 -0.335 -0.329 -0.270 -0.270
 0.136  0.871 -0.274 -0.333 -0.327 -0.269 -0.269
 0.138  0.874 -0.270 -0.332 -0.326 -0.268 -0.268
 0.140  0.877 -0.266 -0.330 -0.325 -0.266 -0.266
 0.142  0.880 -0.262 -0.329 -0.323 -0.265 -0.265
 0.144  0.883 -0.258 -0.327 -0.322 -0.263 -0.263
 0.146  0.886 -0.255 -0.326 -0.320 -0.262 -0.262
 0.148  0.889 -0.251 -0.324 -0.319 -0.261 -0.261
 0.150  0.891 -0.247 -0.322 -0.318 -0.259 -0.259
 0.152  0.894 -0.243 -0.321 -0.317 -0.258 -0.258
 0.154  0.897 -0.240 -0.319 -0.315 -0.257 -0.257
 0.156  0.900 -0.236 -0.317 -0.314 -0.255 -0.255
 0.158  0.902 -0.233 -0.315 -0.312 -0.254 -0.254
 0.160  0.905 -0.228 -0.314 -0.311 -0.252 -0.252
 0.162  0.907 -0.225 -0.312 -0.309 -0.251 -0.251
 0.164  0.910 -0.221 -0.310 -0.308 -0.249 -0.249
 0.166  0.913 -0.218 -0.308 -0.307 -0.248 -0.248
 0.168  0.915 -0.214 -0.307 -0.305 -0.246 -0.246
 0.170  0.918 -0.211 -0.305 -0.304 -0.245 -0.245
 0.172  0.920 -0.207 -0.303 -0.302 -0.244 -0.244
 0.174  0.924 -0.204 -0.301 -0.301 -0.242 -0.242
 0.176  0.926 -0.200 -0.299 -0.299 -0.241 -0.241
 0.178  0.929 -0.196 -0.298 -0.298 -0.240 -0.240
 0.180  0.931 -0.192 -0.296 -0.296 -0.238 -0.238
 0.182  0.934 -0.189 -0.294 -0.295 -0.237 -0.237
 0.184  0.937 -0.185 -0.292 -0.293 -0.235 -0.235
 0.186  0.940 -0.182 -0.290 -0.291 -0.234 -0.234
 0.188  0.943 -0.178 -0.288 -0.290 -0.233 -0.233
 0.190  0.945 -0.175 -0.286 -0.288 -0.232 -0.232
 0.192  0.948 -0.171 -0.284 -0.287 -0.230 -0.230
 0.194  0.951 -0.168 -0.282 -0.285 -0.229 -0.229
 0.196  0.954 -0.165 -0.280 -0.284 -0.228 -0.228
 0.198  0.957 -0.161 -0.278 -0.282 -0.226 -0.226
 0.200  0.959 -0.158 -0.276 -0.281 -0.225 -0.225
 0.202  0.962 -0.154 -0.275 -0.279 -0.224 -0.224
 0.204  0.965 -0.151 -0.272 -0.277 -0.223 -0.223
 0.206  0.967 -0.147 -0.270 -0.276 -0.222 -0.222
 0.208  0.970 -0.144 -0.268 -0.275 -0.221 -0.221
 0.210  0.974 -0.140 -0.266 -0.273 -0.219 -0.219
 0.212  0.976 -0.137 -0.264 -0.272 -0.218 -0.218
 0.214  0.979 -0.134 -0.262 -0.270 -0.217 -0.217
 0.216  0.982 -0.130 -0.260 -0.269 -0.216 -0.216
 0.218  0.985 -0.127 -0.258 -0.268 -0.215 -0.215
 0.220  0.987 -0.124 -0.256 -0.267 -0.214 -0.214
 0.222  0.990 -0.121 -0.254 -0.265 -0.212 -0.212
 0.224  0.994 -0.117 -0.252 -0.264 -0.212 -0.212
 0.226  0.997 -0.114 -0.250 -0.262 -0.210 -0.210
 0.228  0.999 -0.111 -0.248 -0.261 -0.210 -0.210
 0.230  1.002 -0.107 -0.246 -0.260 -0.208 -0.208
 0.232  1.005 -0.105 -0.244 -0.258 -0.207 -0.207
 0.234  1.007 -0.101 -0.242 -0.257 -0.206 -0.206
 0.236  1.010 -0.099 -0.240 -0.256 -0.205 -0.205
 0.238  1.014 -0.095 -0.238 -0.255 -0.204 -0.204
 0.240  1.016 -0.092 -0.236 -0.254 -0.203 -0.203
 0.242  1.019 -0.089 -0.234 -0.252 -0.202 -0.202
 0.244  1.021 -0.086 -0.232 -0.251 -0.201 -0.201
 0.246  1.024 -0.083 -0.230 -0.250 -0.200 -0.200
 0.248  1.027 -0.080 -0.228 -0.249 -0.199 -0.199
 0.250  1.030 -0.076 -0.227 -0.247 -0.198 -0.198
 0.252  1.032 -0.074 -0.225 -0.246 -0.197 -0.197
 0.254  1.035 -0.070 -0.222 -0.246 -0.196 -0.196
 0.256  1.037 -0.068 -0.221 -0.244 -0.195 -0.195
 0.258  1.041 -0.065 -0.219 -0.243 -0.193 -0.193
 0.260  1.043 -0.061 -0.216 -0.242 -0.193 -0.193
 0.262  1.046 -0.059 -0.215 -0.241 -0.191 -0.191
 0.264  1.048 -0.056 -0.213 -0.240 -0.190 -0.190
 0.266  1.051 -0.053 -0.211 -0.239 -0.189 -0.189
 0.268  1.054 -0.050 -0.209 -0.237 -0.188 -0.188
 0.270  1.056 -0.047 -0.207 -0.236 -0.187 -0.187
 0.272  1.058 -0.045 -0.205 -0.235 -0.186 -0.186
 0.274  1.061 -0.041 -0.203 -0.234 -0.185 -0.185
 0.276  1.064 -0.038 -0.201 -0.233 -0.183 -0.183
 0.278  1.066 -0.036 -0.199 -0.231 -0.182 -0.182
 0.280  1.068 -0.033 -0.197 -0.230 -0.181 -0.181
 0.282  1.071 -0.030 -0.195 -0.229 -0.180 -0.180
 0.284  1.074 -0.027 -0.193 -0.227 -0.179 -0.179
 0.286  1.076 -0.024 -0.191 -0.226 -0.177 -0.177
 0.288  1.078 -0.022 -0.189 -0.225 -0.176 -0.176
 0.290  1.081 -0.019 -0.187 -0.223 -0.175 -0.175
 0.292  1.083 -0.016 -0.185 -0.222 -0.174 -0.174
 0.294  1.085 -0.013 -0.183 -0.220 -0.173 -0.173
 0.296  1.087 -0.010 -0.181 -0.218 -0.171 -0.171
 0.298  1.090 -0.007 -0.178 -0.217 -0.170 -0.170
 0.300  1.092 -0.005 -0.176 -0.215 -0.169 -0.169
 0.302  1.094 -0.002 -0.174 -0.214 -0.168 -0.168
 0.304  1.097  0.000 -0.172 -0.212 -0.166 -0.166
 0.306  1.099  0.004 -0.170 -0.210 -0.165 -0.165
 0.308  1.101  0.007 -0.167 -0.208 -0.164 -0.164
 0.310  1.104  0.009 -0.165 -0.206 -0.163 -0.163
 0.312  1.106  0.012 -0.163 -0.205 -0.161 -0.161
 0.314  1.108  0.015 -0.161 -0.203 -0.160 -0.160
 0.316  1.111  0.017 -0.158 -0.201 -0.159 -0.159
 0.318  1.113  0.020 -0.156 -0.199 -0.157 -0.157
 0.320  1.115  0.023 -0.154 -0.197 -0.156 -0.156
 0.322  1.117  0.026 -0.151 -0.195 -0.155 -0.155
 0.324  1.119  0.029 -0.149 -0.194 -0.154 -0.154
 0.326  1.121  0.031 -0.146 -0.191 -0.152 -0.152
 0.328  1.124  0.034 -0.143 -0.189 -0.151 -0.151
 0.330  1.126  0.037 -0.141 -0.187 -0.150 -0.150
 0.332  1.127  0.039 -0.139 -0.185 -0.149 -0.149
 0.334  1.130  0.042 -0.136 -0.183 -0.148 -0.148
 0.336  1.132  0.045 -0.133 -0.181 -0.146 -0.146
 0.338  1.134  0.047 -0.131 -0.179 -0.145 -0.145
 0.340  1.136  0.050 -0.128 -0.177 -0.144 -0.144
 0.342  1.138  0.053 -0.126 -0.175 -0.143 -0.143
 0.344  1.140  0.055 -0.123 -0.173 -0.141 -0.141
 0.346  1.142  0.058 -0.120 -0.171 -0.140 -0.140
 0.348  1.144  0.061 -0.117 -0.169 -0.139 -0.139
 0.350  1.146  0.063 -0.115 -0.167 -0.138 -0.138
 0.352  1.148  0.066 -0.113 -0.165 -0.137 -0.137
 0.354  1.150  0.069 -0.110 -0.163 -0.135 -0.135
 0.356  1.152  0.071 -0.107 -0.162 -0.134 -0.134
 0.358  1.154  0.074 -0.105 -0.160 -0.133 -0.133
 0.360  1.156  0.076 -0.103 -0.158 -0.132 -0.132
 0.362  1.158  0.079 -0.100 -0.156 -0.131 -0.131
 0.364  1.160  0.082 -0.098 -0.154 -0.129 -0.129
 0.366  1.161  0.084 -0.095 -0.153 -0.128 -0.128
 0.368  1.164  0.087 -0.093 -0.152 -0.127 -0.127
 0.370  1.165  0.090 -0.091 -0.150 -0.126 -0.126
 0.372  1.168  0.092 -0.088 -0.148 -0.125 -0.125
 0.374  1.169  0.094 -0.086 -0.147 -0.124 -0.124
 0.376  1.171  0.097 -0.084 -0.145 -0.122 -0.122
 0.378  1.173  0.099 -0.082 -0.143 -0.121 -0.121
 0.380  1.175  0.102 -0.080 -0.142 -0.120 -0.120
 0.382  1.177  0.105 -0.078 -0.141 -0.119 -0.119
 0.384  1.179  0.107 -0.076 -0.139 -0.118 -0.118
 0.386  1.181  0.109 -0.074 -0.138 -0.117 -0.117
 0.388  1.183  0.112 -0.072 -0.136 -0.116 -0.116
 0.390  1.184  0.114 -0.070 -0.135 -0.114 -0.114
 0.392  1.187  0.117 -0.068 -0.134 -0.113 -0.113
 0.394  1.188  0.119 -0.066 -0.132 -0.112 -0.112
 0.396  1.191  0.122 -0.065 -0.131 -0.111 -0.111
 0.398  1.192  0.124 -0.063 -0.130 -0.110 -0.110
 0.400  1.194  0.126 -0.061 -0.129 -0.109 -0.109
 0.402  1.197  0.129 -0.059 -0.128 -0.107 -0.107
 0.404  1.198  0.131 -0.058 -0.127 -0.106 -0.106
 0.406  1.201  0.133 -0.056 -0.126 -0.105 -0.105
 0.408  1.202  0.136 -0.055 -0.125 -0.104 -0.104
 0.410  1.204  0.138 -0.053 -0.123 -0.103 -0.103
 0.412  1.207  0.140 -0.052 -0.122 -0.102 -0.102
 0.414  1.208  0.143 -0.050 -0.121 -0.101 -0.101
 0.416  1.211  0.145 -0.049 -0.120 -0.100 -0.100
 0.418  1.213  0.147 -0.047 -0.119 -0.099 -0.099
 0.420  1.214  0.150 -0.046 -0.118 -0.098 -0.098
 0.422  1.217  0.152 -0.044 -0.117 -0.096 -0.096
 0.424  1.219  0.153 -0.043 -0.116 -0.095 -0.095
 0.426  1.221  0.156 -0.042 -0.115 -0.094 -0.094
 0.428  1.223  0.158 -0.040 -0.113 -0.093 -0.093
 0.430  1.225  0.160 -0.039 -0.112 -0.092 -0.092
 0.432  1.228  0.162 -0.037 -0.111 -0.091 -0.091
 0.434  1.229  0.164 -0.036 -0.110 -0.090 -0.090
 0.436  1.231  0.166 -0.035 -0.109 -0.089 -0.089
 0.438  1.234  0.168 -0.033 -0.108 -0.088 -0.088
 0.440  1.235  0.170 -0.032 -0.107 -0.087 -0.087
 0.442  1.238  0.172 -0.031 -0.105 -0.086 -0.086
 0.444  1.240  0.174 -0.029 -0.104 -0.085 -0.085
 0.446  1.241  0.175 -0.028 -0.103 -0.084 -0.084
 0.448  1.244  0.177 -0.027 -0.102 -0.082 -0.082
 0.450  1.246  0.179 -0.025 -0.101 -0.082 -0.082
 0.452  1.248  0.181 -0.024 -0.100 -0.081 -0.081
 0.454  1.249  0.183 -0.023 -0.099 -0.080 -0.080
 0.456  1.251  0.184 -0.021 -0.097 -0.079 -0.079
 0.458  1.253  0.186 -0.020 -0.096 -0.077 -0.077
 0.460  1.254  0.188 -0.018 -0.095 -0.077 -0.077
 0.462  1.257  0.190 -0.017 -0.094 -0.076 -0.076
 0.464  1.258  0.190 -0.016 -0.092 -0.074 -0.074
 0.466  1.260  0.192 -0.014 -0.091 -0.074 -0.074
 0.468  1.261  0.194 -0.013 -0.090 -0.073 -0.073
 0.470  1.263  0.196 -0.012 -0.089 -0.071 -0.071
 0.472  1.264  0.197 -0.010 -0.088 -0.071 -0.071
 0.474  1.266  0.198 -0.009 -0.086 -0.070 -0.070
 0.476  1.268  0.199 -0.008 -0.085 -0.069 -0.069
 0.478  1.269  0.201 -0.007 -0.084 -0.068 -0.068
 0.480  1.271  0.202 -0.005 -0.083 -0.067 -0.067
 0.482  1.272  0.204 -0.004 -0.081 -0.066 -0.066
 0.484  1.273  0.205 -0.002 -0.080 -0.065 -0.065
 0.486  1.274  0.206 -0.001 -0.079 -0.064 -0.064
 0.488  1.276  0.207  0.001 -0.078 -0.063 -0.063
 0.490  1.277  0.209  0.002 -0.077 -0.062 -0.062
 0.492  1.278  0.210  0.003 -0.076 -0.061 -0.061
 0.494  1.279  0.211  0.004 -0.075 -0.060 -0.060
 0.496  1.281  0.213  0.005 -0.074 -0.060 -0.060
 0.498  1.281  0.213  0.007 -0.073 -0.059 -0.059
 0.500  1.283  0.214  0.008 -0.071 -0.058 -0.058
 0.502  1.284  0.215  0.009 -0.070 -0.057 -0.057
 0.504  1.284  0.216  0.010 -0.069 -0.056 -0.056
 0.506  1.285  0.218  0.011 -0.069 -0.055 -0.055
 0.508  1.287  0.219  0.012 -0.068 -0.055 -0.055
 0.510  1.288  0.220  0.014 -0.067 -0.054 -0.054
 0.512  1.288  0.221  0.015 -0.066 -0.053 -0.053
 0.514  1.289  0.221  0.015 -0.065 -0.052 -0.052
 0.516  1.290  0.222  0.017 -0.064 -0.052 -0.052
 0.518  1.291  0.223  0.018 -0.063 -0.051 -0.051
 0.520  1.291  0.224  0.018 -0.062 -0.050 -0.050
 0.522  1.292  0.225  0.020 -0.061 -0.049 -0.049
 0.524  1.293  0.226  0.020 -0.061 -0.048 -0.048
 0.526  1.294  0.227  0.021 -0.060 -0.047 -0.047
 0.528  1.295  0.228  0.022 -0.059 -0.047 -0.047
 0.530  1.295  0.228  0.023 -0.058 -0.046 -0.046
 0.532  1.296  0.229  0.023 -0.058 -0.045 -0.045
 0.534  1.297  0.230  0.024 -0.057 -0.044 -0.044
 0.536  1.298  0.231  0.025 -0.057 -0.044 -0.044
 0.538  1.298  0.231  0.026 -0.056 -0.043 -0.043
 0.540  1.298  0.232  0.026 -0.055 -0.042 -0.042
 0.542  1.299  0.233  0.027 -0.054 -0.041 -0.041
 0.544  1.300  0.234  0.027 -0.054 -0.041 -0.041
 0.546  1.301  0.234  0.028 -0.053 -0.040 -0.040
 0.548  1.301  0.235  0.028 -0.053 -0.039 -0.039
 0.550  1.301  0.236  0.029 -0.052 -0.039 -0.039
 0.552  1.302  0.236  0.030 -0.051 -0.038 -0.038
 0.554  1.303  0.236  0.030 -0.051 -0.037 -0.037
 0.556  1.303  0.237  0.030 -0.050 -0.037 -0.037
 0.558  1.304  0.237  0.031 -0.049 -0.036 -0.036
 0.560  1.304  0.238  0.031 -0.048 -0.035 -0.035
 0.562  1.305  0.238  0.031 -0.048 -0.035 -0.035
 0.564  1.305  0.239  0.032 -0.048 -0.034 -0.034
 0.566  1.305  0.239  0.033 -0.047 -0.033 -0.033
 0.568  1.306  0.240  0.033 -0.046 -0.033 -0.033
 0.570  1.306  0.240  0.033 -0.045 -0.032 -0.032
 0.572  1.307  0.241  0.034 -0.044 -0.031 -0.031
 0.574  1.307  0.241  0.034 -0.044 -0.030 -0.030
 0.576  1.308  0.241  0.034 -0.043 -0.030 -0.030
 0.578  1.308  0.242  0.035 -0.042 -0.029 -0.029
 0.580  1.308  0.242  0.035 -0.041 -0.029 -0.029
 0.582  1.308  0.243  0.036 -0.040 -0.028 -0.028
 0.584  1.308  0.243  0.036 -0.039 -0.027 -0.027
 0.586  1.309  0.243  0.037 -0.038 -0.027 -0.027
 0.588  1.309  0.244  0.037 -0.038 -0.026 -0.026
 0.590  1.309  0.244  0.038 -0.037 -0.025 -0.025
 0.592  1.310  0.244  0.038 -0.036 -0.025 -0.025
 0.594  1.310  0.244  0.039 -0.035 -0.024 -0.024
 0.596  1.311  0.244  0.039 -0.034 -0.024 -0.024
 0.598  1.311  0.244  0.040 -0.033 -0.023 -0.023
 0.600  1.311  0.244  0.040 -0.032 -0.022 -0.022
 0.602  1.311  0.244  0.041 -0.030 -0.022 -0.022
 0.604  1.311  0.244  0.042 -0.029 -0.022 -0.022
 0.606  1.312  0.245  0.042 -0.028 -0.021 -0.021
 0.608  1.312  0.245  0.043 -0.027 -0.020 -0.020
 0.610  1.312  0.245  0.043 -0.026 -0.020 -0.020
 0.612  1.313  0.245  0.044 -0.025 -0.019 -0.019
 0.614  1.313  0.245  0.044 -0.024 -0.019 -0.019
 0.616  1.314  0.245  0.045 -0.023 -0.018 -0.018
 0.618  1.314  0.245  0.046 -0.022 -0.017 -0.017
 0.620  1.315  0.245  0.046 -0.020 -0.017 -0.017
 0.622  1.315  0.245  0.047 -0.019 -0.016 -0.016
 0.624  1.315  0.245  0.048 -0.018 -0.016 -0.016
 0.626  1.315  0.245  0.049 -0.017 -0.015 -0.015
 0.628  1.315  0.245  0.049 -0.016 -0.015 -0.015
 0.630  1.316  0.245  0.050 -0.015 -0.014 -0.014
 0.632  1.316  0.245  0.051 -0.014 -0.013 -0.013
 0.634  1.317  0.245  0.052 -0.013 -0.013 -0.013
 0.636  1.317  0.245  0.052 -0.011 -0.013 -0.013
 0.638  1.318  0.246  0.053 -0.010 -0.012 -0.012
 0.640  1.318  0.246  0.054 -0.009 -0.011 -0.011
 0.642  1.318  0.246  0.055 -0.008 -0.011 -0.011
 0.644  1.318  0.246  0.056 -0.007 -0.011 -0.011
 0.646  1.319  0.247  0.056 -0.006 -0.010 -0.010
 0.648  1.319  0.247  0.058 -0.005 -0.009 -0.009
 0.650  1.319  0.248  0.059 -0.004 -0.009 -0.009
 0.652  1.320  0.248  0.059 -0.003 -0.008 -0.008
 0.654  1.320  0.249  0.060 -0.002 -0.008 -0.008
 0.656  1.321  0.249  0.062 -0.001 -0.008 -0.008
 0.658  1.321  0.250  0.063 -0.000 -0.007 -0.007
 0.660  1.321  0.251  0.063  0.001 -0.007 -0.007
 0.662  1.322  0.251  0.065  0.002 -0.006 -0.006
 0.664  1.322  0.251  0.066  0.003 -0.005 -0.005
 0.666  1.323  0.252  0.067  0.004 -0.005 -0.005
 0.668  1.323  0.253  0.069  0.004 -0.005 -0.005
 0.670  1.324  0.254  0.070  0.005 -0.004 -0.004
 0.672  1.324  0.255  0.071  0.006 -0.003 -0.003
 0.674  1.325  0.256  0.072  0.007 -0.003 -0.003
 0.676  1.325  0.257  0.074  0.008 -0.002 -0.002
 0.678  1.325  0.258  0.075  0.009 -0.002 -0.002
 0.680  1.326  0.259  0.076  0.009 -0.001 -0.001
 0.682  1.326  0.259  0.078  0.010 -0.000 -0.000
 0.684  1.327  0.261  0.079  0.011  0.001  0.001
 0.686  1.328  0.262  0.081  0.012  0.001  0.001
 0.688  1.328  0.263  0.082  0.013  0.002  0.002
 0.690  1.328  0.265  0.084  0.014  0.003  0.003
 0.692  1.329  0.266  0.085  0.014  0.003  0.003
 0.694  1.330  0.267  0.087  0.015  0.004  0.004
 0.696  1.330  0.268  0.089  0.016  0.005  0.005
 0.698  1.331  0.270  0.090  0.017  0.006  0.006
 0.700  1.331  0.271  0.092  0.017  0.007  0.007
 0.702  1.332  0.273  0.094  0.018  0.008  0.008
 0.704  1.333  0.274  0.095  0.019  0.009  0.009
 0.706  1.333  0.275  0.097  0.020  0.009  0.009
 0.708  1.334  0.277  0.099  0.021  0.011  0.011
 0.710  1.335  0.279  0.100  0.022  0.012  0.012
 0.712  1.335  0.281  0.102  0.023  0.013  0.013
 0.714  1.336  0.282  0.103  0.025  0.014  0.014
 0.716  1.336  0.284  0.105  0.025  0.015  0.015
 0.718  1.337  0.286  0.106  0.026  0.016  0.016
 0.720  1.338  0.288  0.107  0.028  0.017  0.017
 0.722  1.338  0.289  0.109  0.029  0.018  0.018
 0.724  1.339  0.292  0.110  0.030  0.020  0.020
 0.726  1.340  0.294  0.111  0.031  0.021  0.021
 0.728  1.341  0.296  0.113  0.033  0.022  0.022
 0.730  1.341  0.297  0.113  0.034  0.023  0.023
 0.732  1.343  0.300  0.114  0.035  0.025  0.025
 0.734  1.344  0.302  0.116  0.036  0.026  0.026
 0.736  1.345  0.304  0.116  0.038  0.027  0.027
 0.738  1.346  0.306  0.117  0.039  0.028  0.028
 0.740  1.347  0.308  0.118  0.040  0.030  0.030
 0.742  1.348  0.311  0.119  0.042  0.031  0.031
 0.744  1.350  0.312  0.119  0.043  0.032  0.032
 0.746  1.351  0.315  0.120  0.045  0.034  0.034
 0.748  1.353  0.318  0.120  0.046  0.034  0.034
 0.750  1.355  0.320  0.121  0.048  0.036  0.036
 0.752  1.356  0.322  0.122  0.049  0.037  0.037
 0.754  1.358  0.326  0.122  0.051  0.038  0.038
 0.756  1.359  0.328  0.122  0.053  0.039  0.039
 0.758  1.361  0.331  0.123  0.055  0.040  0.040
 0.760  1.363  0.334  0.123  0.056  0.041  0.041
 0.762  1.365  0.336  0.123  0.057  0.042  0.042
 0.764  1.367  0.340  0.123  0.059  0.043  0.043
 0.766  1.369  0.343  0.123  0.060  0.044  0.044
 0.768  1.371  0.344  0.123  0.061  0.045  0.045
 0.770  1.373  0.347  0.123  0.062  0.045  0.045
 0.772  1.375  0.350  0.123  0.063  0.046  0.046
 0.774  1.378  0.351  0.123  0.063  0.047  0.047
 0.776  1.381  0.353  0.122  0.063  0.048  0.048
 0.778  1.383  0.355  0.122  0.063  0.048  0.048
 0.780  1.386  0.356  0.121  0.063  0.049  0.049
 0.782  1.388  0.357  0.120  0.062  0.050  0.050
 0.784  1.391  0.358  0.119  0.061  0.050  0.050
 0.786  1.395  0.358  0.117  0.060  0.050  0.050
 0.788  1.397  0.358  0.115  0.059  0.051  0.051
 0.790  1.400  0.357  0.113  0.057  0.052  0.052
 0.792  1.403  0.356  0.110  0.056  0.052  0.052
 0.794  1.405  0.354  0.107  0.054  0.053  0.053
 0.796  1.408  0.352  0.104  0.051  0.053  0.053
 0.798  1.411  0.350  0.100  0.049  0.053  0.053
 0.800  1.413  0.348  0.097  0.046  0.054  0.054
 0.802  1.415  0.344  0.092  0.043  0.054  0.054
 0.804  1.417  0.341  0.088  0.040  0.055  0.055
 0.806  1.418  0.337  0.083  0.036  0.055  0.055
 0.808  1.419  0.333  0.078  0.033  0.055  0.055
