# IsPeriodic    : True
# Period        : 0.460112 days
# Normalization : <g_mag>=0
# 
# Phase u_mag  g_mag  r_mag  i_mag  z_mag  y_mag
 0.000  0.169 -0.983 -0.768 -0.632 -0.560 -0.560
 0.002  0.169 -0.983 -0.768 -0.632 -0.560 -0.560
 0.004  0.169 -0.981 -0.768 -0.631 -0.559 -0.559
 0.006  0.170 -0.980 -0.767 -0.630 -0.558 -0.558
 0.008  0.172 -0.977 -0.766 -0.628 -0.557 -0.557
 0.010  0.175 -0.974 -0.764 -0.625 -0.556 -0.556
 0.012  0.176 -0.970 -0.762 -0.622 -0.554 -0.554
 0.014  0.179 -0.965 -0.760 -0.619 -0.553 -0.553
 0.016  0.182 -0.961 -0.757 -0.615 -0.550 -0.550
 0.018  0.187 -0.955 -0.755 -0.611 -0.549 -0.549
 0.020  0.191 -0.949 -0.752 -0.607 -0.546 -0.546
 0.022  0.194 -0.944 -0.750 -0.602 -0.544 -0.544
 0.024  0.198 -0.938 -0.746 -0.598 -0.542 -0.542
 0.026  0.204 -0.932 -0.743 -0.594 -0.539 -0.539
 0.028  0.209 -0.926 -0.740 -0.590 -0.536 -0.536
 0.030  0.213 -0.919 -0.736 -0.585 -0.534 -0.534
 0.032  0.219 -0.913 -0.732 -0.582 -0.531 -0.531
 0.034  0.225 -0.908 -0.728 -0.578 -0.529 -0.529
 0.036  0.231 -0.900 -0.724 -0.574 -0.527 -0.527
 0.038  0.237 -0.895 -0.720 -0.570 -0.523 -0.523
 0.040  0.243 -0.887 -0.716 -0.567 -0.521 -0.521
 0.042  0.251 -0.880 -0.711 -0.562 -0.518 -0.518
 0.044  0.258 -0.873 -0.706 -0.558 -0.515 -0.515
 0.046  0.265 -0.866 -0.702 -0.555 -0.512 -0.512
 0.048  0.273 -0.859 -0.696 -0.550 -0.509 -0.509
 0.050  0.280 -0.851 -0.691 -0.546 -0.506 -0.506
 0.052  0.289 -0.843 -0.685 -0.542 -0.502 -0.502
 0.054  0.298 -0.834 -0.680 -0.537 -0.499 -0.499
 0.056  0.307 -0.825 -0.673 -0.533 -0.495 -0.495
 0.058  0.316 -0.817 -0.668 -0.529 -0.492 -0.492
 0.060  0.325 -0.808 -0.661 -0.525 -0.488 -0.488
 0.062  0.335 -0.798 -0.654 -0.520 -0.484 -0.484
 0.064  0.346 -0.789 -0.648 -0.515 -0.480 -0.480
 0.066  0.355 -0.779 -0.641 -0.511 -0.476 -0.476
 0.068  0.367 -0.769 -0.634 -0.507 -0.472 -0.472
 0.070  0.377 -0.759 -0.627 -0.502 -0.468 -0.468
 0.072  0.388 -0.749 -0.620 -0.497 -0.464 -0.464
 0.074  0.399 -0.739 -0.612 -0.493 -0.460 -0.460
 0.076  0.410 -0.729 -0.606 -0.488 -0.456 -0.456
 0.078  0.422 -0.719 -0.598 -0.484 -0.451 -0.451
 0.080  0.432 -0.709 -0.591 -0.479 -0.447 -0.447
 0.082  0.444 -0.699 -0.583 -0.475 -0.443 -0.443
 0.084  0.455 -0.689 -0.576 -0.470 -0.438 -0.438
 0.086  0.465 -0.678 -0.569 -0.466 -0.434 -0.434
 0.088  0.475 -0.668 -0.562 -0.461 -0.430 -0.430
 0.090  0.486 -0.658 -0.556 -0.457 -0.427 -0.427
 0.092  0.496 -0.648 -0.549 -0.452 -0.423 -0.423
 0.094  0.507 -0.638 -0.542 -0.448 -0.419 -0.419
 0.096  0.516 -0.629 -0.536 -0.443 -0.415 -0.415
 0.098  0.526 -0.619 -0.529 -0.439 -0.411 -0.411
 0.100  0.535 -0.611 -0.522 -0.435 -0.408 -0.408
 0.102  0.544 -0.601 -0.517 -0.431 -0.404 -0.404
 0.104  0.553 -0.592 -0.510 -0.426 -0.401 -0.401
 0.106  0.562 -0.583 -0.505 -0.422 -0.397 -0.397
 0.108  0.571 -0.575 -0.499 -0.419 -0.393 -0.393
 0.110  0.580 -0.566 -0.493 -0.414 -0.389 -0.389
 0.112  0.589 -0.557 -0.487 -0.410 -0.386 -0.386
 0.114  0.596 -0.550 -0.481 -0.407 -0.383 -0.383
 0.116  0.605 -0.541 -0.476 -0.402 -0.380 -0.380
 0.118  0.612 -0.534 -0.470 -0.399 -0.377 -0.377
 0.120  0.621 -0.526 -0.465 -0.395 -0.374 -0.374
 0.122  0.629 -0.518 -0.459 -0.391 -0.371 -0.371
 0.124  0.636 -0.511 -0.454 -0.388 -0.367 -0.367
 0.126  0.644 -0.504 -0.449 -0.384 -0.364 -0.364
 0.128  0.651 -0.497 -0.444 -0.380 -0.362 -0.362
 0.130  0.658 -0.490 -0.439 -0.377 -0.359 -0.359
 0.132  0.664 -0.482 -0.435 -0.373 -0.356 -0.356
 0.134  0.672 -0.475 -0.431 -0.370 -0.353 -0.353
 0.136  0.678 -0.469 -0.425 -0.367 -0.351 -0.351
 0.138  0.685 -0.462 -0.421 -0.363 -0.348 -0.348
 0.140  0.691 -0.456 -0.416 -0.360 -0.345 -0.345
 0.142  0.697 -0.451 -0.413 -0.356 -0.343 -0.343
 0.144  0.703 -0.443 -0.408 -0.353 -0.341 -0.341
 0.146  0.709 -0.438 -0.404 -0.349 -0.338 -0.338
 0.148  0.715 -0.432 -0.399 -0.347 -0.336 -0.336
 0.150  0.721 -0.426 -0.395 -0.343 -0.334 -0.334
 0.152  0.727 -0.420 -0.392 -0.340 -0.331 -0.331
 0.154  0.733 -0.415 -0.387 -0.337 -0.329 -0.329
 0.156  0.739 -0.409 -0.383 -0.334 -0.326 -0.326
 0.158  0.745 -0.403 -0.380 -0.332 -0.324 -0.324
 0.160  0.751 -0.399 -0.375 -0.328 -0.322 -0.322
 0.162  0.755 -0.393 -0.371 -0.326 -0.319 -0.319
 0.164  0.761 -0.387 -0.367 -0.323 -0.317 -0.317
 0.166  0.767 -0.381 -0.363 -0.320 -0.315 -0.315
 0.168  0.773 -0.376 -0.360 -0.317 -0.312 -0.312
 0.170  0.779 -0.370 -0.355 -0.314 -0.310 -0.310
 0.172  0.785 -0.364 -0.351 -0.311 -0.308 -0.308
 0.174  0.791 -0.358 -0.347 -0.308 -0.305 -0.305
 0.176  0.795 -0.353 -0.343 -0.306 -0.303 -0.303
 0.178  0.801 -0.347 -0.340 -0.302 -0.300 -0.300
 0.180  0.807 -0.341 -0.335 -0.300 -0.298 -0.298
 0.182  0.813 -0.335 -0.331 -0.297 -0.296 -0.296
 0.184  0.819 -0.330 -0.327 -0.295 -0.293 -0.293
 0.186  0.825 -0.324 -0.323 -0.292 -0.291 -0.291
 0.188  0.831 -0.317 -0.320 -0.289 -0.289 -0.289
 0.190  0.836 -0.311 -0.315 -0.286 -0.286 -0.286
 0.192  0.842 -0.305 -0.312 -0.284 -0.285 -0.285
 0.194  0.848 -0.299 -0.308 -0.281 -0.282 -0.282
 0.196  0.854 -0.294 -0.304 -0.279 -0.280 -0.280
 0.198  0.859 -0.288 -0.301 -0.276 -0.278 -0.278
 0.200  0.865 -0.282 -0.296 -0.273 -0.275 -0.275
 0.202  0.870 -0.276 -0.293 -0.271 -0.273 -0.273
 0.204  0.876 -0.270 -0.289 -0.268 -0.270 -0.270
 0.206  0.882 -0.263 -0.285 -0.266 -0.268 -0.268
 0.208  0.888 -0.257 -0.282 -0.263 -0.266 -0.266
 0.210  0.892 -0.252 -0.278 -0.261 -0.263 -0.263
 0.212  0.898 -0.246 -0.274 -0.259 -0.261 -0.261
 0.214  0.904 -0.239 -0.270 -0.256 -0.259 -0.259
 0.216  0.910 -0.233 -0.267 -0.254 -0.256 -0.256
 0.218  0.916 -0.227 -0.263 -0.251 -0.254 -0.254
 0.220  0.921 -0.221 -0.259 -0.249 -0.252 -0.252
 0.222  0.926 -0.214 -0.255 -0.247 -0.249 -0.249
 0.224  0.932 -0.208 -0.252 -0.244 -0.247 -0.247
 0.226  0.937 -0.203 -0.249 -0.242 -0.244 -0.244
 0.228  0.943 -0.197 -0.244 -0.240 -0.243 -0.243
 0.230  0.949 -0.191 -0.241 -0.238 -0.241 -0.241
 0.232  0.953 -0.185 -0.238 -0.235 -0.238 -0.238
 0.234  0.959 -0.180 -0.234 -0.233 -0.236 -0.236
 0.236  0.964 -0.174 -0.231 -0.231 -0.233 -0.233
 0.238  0.970 -0.168 -0.228 -0.228 -0.231 -0.231
 0.240  0.974 -0.162 -0.224 -0.226 -0.230 -0.230
 0.242  0.980 -0.157 -0.220 -0.224 -0.227 -0.227
 0.244  0.985 -0.151 -0.217 -0.221 -0.225 -0.225
 0.246  0.989 -0.145 -0.213 -0.220 -0.222 -0.222
 0.248  0.995 -0.141 -0.210 -0.217 -0.221 -0.221
 0.250  0.999 -0.135 -0.207 -0.214 -0.218 -0.218
 0.252  1.004 -0.129 -0.203 -0.213 -0.216 -0.216
 0.254  1.010 -0.125 -0.200 -0.210 -0.215 -0.215
 0.256  1.014 -0.119 -0.198 -0.208 -0.212 -0.212
 0.258  1.019 -0.113 -0.195 -0.206 -0.210 -0.210
 0.260  1.023 -0.109 -0.191 -0.203 -0.208 -0.208
 0.262  1.028 -0.103 -0.188 -0.202 -0.206 -0.206
 0.264  1.034 -0.099 -0.185 -0.199 -0.204 -0.204
 0.266  1.038 -0.095 -0.181 -0.196 -0.202 -0.202
 0.268  1.043 -0.089 -0.178 -0.195 -0.200 -0.200
 0.270  1.047 -0.085 -0.176 -0.192 -0.198 -0.198
 0.272  1.052 -0.080 -0.172 -0.191 -0.196 -0.196
 0.274  1.056 -0.074 -0.169 -0.188 -0.194 -0.194
 0.276  1.060 -0.070 -0.166 -0.186 -0.192 -0.192
 0.278  1.065 -0.066 -0.164 -0.184 -0.190 -0.190
 0.280  1.069 -0.061 -0.160 -0.181 -0.189 -0.189
 0.282  1.074 -0.057 -0.157 -0.179 -0.186 -0.186
 0.284  1.077 -0.053 -0.155 -0.177 -0.185 -0.185
 0.286  1.081 -0.048 -0.151 -0.175 -0.183 -0.183
 0.288  1.086 -0.044 -0.148 -0.173 -0.181 -0.181
 0.290  1.090 -0.040 -0.146 -0.171 -0.179 -0.179
 0.292  1.095 -0.035 -0.142 -0.168 -0.177 -0.177
 0.294  1.099 -0.031 -0.140 -0.167 -0.175 -0.175
 0.296  1.102 -0.027 -0.137 -0.164 -0.174 -0.174
 0.298  1.107 -0.023 -0.135 -0.161 -0.171 -0.171
 0.300  1.111 -0.018 -0.131 -0.160 -0.170 -0.170
 0.302  1.116 -0.014 -0.128 -0.157 -0.168 -0.168
 0.304  1.119 -0.011 -0.126 -0.155 -0.166 -0.166
 0.306  1.123 -0.007 -0.123 -0.153 -0.164 -0.164
 0.308  1.127 -0.002 -0.120 -0.151 -0.163 -0.163
 0.310  1.132  0.002 -0.117 -0.149 -0.160 -0.160
 0.312  1.135  0.006 -0.115 -0.147 -0.159 -0.159
 0.314  1.139  0.009 -0.111 -0.144 -0.157 -0.157
 0.316  1.144  0.014 -0.108 -0.142 -0.155 -0.155
 0.318  1.148  0.018 -0.106 -0.140 -0.153 -0.153
 0.320  1.151  0.022 -0.103 -0.138 -0.151 -0.151
 0.322  1.156  0.027 -0.100 -0.136 -0.149 -0.149
 0.324  1.160  0.031 -0.097 -0.133 -0.148 -0.148
 0.326  1.163  0.034 -0.094 -0.131 -0.146 -0.146
 0.328  1.168  0.038 -0.092 -0.129 -0.144 -0.144
 0.330  1.172  0.042 -0.088 -0.126 -0.142 -0.142
 0.332  1.177  0.047 -0.086 -0.125 -0.140 -0.140
 0.334  1.180  0.050 -0.083 -0.122 -0.139 -0.139
 0.336  1.184  0.054 -0.080 -0.120 -0.137 -0.137
 0.338  1.189  0.058 -0.077 -0.118 -0.135 -0.135
 0.340  1.192  0.063 -0.075 -0.115 -0.133 -0.133
 0.342  1.196  0.067 -0.072 -0.114 -0.131 -0.131
 0.344  1.199  0.070 -0.068 -0.111 -0.129 -0.129
 0.346  1.203  0.074 -0.066 -0.108 -0.128 -0.128
 0.348  1.208  0.078 -0.063 -0.107 -0.125 -0.125
 0.350  1.211  0.081 -0.061 -0.104 -0.124 -0.124
 0.352  1.215  0.086 -0.057 -0.102 -0.122 -0.122
 0.354  1.220  0.090 -0.055 -0.100 -0.120 -0.120
 0.356  1.223  0.094 -0.052 -0.097 -0.118 -0.118
 0.358  1.227  0.097 -0.048 -0.095 -0.117 -0.117
 0.360  1.230  0.101 -0.046 -0.093 -0.115 -0.115
 0.362  1.235  0.106 -0.043 -0.091 -0.113 -0.113
 0.364  1.239  0.109 -0.041 -0.088 -0.111 -0.111
 0.366  1.242  0.113 -0.037 -0.085 -0.110 -0.110
 0.368  1.247  0.117 -0.035 -0.084 -0.107 -0.107
 0.370  1.250  0.122 -0.032 -0.081 -0.106 -0.106
 0.372  1.254  0.125 -0.030 -0.079 -0.104 -0.104
 0.374  1.257  0.129 -0.026 -0.077 -0.102 -0.102
 0.376  1.261  0.133 -0.024 -0.074 -0.100 -0.100
 0.378  1.264  0.136 -0.021 -0.072 -0.098 -0.098
 0.380  1.269  0.140 -0.018 -0.070 -0.096 -0.096
 0.382  1.272  0.145 -0.015 -0.067 -0.095 -0.095
 0.384  1.276  0.149 -0.013 -0.066 -0.092 -0.092
 0.386  1.279  0.152 -0.010 -0.063 -0.091 -0.091
 0.388  1.284  0.156 -0.007 -0.061 -0.088 -0.088
 0.390  1.287  0.161 -0.004 -0.059 -0.087 -0.087
 0.392  1.291  0.165 -0.002 -0.056 -0.085 -0.085
 0.394  1.294  0.168  0.002 -0.055 -0.083 -0.083
 0.396  1.299  0.172  0.004 -0.052 -0.081 -0.081
 0.398  1.302  0.176  0.007 -0.050 -0.079 -0.079
 0.400  1.306  0.179  0.009 -0.048 -0.077 -0.077
 0.402  1.309  0.184  0.013 -0.045 -0.075 -0.075
 0.404  1.314  0.188  0.015 -0.044 -0.073 -0.073
 0.406  1.317  0.192  0.018 -0.041 -0.071 -0.071
 0.408  1.320  0.195  0.020 -0.039 -0.069 -0.069
 0.410  1.324  0.199  0.024 -0.037 -0.066 -0.066
 0.412  1.327  0.204  0.026 -0.035 -0.065 -0.065
 0.414  1.330  0.208  0.029 -0.032 -0.062 -0.062
 0.416  1.334  0.211  0.031 -0.031 -0.061 -0.061
 0.418  1.337  0.215  0.034 -0.028 -0.058 -0.058
 0.420  1.342  0.220  0.037 -0.026 -0.056 -0.056
 0.422  1.345  0.224  0.039 -0.025 -0.055 -0.055
 0.424  1.348  0.228  0.042 -0.022 -0.052 -0.052
 0.426  1.352  0.231  0.045 -0.020 -0.050 -0.050
 0.428  1.355  0.236  0.048 -0.018 -0.048 -0.048
 0.430  1.358  0.240  0.050 -0.016 -0.046 -0.046
 0.432  1.361  0.244  0.052 -0.014 -0.044 -0.044
 0.434  1.366  0.247  0.056 -0.012 -0.042 -0.042
 0.436  1.369  0.251  0.058 -0.010 -0.040 -0.040
 0.438  1.372  0.256  0.061 -0.008 -0.037 -0.037
 0.440  1.375  0.260  0.064 -0.006 -0.036 -0.036
 0.442  1.379  0.263  0.066 -0.004 -0.033 -0.033
 0.444  1.382  0.267  0.069 -0.002 -0.031 -0.031
 0.446  1.385  0.270  0.071  0.000 -0.029 -0.029
 0.448  1.388  0.274  0.074  0.002 -0.027 -0.027
 0.450  1.391  0.277  0.076  0.004 -0.025 -0.025
 0.452  1.394  0.282  0.079  0.006 -0.023 -0.023
 0.454  1.397  0.285  0.081  0.008 -0.021 -0.021
 0.456  1.400  0.287  0.083  0.010 -0.019 -0.019
 0.458  1.403  0.292  0.086  0.012 -0.018 -0.018
 0.460  1.406  0.295  0.089  0.014 -0.015 -0.015
 0.462  1.409  0.298  0.091  0.016 -0.014 -0.014
 0.464  1.412  0.300  0.093  0.018 -0.012 -0.012
 0.466  1.415  0.303  0.096  0.020 -0.010 -0.010
 0.468  1.418  0.306  0.098  0.021 -0.008 -0.008
 0.470  1.421  0.309  0.100  0.024 -0.006 -0.006
 0.472  1.424  0.312  0.103  0.026 -0.004 -0.004
 0.474  1.427  0.315  0.106  0.027 -0.003 -0.003
 0.476  1.430  0.318  0.108  0.030 -0.001 -0.001
 0.478  1.431  0.321  0.110  0.032  0.001  0.001
 0.480  1.434  0.322  0.112  0.033  0.003  0.003
 0.482  1.437  0.325  0.115  0.035  0.005  0.005
 0.484  1.440  0.328  0.117  0.038  0.006  0.006
 0.486  1.442  0.329  0.119  0.039  0.008  0.008
 0.488  1.445  0.332  0.121  0.041  0.009  0.009
 0.490  1.448  0.334  0.123  0.044  0.011  0.011
 0.492  1.449  0.336  0.126  0.045  0.012  0.012
 0.494  1.452  0.338  0.128  0.047  0.014  0.014
 0.496  1.455  0.339  0.130  0.049  0.016  0.016
 0.498  1.457  0.342  0.132  0.051  0.017  0.017
 0.500  1.460  0.344  0.134  0.053  0.019  0.019
 0.502  1.461  0.345  0.137  0.055  0.020  0.020
 0.504  1.464  0.347  0.139  0.057  0.022  0.022
 0.506  1.465  0.348  0.141  0.059  0.023  0.023
 0.508  1.468  0.349  0.142  0.061  0.025  0.025
 0.510  1.470  0.351  0.144  0.062  0.026  0.026
 0.512  1.473  0.352  0.147  0.064  0.027  0.027
 0.514  1.474  0.354  0.149  0.066  0.029  0.029
 0.516  1.476  0.355  0.150  0.068  0.031  0.031
 0.518  1.477  0.357  0.152  0.070  0.032  0.032
 0.520  1.480  0.358  0.154  0.072  0.033  0.033
 0.522  1.482  0.360  0.155  0.074  0.034  0.034
 0.524  1.483  0.361  0.158  0.074  0.036  0.036
 0.526  1.485  0.362  0.159  0.076  0.037  0.037
 0.528  1.486  0.364  0.161  0.078  0.038  0.038
 0.530  1.488  0.364  0.162  0.080  0.039  0.039
 0.532  1.489  0.365  0.164  0.081  0.041  0.041
 0.534  1.491  0.367  0.165  0.082  0.042  0.042
 0.536  1.492  0.368  0.168  0.084  0.043  0.043
 0.538  1.494  0.368  0.169  0.085  0.045  0.045
 0.540  1.495  0.370  0.170  0.086  0.046  0.046
 0.542  1.497  0.371  0.172  0.087  0.047  0.047
 0.544  1.498  0.371  0.173  0.088  0.048  0.048
 0.546  1.500  0.372  0.174  0.089  0.049  0.049
 0.548  1.501  0.372  0.175  0.091  0.050  0.050
 0.550  1.501  0.374  0.177  0.091  0.051  0.051
 0.552  1.503  0.374  0.179  0.092  0.053  0.053
 0.554  1.504  0.375  0.180  0.093  0.053  0.053
 0.556  1.504  0.375  0.181  0.094  0.054  0.054
 0.558  1.506  0.377  0.182  0.095  0.055  0.055
 0.560  1.506  0.377  0.183  0.096  0.057  0.057
 0.562  1.507  0.377  0.184  0.096  0.057  0.057
 0.564  1.507  0.378  0.185  0.097  0.058  0.058
 0.566  1.509  0.378  0.187  0.097  0.059  0.059
 0.568  1.509  0.378  0.188  0.098  0.060  0.060
 0.570  1.510  0.380  0.188  0.098  0.061  0.061
 0.572  1.510  0.380  0.189  0.099  0.062  0.062
 0.574  1.510  0.380  0.190  0.099  0.063  0.063
 0.576  1.512  0.380  0.191  0.099  0.064  0.064
 0.578  1.512  0.380  0.191  0.100  0.064  0.064
 0.580  1.512  0.381  0.192  0.100  0.065  0.065
 0.582  1.512  0.381  0.193  0.100  0.066  0.066
 0.584  1.513  0.381  0.193  0.101  0.067  0.067
 0.586  1.513  0.381  0.194  0.101  0.068  0.068
 0.588  1.513  0.381  0.194  0.101  0.068  0.068
 0.590  1.513  0.381  0.195  0.101  0.069  0.069
 0.592  1.513  0.381  0.195  0.102  0.070  0.070
 0.594  1.515  0.381  0.196  0.102  0.071  0.071
 0.596  1.515  0.381  0.196  0.102  0.071  0.071
 0.598  1.515  0.381  0.198  0.103  0.072  0.072
 0.600  1.515  0.381  0.198  0.103  0.072  0.072
 0.602  1.515  0.381  0.198  0.103  0.073  0.073
 0.604  1.515  0.381  0.198  0.103  0.074  0.074
 0.606  1.515  0.381  0.199  0.103  0.075  0.075
 0.608  1.515  0.381  0.199  0.103  0.075  0.075
 0.610  1.515  0.381  0.199  0.103  0.075  0.075
 0.612  1.515  0.381  0.199  0.104  0.076  0.076
 0.614  1.515  0.381  0.199  0.104  0.077  0.077
 0.616  1.515  0.381  0.199  0.105  0.077  0.077
 0.618  1.515  0.381  0.199  0.105  0.078  0.078
 0.620  1.515  0.381  0.199  0.105  0.079  0.079
 0.622  1.515  0.381  0.199  0.106  0.079  0.079
 0.624  1.515  0.381  0.199  0.106  0.079  0.079
 0.626  1.513  0.381  0.199  0.106  0.080  0.080
 0.628  1.513  0.381  0.198  0.107  0.080  0.080
 0.630  1.513  0.381  0.198  0.107  0.081  0.081
 0.632  1.513  0.381  0.198  0.108  0.082  0.082
 0.634  1.513  0.380  0.196  0.108  0.082  0.082
 0.636  1.512  0.380  0.196  0.109  0.083  0.083
 0.638  1.512  0.380  0.196  0.109  0.083  0.083
 0.640  1.512  0.380  0.195  0.109  0.083  0.083
 0.642  1.512  0.380  0.195  0.109  0.083  0.083
 0.644  1.510  0.380  0.194  0.109  0.084  0.084
 0.646  1.510  0.378  0.194  0.110  0.084  0.084
 0.648  1.510  0.378  0.193  0.110  0.085  0.085
 0.650  1.509  0.378  0.193  0.111  0.085  0.085
 0.652  1.509  0.378  0.192  0.111  0.086  0.086
 0.654  1.509  0.377  0.192  0.112  0.086  0.086
 0.656  1.509  0.377  0.191  0.112  0.086  0.086
 0.658  1.507  0.377  0.191  0.113  0.087  0.087
 0.660  1.507  0.377  0.191  0.113  0.087  0.087
 0.662  1.507  0.375  0.190  0.113  0.087  0.087
 0.664  1.506  0.375  0.190  0.114  0.087  0.087
 0.666  1.506  0.375  0.189  0.114  0.088  0.088
 0.668  1.506  0.374  0.189  0.114  0.088  0.088
 0.670  1.504  0.374  0.188  0.115  0.088  0.088
 0.672  1.504  0.374  0.188  0.115  0.089  0.089
 0.674  1.504  0.372  0.188  0.115  0.089  0.089
 0.676  1.503  0.372  0.187  0.115  0.090  0.090
 0.678  1.503  0.372  0.187  0.115  0.090  0.090
 0.680  1.503  0.371  0.187  0.115  0.090  0.090
 0.682  1.503  0.371  0.185  0.115  0.090  0.090
 0.684  1.501  0.370  0.185  0.115  0.091  0.091
 0.686  1.501  0.370  0.185  0.115  0.091  0.091
 0.688  1.501  0.370  0.185  0.115  0.091  0.091
 0.690  1.500  0.368  0.184  0.115  0.092  0.092
 0.692  1.500  0.368  0.184  0.115  0.092  0.092
 0.694  1.500  0.367  0.184  0.114  0.093  0.093
 0.696  1.498  0.367  0.184  0.114  0.093  0.093
 0.698  1.498  0.365  0.184  0.114  0.094  0.094
 0.700  1.498  0.365  0.183  0.114  0.094  0.094
 0.702  1.497  0.364  0.183  0.114  0.094  0.094
 0.704  1.497  0.364  0.183  0.113  0.094  0.094
 0.706  1.497  0.362  0.183  0.113  0.094  0.094
 0.708  1.497  0.362  0.183  0.112  0.095  0.095
 0.710  1.495  0.361  0.183  0.112  0.095  0.095
 0.712  1.495  0.361  0.183  0.111  0.096  0.096
 0.714  1.495  0.360  0.182  0.111  0.096  0.096
 0.716  1.494  0.360  0.182  0.110  0.096  0.096
 0.718  1.494  0.358  0.182  0.109  0.097  0.097
 0.720  1.494  0.357  0.182  0.109  0.097  0.097
 0.722  1.494  0.357  0.182  0.109  0.098  0.098
 0.724  1.492  0.355  0.182  0.108  0.098  0.098
 0.726  1.492  0.355  0.182  0.108  0.098  0.098
 0.728  1.492  0.354  0.182  0.107  0.099  0.099
 0.730  1.492  0.354  0.182  0.107  0.099  0.099
 0.732  1.491  0.354  0.182  0.107  0.100  0.100
 0.734  1.491  0.354  0.182  0.107  0.101  0.101
 0.736  1.491  0.352  0.182  0.107  0.101  0.101
 0.738  1.491  0.352  0.182  0.107  0.102  0.102
 0.740  1.489  0.352  0.182  0.107  0.103  0.103
 0.742  1.489  0.352  0.181  0.108  0.104  0.104
 0.744  1.489  0.352  0.181  0.109  0.105  0.105
 0.746  1.489  0.352  0.181  0.109  0.106  0.106
 0.748  1.489  0.352  0.181  0.109  0.107  0.107
 0.750  1.489  0.354  0.181  0.110  0.109  0.109
 0.752  1.488  0.354  0.181  0.112  0.109  0.109
 0.754  1.488  0.354  0.181  0.113  0.111  0.111
 0.756  1.488  0.354  0.181  0.115  0.112  0.112
 0.758  1.488  0.355  0.181  0.115  0.113  0.113
 0.760  1.488  0.355  0.181  0.117  0.114  0.114
 0.762  1.488  0.357  0.181  0.119  0.116  0.116
 0.764  1.488  0.357  0.181  0.121  0.117  0.117
 0.766  1.488  0.358  0.181  0.123  0.119  0.119
 0.768  1.488  0.360  0.181  0.125  0.120  0.120
 0.770  1.488  0.360  0.181  0.127  0.122  0.122
 0.772  1.488  0.361  0.181  0.130  0.124  0.124
 0.774  1.488  0.362  0.181  0.133  0.125  0.125
 0.776  1.486  0.364  0.181  0.135  0.127  0.127
 0.778  1.486  0.365  0.181  0.138  0.129  0.129
 0.780  1.486  0.367  0.180  0.141  0.131  0.131
 0.782  1.486  0.368  0.180  0.144  0.133  0.133
 0.784  1.486  0.370  0.180  0.148  0.135  0.135
 0.786  1.486  0.372  0.181  0.151  0.137  0.137
 0.788  1.486  0.374  0.181  0.155  0.139  0.139
 0.790  1.488  0.375  0.181  0.158  0.141  0.141
 0.792  1.488  0.377  0.181  0.162  0.142  0.142
 0.794  1.489  0.380  0.182  0.166  0.145  0.145
 0.796  1.489  0.381  0.183  0.169  0.147  0.147
 0.798  1.491  0.383  0.183  0.173  0.149  0.149
 0.800  1.492  0.385  0.185  0.177  0.151  0.151
 0.802  1.494  0.387  0.187  0.180  0.153  0.153
 0.804  1.495  0.388  0.188  0.184  0.156  0.156
 0.806  1.497  0.391  0.190  0.187  0.157  0.157
 0.808  1.500  0.393  0.191  0.191  0.160  0.160
