# IsPeriodic    : True
# Period        : 0.536987 days
# Normalization : <g_mag>=0
# 
# Phase u_mag  g_mag  r_mag  i_mag  z_mag  y_mag
 0.000  0.312 -0.840 -0.698 -0.587 -0.517 -0.517
 0.002  0.312 -0.840 -0.698 -0.587 -0.517 -0.517
 0.004  0.312 -0.839 -0.698 -0.587 -0.516 -0.516
 0.006  0.313 -0.838 -0.697 -0.586 -0.515 -0.515
 0.008  0.315 -0.835 -0.696 -0.585 -0.515 -0.515
 0.010  0.317 -0.833 -0.694 -0.583 -0.514 -0.514
 0.012  0.318 -0.829 -0.692 -0.582 -0.513 -0.513
 0.014  0.321 -0.826 -0.690 -0.579 -0.513 -0.513
 0.016  0.323 -0.822 -0.688 -0.577 -0.512 -0.512
 0.018  0.327 -0.817 -0.687 -0.574 -0.512 -0.512
 0.020  0.331 -0.812 -0.684 -0.572 -0.510 -0.510
 0.022  0.333 -0.807 -0.682 -0.569 -0.509 -0.509
 0.024  0.337 -0.802 -0.679 -0.567 -0.508 -0.508
 0.026  0.342 -0.797 -0.677 -0.564 -0.506 -0.506
 0.028  0.345 -0.792 -0.674 -0.561 -0.505 -0.505
 0.030  0.349 -0.786 -0.671 -0.558 -0.503 -0.503
 0.032  0.354 -0.781 -0.667 -0.555 -0.502 -0.502
 0.034  0.359 -0.776 -0.665 -0.553 -0.500 -0.500
 0.036  0.364 -0.770 -0.661 -0.550 -0.497 -0.497
 0.038  0.369 -0.765 -0.657 -0.547 -0.495 -0.495
 0.040  0.373 -0.759 -0.655 -0.545 -0.492 -0.492
 0.042  0.380 -0.753 -0.650 -0.542 -0.490 -0.490
 0.044  0.386 -0.747 -0.646 -0.539 -0.487 -0.487
 0.046  0.392 -0.741 -0.643 -0.536 -0.484 -0.484
 0.048  0.398 -0.734 -0.638 -0.533 -0.481 -0.481
 0.050  0.404 -0.728 -0.633 -0.530 -0.478 -0.478
 0.052  0.411 -0.721 -0.629 -0.526 -0.475 -0.475
 0.054  0.419 -0.713 -0.624 -0.523 -0.472 -0.472
 0.056  0.426 -0.706 -0.619 -0.520 -0.469 -0.469
 0.058  0.434 -0.699 -0.614 -0.516 -0.465 -0.465
 0.060  0.441 -0.691 -0.609 -0.512 -0.461 -0.461
 0.062  0.449 -0.683 -0.603 -0.508 -0.457 -0.457
 0.064  0.458 -0.675 -0.598 -0.505 -0.454 -0.454
 0.066  0.465 -0.667 -0.592 -0.501 -0.450 -0.450
 0.068  0.475 -0.658 -0.587 -0.497 -0.447 -0.447
 0.070  0.484 -0.649 -0.580 -0.493 -0.443 -0.443
 0.072  0.492 -0.641 -0.575 -0.490 -0.440 -0.440
 0.074  0.502 -0.632 -0.568 -0.486 -0.436 -0.436
 0.076  0.511 -0.623 -0.563 -0.481 -0.432 -0.432
 0.078  0.520 -0.615 -0.556 -0.478 -0.428 -0.428
 0.080  0.529 -0.606 -0.551 -0.474 -0.425 -0.425
 0.082  0.539 -0.598 -0.544 -0.470 -0.422 -0.422
 0.084  0.547 -0.589 -0.538 -0.466 -0.418 -0.418
 0.086  0.556 -0.580 -0.533 -0.462 -0.415 -0.415
 0.088  0.565 -0.572 -0.527 -0.458 -0.412 -0.412
 0.090  0.573 -0.563 -0.521 -0.455 -0.408 -0.408
 0.092  0.582 -0.554 -0.516 -0.451 -0.406 -0.406
 0.094  0.590 -0.546 -0.510 -0.447 -0.403 -0.403
 0.096  0.598 -0.538 -0.505 -0.444 -0.400 -0.400
 0.098  0.606 -0.530 -0.499 -0.440 -0.397 -0.397
 0.100  0.614 -0.522 -0.494 -0.437 -0.394 -0.394
 0.102  0.621 -0.514 -0.489 -0.434 -0.391 -0.391
 0.104  0.628 -0.506 -0.484 -0.430 -0.389 -0.389
 0.106  0.636 -0.499 -0.479 -0.427 -0.386 -0.386
 0.108  0.643 -0.491 -0.475 -0.423 -0.383 -0.383
 0.110  0.650 -0.484 -0.469 -0.420 -0.381 -0.381
 0.112  0.658 -0.477 -0.465 -0.417 -0.379 -0.379
 0.114  0.664 -0.471 -0.460 -0.414 -0.376 -0.376
 0.116  0.671 -0.463 -0.455 -0.411 -0.374 -0.374
 0.118  0.677 -0.457 -0.451 -0.408 -0.371 -0.371
 0.120  0.685 -0.450 -0.446 -0.405 -0.369 -0.369
 0.122  0.691 -0.443 -0.442 -0.402 -0.368 -0.368
 0.124  0.697 -0.437 -0.437 -0.399 -0.366 -0.366
 0.126  0.703 -0.431 -0.433 -0.397 -0.364 -0.364
 0.128  0.709 -0.425 -0.429 -0.394 -0.362 -0.362
 0.130  0.715 -0.419 -0.425 -0.392 -0.360 -0.360
 0.132  0.720 -0.413 -0.422 -0.389 -0.358 -0.358
 0.134  0.726 -0.406 -0.418 -0.387 -0.356 -0.356
 0.136  0.731 -0.401 -0.413 -0.384 -0.354 -0.354
 0.138  0.737 -0.395 -0.410 -0.381 -0.352 -0.352
 0.140  0.742 -0.390 -0.406 -0.379 -0.350 -0.350
 0.142  0.747 -0.385 -0.403 -0.377 -0.349 -0.349
 0.144  0.752 -0.379 -0.399 -0.375 -0.347 -0.347
 0.146  0.757 -0.374 -0.396 -0.372 -0.346 -0.346
 0.148  0.762 -0.369 -0.392 -0.370 -0.344 -0.344
 0.150  0.767 -0.364 -0.388 -0.368 -0.342 -0.342
 0.152  0.772 -0.360 -0.386 -0.367 -0.340 -0.340
 0.154  0.776 -0.355 -0.382 -0.364 -0.338 -0.338
 0.156  0.781 -0.350 -0.378 -0.362 -0.337 -0.337
 0.158  0.786 -0.345 -0.376 -0.360 -0.335 -0.335
 0.160  0.791 -0.341 -0.372 -0.358 -0.333 -0.333
 0.162  0.795 -0.336 -0.368 -0.356 -0.332 -0.332
 0.164  0.800 -0.331 -0.366 -0.354 -0.330 -0.330
 0.166  0.805 -0.326 -0.362 -0.352 -0.328 -0.328
 0.168  0.810 -0.321 -0.359 -0.349 -0.326 -0.326
 0.170  0.814 -0.316 -0.355 -0.348 -0.325 -0.325
 0.172  0.819 -0.311 -0.352 -0.346 -0.323 -0.323
 0.174  0.824 -0.307 -0.349 -0.343 -0.321 -0.321
 0.176  0.828 -0.302 -0.345 -0.341 -0.319 -0.319
 0.178  0.833 -0.297 -0.343 -0.339 -0.317 -0.317
 0.180  0.838 -0.292 -0.339 -0.337 -0.315 -0.315
 0.182  0.843 -0.287 -0.335 -0.334 -0.313 -0.313
 0.184  0.848 -0.282 -0.333 -0.332 -0.312 -0.312
 0.186  0.852 -0.277 -0.329 -0.331 -0.310 -0.310
 0.188  0.857 -0.271 -0.326 -0.328 -0.308 -0.308
 0.190  0.861 -0.266 -0.322 -0.326 -0.306 -0.306
 0.192  0.866 -0.261 -0.320 -0.324 -0.305 -0.305
 0.194  0.871 -0.256 -0.316 -0.322 -0.303 -0.303
 0.196  0.876 -0.251 -0.313 -0.319 -0.301 -0.301
 0.198  0.881 -0.246 -0.310 -0.317 -0.299 -0.299
 0.200  0.885 -0.241 -0.307 -0.315 -0.297 -0.297
 0.202  0.889 -0.236 -0.304 -0.313 -0.295 -0.295
 0.204  0.894 -0.231 -0.300 -0.311 -0.294 -0.294
 0.206  0.899 -0.225 -0.298 -0.309 -0.292 -0.292
 0.208  0.904 -0.220 -0.295 -0.307 -0.290 -0.290
 0.210  0.908 -0.215 -0.291 -0.305 -0.288 -0.288
 0.212  0.912 -0.210 -0.288 -0.302 -0.286 -0.286
 0.214  0.917 -0.204 -0.285 -0.300 -0.284 -0.284
 0.216  0.922 -0.199 -0.282 -0.298 -0.282 -0.282
 0.218  0.927 -0.194 -0.279 -0.296 -0.280 -0.280
 0.220  0.931 -0.189 -0.276 -0.293 -0.278 -0.278
 0.222  0.936 -0.183 -0.273 -0.291 -0.276 -0.276
 0.224  0.941 -0.178 -0.270 -0.289 -0.274 -0.274
 0.226  0.944 -0.173 -0.267 -0.287 -0.272 -0.272
 0.228  0.949 -0.168 -0.264 -0.284 -0.270 -0.270
 0.230  0.954 -0.164 -0.261 -0.282 -0.269 -0.269
 0.232  0.958 -0.159 -0.258 -0.280 -0.267 -0.267
 0.234  0.963 -0.154 -0.255 -0.278 -0.265 -0.265
 0.236  0.966 -0.149 -0.253 -0.275 -0.263 -0.263
 0.238  0.971 -0.144 -0.250 -0.274 -0.261 -0.261
 0.240  0.975 -0.139 -0.247 -0.272 -0.259 -0.259
 0.242  0.980 -0.134 -0.244 -0.269 -0.258 -0.258
 0.244  0.983 -0.129 -0.241 -0.267 -0.256 -0.256
 0.246  0.987 -0.124 -0.238 -0.265 -0.254 -0.254
 0.248  0.992 -0.120 -0.235 -0.264 -0.252 -0.252
 0.250  0.996 -0.115 -0.233 -0.261 -0.250 -0.250
 0.252  0.999 -0.110 -0.230 -0.259 -0.248 -0.248
 0.254  1.004 -0.107 -0.227 -0.257 -0.247 -0.247
 0.256  1.008 -0.102 -0.225 -0.255 -0.245 -0.245
 0.258  1.012 -0.097 -0.222 -0.253 -0.243 -0.243
 0.260  1.015 -0.093 -0.220 -0.251 -0.241 -0.241
 0.262  1.019 -0.088 -0.217 -0.249 -0.239 -0.239
 0.264  1.024 -0.085 -0.214 -0.247 -0.237 -0.237
 0.266  1.028 -0.081 -0.211 -0.245 -0.235 -0.235
 0.268  1.031 -0.076 -0.209 -0.243 -0.233 -0.233
 0.270  1.035 -0.072 -0.207 -0.241 -0.231 -0.231
 0.272  1.039 -0.069 -0.204 -0.239 -0.229 -0.229
 0.274  1.042 -0.064 -0.201 -0.237 -0.227 -0.227
 0.276  1.046 -0.060 -0.199 -0.235 -0.226 -0.226
 0.278  1.050 -0.056 -0.197 -0.234 -0.224 -0.224
 0.280  1.053 -0.053 -0.194 -0.231 -0.222 -0.222
 0.282  1.057 -0.049 -0.191 -0.230 -0.220 -0.220
 0.284  1.059 -0.045 -0.189 -0.228 -0.218 -0.218
 0.286  1.063 -0.041 -0.187 -0.226 -0.217 -0.217
 0.288  1.067 -0.038 -0.184 -0.224 -0.215 -0.215
 0.290  1.070 -0.034 -0.182 -0.222 -0.213 -0.213
 0.292  1.074 -0.030 -0.179 -0.220 -0.212 -0.212
 0.294  1.078 -0.027 -0.177 -0.219 -0.210 -0.210
 0.296  1.080 -0.023 -0.175 -0.216 -0.208 -0.208
 0.298  1.084 -0.019 -0.173 -0.215 -0.206 -0.206
 0.300  1.088 -0.016 -0.170 -0.213 -0.204 -0.204
 0.302  1.091 -0.012 -0.167 -0.211 -0.202 -0.202
 0.304  1.094 -0.009 -0.166 -0.210 -0.201 -0.201
 0.306  1.097 -0.006 -0.163 -0.208 -0.199 -0.199
 0.308  1.101 -0.002 -0.161 -0.206 -0.198 -0.198
 0.310  1.105  0.002 -0.158 -0.204 -0.196 -0.196
 0.312  1.107  0.005 -0.156 -0.202 -0.194 -0.194
 0.314  1.111  0.008 -0.154 -0.200 -0.192 -0.192
 0.316  1.115  0.012 -0.151 -0.199 -0.191 -0.191
 0.318  1.118  0.015 -0.149 -0.196 -0.189 -0.189
 0.320  1.121  0.019 -0.146 -0.195 -0.188 -0.188
 0.322  1.124  0.023 -0.144 -0.193 -0.186 -0.186
 0.324  1.128  0.026 -0.142 -0.191 -0.185 -0.185
 0.326  1.130  0.029 -0.139 -0.190 -0.183 -0.183
 0.328  1.134  0.033 -0.137 -0.187 -0.182 -0.182
 0.330  1.138  0.036 -0.134 -0.186 -0.180 -0.180
 0.332  1.142  0.040 -0.133 -0.184 -0.179 -0.179
 0.334  1.144  0.042 -0.130 -0.182 -0.177 -0.177
 0.336  1.148  0.046 -0.128 -0.180 -0.175 -0.175
 0.338  1.151  0.050 -0.125 -0.178 -0.174 -0.174
 0.340  1.154  0.053 -0.123 -0.176 -0.173 -0.173
 0.342  1.157  0.057 -0.121 -0.175 -0.171 -0.171
 0.344  1.160  0.060 -0.118 -0.172 -0.170 -0.170
 0.346  1.164  0.063 -0.116 -0.171 -0.169 -0.169
 0.348  1.167  0.067 -0.113 -0.169 -0.167 -0.167
 0.350  1.170  0.070 -0.111 -0.167 -0.165 -0.165
 0.352  1.173  0.073 -0.109 -0.165 -0.164 -0.164
 0.354  1.177  0.077 -0.107 -0.163 -0.163 -0.163
 0.356  1.179  0.081 -0.104 -0.161 -0.161 -0.161
 0.358  1.183  0.083 -0.101 -0.160 -0.160 -0.160
 0.360  1.186  0.087 -0.099 -0.157 -0.158 -0.158
 0.362  1.189  0.090 -0.097 -0.156 -0.157 -0.157
 0.364  1.193  0.093 -0.095 -0.154 -0.155 -0.155
 0.366  1.195  0.097 -0.092 -0.152 -0.154 -0.154
 0.368  1.199  0.100 -0.090 -0.150 -0.152 -0.152
 0.370  1.202  0.104 -0.088 -0.149 -0.151 -0.151
 0.372  1.205  0.107 -0.086 -0.146 -0.150 -0.150
 0.374  1.208  0.110 -0.083 -0.145 -0.148 -0.148
 0.376  1.211  0.114 -0.081 -0.143 -0.146 -0.146
 0.378  1.214  0.116 -0.078 -0.141 -0.144 -0.144
 0.380  1.217  0.120 -0.077 -0.140 -0.143 -0.143
 0.382  1.220  0.124 -0.074 -0.137 -0.141 -0.141
 0.384  1.224  0.127 -0.072 -0.136 -0.140 -0.140
 0.386  1.226  0.130 -0.069 -0.134 -0.138 -0.138
 0.388  1.230  0.134 -0.067 -0.132 -0.136 -0.136
 0.390  1.232  0.137 -0.065 -0.130 -0.134 -0.134
 0.392  1.236  0.141 -0.063 -0.128 -0.133 -0.133
 0.394  1.238  0.143 -0.060 -0.126 -0.131 -0.131
 0.396  1.242  0.147 -0.058 -0.125 -0.129 -0.129
 0.398  1.244  0.151 -0.055 -0.123 -0.128 -0.128
 0.400  1.248  0.153 -0.054 -0.121 -0.126 -0.126
 0.402  1.251  0.157 -0.051 -0.119 -0.124 -0.124
 0.404  1.254  0.161 -0.049 -0.117 -0.122 -0.122
 0.406  1.257  0.164 -0.046 -0.116 -0.120 -0.120
 0.408  1.259  0.167 -0.044 -0.113 -0.118 -0.118
 0.410  1.263  0.171 -0.042 -0.112 -0.116 -0.116
 0.412  1.265  0.174 -0.040 -0.110 -0.114 -0.114
 0.414  1.268  0.178 -0.037 -0.108 -0.113 -0.113
 0.416  1.271  0.180 -0.035 -0.107 -0.111 -0.111
 0.418  1.274  0.184 -0.033 -0.104 -0.109 -0.109
 0.420  1.277  0.188 -0.031 -0.103 -0.107 -0.107
 0.422  1.280  0.192 -0.029 -0.102 -0.105 -0.105
 0.424  1.282  0.195 -0.026 -0.099 -0.103 -0.103
 0.426  1.286  0.198 -0.024 -0.098 -0.101 -0.101
 0.428  1.288  0.201 -0.022 -0.096 -0.099 -0.099
 0.430  1.291  0.205 -0.020 -0.094 -0.097 -0.097
 0.432  1.293  0.209 -0.018 -0.093 -0.095 -0.095
 0.434  1.297  0.211 -0.015 -0.090 -0.094 -0.094
 0.436  1.300  0.215 -0.013 -0.089 -0.092 -0.092
 0.438  1.302  0.219 -0.011 -0.087 -0.090 -0.090
 0.440  1.304  0.222 -0.009 -0.085 -0.089 -0.089
 0.442  1.308  0.225 -0.007 -0.084 -0.087 -0.087
 0.444  1.311  0.229 -0.004 -0.082 -0.085 -0.085
 0.446  1.313  0.231 -0.002 -0.080 -0.083 -0.083
 0.448  1.315  0.235 -0.000 -0.078 -0.082 -0.082
 0.450  1.318  0.237  0.001 -0.077 -0.080 -0.080
 0.452  1.320  0.241  0.004 -0.075 -0.079 -0.079
 0.454  1.323  0.243  0.006 -0.073 -0.077 -0.077
 0.456  1.325  0.246  0.008 -0.072 -0.076 -0.076
 0.458  1.328  0.250  0.010 -0.070 -0.074 -0.074
 0.460  1.330  0.252  0.012 -0.068 -0.073 -0.073
 0.462  1.333  0.254  0.014 -0.066 -0.071 -0.071
 0.464  1.335  0.257  0.016 -0.065 -0.070 -0.070
 0.466  1.337  0.259  0.018 -0.063 -0.068 -0.068
 0.468  1.340  0.262  0.020 -0.062 -0.067 -0.067
 0.470  1.342  0.264  0.022 -0.060 -0.066 -0.066
 0.472  1.345  0.267  0.024 -0.058 -0.064 -0.064
 0.474  1.347  0.269  0.026 -0.057 -0.063 -0.063
 0.476  1.350  0.272  0.028 -0.055 -0.062 -0.062
 0.478  1.351  0.274  0.030 -0.054 -0.060 -0.060
 0.480  1.353  0.275  0.032 -0.051 -0.059 -0.059
 0.482  1.356  0.278  0.034 -0.050 -0.058 -0.058
 0.484  1.358  0.280  0.035 -0.049 -0.056 -0.056
 0.486  1.360  0.282  0.037 -0.047 -0.056 -0.056
 0.488  1.362  0.284  0.039 -0.046 -0.054 -0.054
 0.490  1.364  0.285  0.041 -0.044 -0.053 -0.053
 0.492  1.366  0.288  0.043 -0.043 -0.052 -0.052
 0.494  1.368  0.289  0.045 -0.041 -0.051 -0.051
 0.496  1.371  0.290  0.046 -0.039 -0.050 -0.050
 0.498  1.372  0.293  0.048 -0.037 -0.049 -0.049
 0.500  1.374  0.294  0.050 -0.036 -0.048 -0.048
 0.502  1.375  0.295  0.052 -0.034 -0.046 -0.046
 0.504  1.378  0.296  0.054 -0.033 -0.046 -0.046
 0.506  1.379  0.298  0.056 -0.031 -0.044 -0.044
 0.508  1.382  0.299  0.056 -0.030 -0.044 -0.044
 0.510  1.383  0.300  0.058 -0.028 -0.042 -0.042
 0.512  1.385  0.301  0.060 -0.027 -0.042 -0.042
 0.514  1.386  0.303  0.062 -0.025 -0.041 -0.041
 0.516  1.388  0.304  0.063 -0.024 -0.040 -0.040
 0.518  1.389  0.305  0.065 -0.023 -0.039 -0.039
 0.520  1.391  0.306  0.067 -0.022 -0.038 -0.038
 0.522  1.393  0.307  0.067 -0.020 -0.037 -0.037
 0.524  1.394  0.309  0.069 -0.019 -0.036 -0.036
 0.526  1.395  0.310  0.070 -0.018 -0.035 -0.035
 0.528  1.396  0.311  0.072 -0.016 -0.034 -0.034
 0.530  1.398  0.311  0.073 -0.016 -0.033 -0.033
 0.532  1.399  0.312  0.075 -0.014 -0.032 -0.032
 0.534  1.400  0.314  0.076 -0.013 -0.031 -0.031
 0.536  1.401  0.315  0.078 -0.012 -0.030 -0.030
 0.538  1.402  0.315  0.078 -0.011 -0.029 -0.029
 0.540  1.404  0.316  0.079 -0.010 -0.029 -0.029
 0.542  1.405  0.317  0.081 -0.009 -0.027 -0.027
 0.544  1.406  0.317  0.082 -0.008 -0.027 -0.027
 0.546  1.407  0.319  0.083 -0.007 -0.026 -0.026
 0.548  1.409  0.319  0.084 -0.006 -0.025 -0.025
 0.550  1.409  0.320  0.085 -0.005 -0.024 -0.024
 0.552  1.410  0.320  0.087 -0.004 -0.023 -0.023
 0.554  1.411  0.321  0.088 -0.004 -0.023 -0.023
 0.556  1.411  0.321  0.089 -0.003 -0.021 -0.021
 0.558  1.412  0.322  0.089 -0.002 -0.021 -0.021
 0.560  1.412  0.322  0.090 -0.001 -0.020 -0.020
 0.562  1.413  0.322  0.091 -0.001 -0.019 -0.019
 0.564  1.413  0.324  0.092  0.000 -0.018 -0.018
 0.566  1.415  0.324  0.093  0.001 -0.017 -0.017
 0.568  1.415  0.324  0.094  0.002 -0.017 -0.017
 0.570  1.416  0.325  0.094  0.002 -0.016 -0.016
 0.572  1.416  0.325  0.095  0.002 -0.015 -0.015
 0.574  1.416  0.325  0.096  0.003 -0.015 -0.015
 0.576  1.417  0.325  0.097  0.004 -0.013 -0.013
 0.578  1.417  0.325  0.097  0.004 -0.013 -0.013
 0.580  1.417  0.326  0.098  0.004 -0.012 -0.012
 0.582  1.417  0.326  0.099  0.004 -0.011 -0.011
 0.584  1.418  0.326  0.099  0.005 -0.011 -0.011
 0.586  1.418  0.326  0.100  0.006 -0.010 -0.010
 0.588  1.418  0.326  0.100  0.006 -0.009 -0.009
 0.590  1.418  0.326  0.100  0.007 -0.009 -0.009
 0.592  1.418  0.326  0.100  0.007 -0.008 -0.008
 0.594  1.420  0.326  0.101  0.007 -0.007 -0.007
 0.596  1.420  0.326  0.101  0.007 -0.007 -0.007
 0.598  1.420  0.326  0.102  0.008 -0.006 -0.006
 0.600  1.420  0.326  0.102  0.008 -0.005 -0.005
 0.602  1.420  0.326  0.102  0.009 -0.005 -0.005
 0.604  1.420  0.326  0.102  0.009 -0.004 -0.004
 0.606  1.420  0.326  0.103  0.010 -0.004 -0.004
 0.608  1.420  0.326  0.103  0.010 -0.003 -0.003
 0.610  1.420  0.326  0.103  0.010 -0.002 -0.002
 0.612  1.420  0.326  0.103  0.010 -0.002 -0.002
 0.614  1.420  0.326  0.103  0.011 -0.001 -0.001
 0.616  1.420  0.326  0.103  0.011 -0.000 -0.000
 0.618  1.420  0.326  0.103  0.012  0.000  0.000
 0.620  1.420  0.326  0.103  0.012  0.001  0.001
 0.622  1.420  0.326  0.103  0.012  0.002  0.002
 0.624  1.420  0.326  0.103  0.013  0.002  0.002
 0.626  1.418  0.326  0.103  0.013  0.003  0.003
 0.628  1.418  0.326  0.102  0.013  0.004  0.004
 0.630  1.418  0.326  0.102  0.013  0.004  0.004
 0.632  1.418  0.326  0.102  0.013  0.005  0.005
 0.634  1.418  0.325  0.101  0.014  0.005  0.005
 0.636  1.417  0.325  0.101  0.014  0.006  0.006
 0.638  1.417  0.325  0.101  0.015  0.006  0.006
 0.640  1.417  0.325  0.100  0.015  0.007  0.007
 0.642  1.417  0.325  0.100  0.015  0.008  0.008
 0.644  1.416  0.325  0.100  0.016  0.008  0.008
 0.646  1.416  0.324  0.100  0.016  0.008  0.008
 0.648  1.416  0.324  0.099  0.016  0.009  0.009
 0.650  1.415  0.324  0.099  0.016  0.010  0.010
 0.652  1.415  0.324  0.098  0.016  0.010  0.010
 0.654  1.415  0.322  0.098  0.016  0.010  0.010
 0.656  1.415  0.322  0.097  0.016  0.011  0.011
 0.658  1.413  0.322  0.097  0.017  0.012  0.012
 0.660  1.413  0.322  0.097  0.017  0.012  0.012
 0.662  1.413  0.321  0.096  0.017  0.012  0.012
 0.664  1.412  0.321  0.096  0.018  0.013  0.013
 0.666  1.412  0.321  0.095  0.018  0.013  0.013
 0.668  1.412  0.320  0.095  0.018  0.014  0.014
 0.670  1.411  0.320  0.094  0.018  0.014  0.014
 0.672  1.411  0.320  0.094  0.019  0.014  0.014
 0.674  1.411  0.319  0.094  0.019  0.015  0.015
 0.676  1.410  0.319  0.093  0.019  0.015  0.015
 0.678  1.410  0.319  0.093  0.019  0.016  0.016
 0.680  1.410  0.317  0.093  0.019  0.016  0.016
 0.682  1.410  0.317  0.092  0.019  0.016  0.016
 0.684  1.409  0.316  0.092  0.019  0.016  0.016
 0.686  1.409  0.316  0.092  0.019  0.017  0.017
 0.688  1.409  0.316  0.092  0.019  0.017  0.017
 0.690  1.407  0.315  0.091  0.019  0.018  0.018
 0.692  1.407  0.315  0.091  0.020  0.018  0.018
 0.694  1.407  0.314  0.091  0.020  0.018  0.018
 0.696  1.406  0.314  0.091  0.020  0.018  0.018
 0.698  1.406  0.312  0.091  0.020  0.018  0.018
 0.700  1.406  0.312  0.090  0.020  0.019  0.019
 0.702  1.405  0.311  0.090  0.021  0.019  0.019
 0.704  1.405  0.311  0.090  0.021  0.019  0.019
 0.706  1.405  0.310  0.090  0.021  0.020  0.020
 0.708  1.405  0.310  0.090  0.021  0.020  0.020
 0.710  1.404  0.309  0.090  0.021  0.020  0.020
 0.712  1.404  0.309  0.090  0.021  0.020  0.020
 0.714  1.404  0.307  0.089  0.021  0.021  0.021
 0.716  1.402  0.307  0.089  0.021  0.022  0.022
 0.718  1.402  0.306  0.089  0.021  0.022  0.022
 0.720  1.402  0.305  0.089  0.022  0.023  0.023
 0.722  1.402  0.305  0.089  0.022  0.024  0.024
 0.724  1.401  0.304  0.089  0.022  0.024  0.024
 0.726  1.401  0.304  0.089  0.022  0.025  0.025
 0.728  1.401  0.303  0.089  0.022  0.026  0.026
 0.730  1.401  0.303  0.089  0.022  0.027  0.027
 0.732  1.400  0.303  0.089  0.022  0.028  0.028
 0.734  1.400  0.303  0.089  0.023  0.029  0.029
 0.736  1.400  0.301  0.089  0.024  0.030  0.030
 0.738  1.400  0.301  0.089  0.024  0.031  0.031
 0.740  1.399  0.301  0.089  0.025  0.032  0.032
 0.742  1.399  0.301  0.089  0.025  0.033  0.033
 0.744  1.399  0.301  0.089  0.026  0.035  0.035
 0.746  1.399  0.301  0.089  0.027  0.036  0.036
 0.748  1.399  0.301  0.089  0.028  0.037  0.037
 0.750  1.399  0.303  0.089  0.028  0.039  0.039
 0.752  1.398  0.303  0.089  0.029  0.041  0.041
 0.754  1.398  0.303  0.089  0.030  0.043  0.043
 0.756  1.398  0.303  0.089  0.031  0.044  0.044
 0.758  1.398  0.304  0.089  0.032  0.046  0.046
 0.760  1.398  0.304  0.089  0.033  0.048  0.048
 0.762  1.398  0.305  0.089  0.034  0.050  0.050
 0.764  1.398  0.305  0.089  0.035  0.052  0.052
 0.766  1.398  0.306  0.089  0.037  0.054  0.054
 0.768  1.398  0.307  0.089  0.037  0.056  0.056
 0.770  1.398  0.307  0.089  0.039  0.058  0.058
 0.772  1.398  0.309  0.089  0.040  0.061  0.061
 0.774  1.398  0.310  0.089  0.042  0.063  0.063
 0.776  1.396  0.311  0.089  0.043  0.065  0.065
 0.778  1.396  0.312  0.089  0.045  0.067  0.067
 0.780  1.396  0.314  0.088  0.046  0.070  0.070
 0.782  1.396  0.315  0.088  0.048  0.072  0.072
 0.784  1.396  0.316  0.088  0.050  0.074  0.074
 0.786  1.396  0.319  0.089  0.052  0.076  0.076
 0.788  1.396  0.320  0.089  0.053  0.079  0.079
 0.790  1.398  0.321  0.089  0.055  0.082  0.082
 0.792  1.398  0.322  0.089  0.057  0.084  0.084
 0.794  1.399  0.325  0.089  0.059  0.086  0.086
 0.796  1.399  0.326  0.090  0.060  0.088  0.088
 0.798  1.400  0.327  0.090  0.063  0.091  0.091
 0.800  1.401  0.330  0.092  0.064  0.093  0.093
 0.802  1.402  0.331  0.093  0.066  0.096  0.096
 0.804  1.404  0.332  0.094  0.069  0.098  0.098
 0.806  1.405  0.335  0.096  0.071  0.100  0.100
 0.808  1.407  0.336  0.097  0.073  0.102  0.102
