# IsPeriodic    : True
# Period        : 0.659863 days
# Normalization : <g_mag>=0
# 
# Phase u_mag  g_mag  r_mag  i_mag  z_mag  y_mag
 0.000  0.683 -0.422 -0.487 -0.474 -0.450 -0.450
 0.002  0.683 -0.422 -0.487 -0.474 -0.450 -0.450
 0.004  0.684 -0.422 -0.486 -0.474 -0.450 -0.450
 0.006  0.685 -0.421 -0.486 -0.474 -0.450 -0.450
 0.008  0.686 -0.421 -0.486 -0.474 -0.449 -0.449
 0.010  0.687 -0.420 -0.485 -0.474 -0.449 -0.449
 0.012  0.690 -0.420 -0.485 -0.473 -0.448 -0.448
 0.014  0.691 -0.418 -0.484 -0.473 -0.447 -0.447
 0.016  0.694 -0.418 -0.483 -0.473 -0.447 -0.447
 0.018  0.696 -0.417 -0.482 -0.473 -0.446 -0.446
 0.020  0.698 -0.415 -0.482 -0.472 -0.445 -0.445
 0.022  0.701 -0.414 -0.481 -0.471 -0.444 -0.444
 0.024  0.703 -0.413 -0.480 -0.471 -0.443 -0.443
 0.026  0.706 -0.411 -0.478 -0.470 -0.441 -0.441
 0.028  0.708 -0.410 -0.477 -0.470 -0.440 -0.440
 0.030  0.711 -0.408 -0.476 -0.469 -0.439 -0.439
 0.032  0.714 -0.405 -0.475 -0.468 -0.438 -0.438
 0.034  0.716 -0.404 -0.474 -0.467 -0.437 -0.437
 0.036  0.719 -0.402 -0.472 -0.467 -0.436 -0.436
 0.038  0.722 -0.400 -0.471 -0.466 -0.435 -0.435
 0.040  0.725 -0.397 -0.469 -0.465 -0.433 -0.433
 0.042  0.727 -0.395 -0.468 -0.464 -0.432 -0.432
 0.044  0.730 -0.392 -0.466 -0.463 -0.431 -0.431
 0.046  0.734 -0.389 -0.465 -0.462 -0.430 -0.430
 0.048  0.737 -0.386 -0.463 -0.460 -0.429 -0.429
 0.050  0.740 -0.383 -0.461 -0.459 -0.428 -0.428
 0.052  0.743 -0.380 -0.459 -0.458 -0.427 -0.427
 0.054  0.747 -0.377 -0.457 -0.457 -0.426 -0.426
 0.056  0.750 -0.373 -0.455 -0.455 -0.425 -0.425
 0.058  0.754 -0.370 -0.453 -0.454 -0.424 -0.424
 0.060  0.757 -0.367 -0.451 -0.453 -0.423 -0.423
 0.062  0.761 -0.362 -0.449 -0.451 -0.422 -0.422
 0.064  0.765 -0.359 -0.446 -0.450 -0.421 -0.421
 0.066  0.769 -0.355 -0.444 -0.448 -0.420 -0.420
 0.068  0.773 -0.351 -0.442 -0.446 -0.419 -0.419
 0.070  0.777 -0.347 -0.439 -0.445 -0.417 -0.417
 0.072  0.782 -0.343 -0.437 -0.443 -0.417 -0.417
 0.074  0.785 -0.339 -0.434 -0.442 -0.416 -0.416
 0.076  0.789 -0.335 -0.431 -0.440 -0.415 -0.415
 0.078  0.794 -0.330 -0.429 -0.438 -0.413 -0.413
 0.080  0.798 -0.326 -0.426 -0.436 -0.412 -0.412
 0.082  0.802 -0.322 -0.424 -0.435 -0.412 -0.412
 0.084  0.807 -0.318 -0.421 -0.433 -0.411 -0.411
 0.086  0.811 -0.314 -0.418 -0.431 -0.409 -0.409
 0.088  0.815 -0.309 -0.416 -0.430 -0.409 -0.409
 0.090  0.819 -0.306 -0.413 -0.429 -0.408 -0.408
 0.092  0.823 -0.302 -0.411 -0.427 -0.407 -0.407
 0.094  0.827 -0.298 -0.409 -0.425 -0.406 -0.406
 0.096  0.832 -0.294 -0.406 -0.424 -0.405 -0.405
 0.098  0.836 -0.291 -0.404 -0.423 -0.404 -0.404
 0.100  0.840 -0.287 -0.402 -0.421 -0.403 -0.403
 0.102  0.844 -0.284 -0.400 -0.420 -0.402 -0.402
 0.104  0.848 -0.280 -0.398 -0.419 -0.401 -0.401
 0.106  0.852 -0.277 -0.396 -0.418 -0.400 -0.400
 0.108  0.856 -0.274 -0.394 -0.416 -0.399 -0.399
 0.110  0.860 -0.270 -0.392 -0.415 -0.398 -0.398
 0.112  0.864 -0.267 -0.390 -0.414 -0.397 -0.397
 0.114  0.868 -0.264 -0.388 -0.412 -0.396 -0.396
 0.116  0.872 -0.260 -0.386 -0.412 -0.396 -0.396
 0.118  0.876 -0.257 -0.384 -0.410 -0.395 -0.395
 0.120  0.880 -0.254 -0.383 -0.409 -0.394 -0.394
 0.122  0.884 -0.251 -0.381 -0.408 -0.393 -0.393
 0.124  0.887 -0.248 -0.379 -0.407 -0.392 -0.392
 0.126  0.891 -0.245 -0.378 -0.406 -0.391 -0.391
 0.128  0.895 -0.242 -0.376 -0.405 -0.390 -0.390
 0.130  0.899 -0.239 -0.375 -0.404 -0.389 -0.389
 0.132  0.903 -0.236 -0.373 -0.403 -0.388 -0.388
 0.134  0.906 -0.234 -0.372 -0.403 -0.388 -0.388
 0.136  0.910 -0.231 -0.371 -0.402 -0.387 -0.387
 0.138  0.914 -0.229 -0.369 -0.401 -0.386 -0.386
 0.140  0.917 -0.226 -0.368 -0.400 -0.385 -0.385
 0.142  0.921 -0.223 -0.367 -0.399 -0.384 -0.384
 0.144  0.925 -0.221 -0.366 -0.398 -0.383 -0.383
 0.146  0.928 -0.218 -0.365 -0.397 -0.382 -0.382
 0.148  0.932 -0.215 -0.364 -0.397 -0.381 -0.381
 0.150  0.935 -0.213 -0.363 -0.396 -0.381 -0.381
 0.152  0.939 -0.210 -0.361 -0.396 -0.380 -0.380
 0.154  0.942 -0.207 -0.360 -0.395 -0.379 -0.379
 0.156  0.946 -0.205 -0.359 -0.394 -0.378 -0.378
 0.158  0.949 -0.202 -0.358 -0.393 -0.377 -0.377
 0.160  0.952 -0.199 -0.357 -0.392 -0.376 -0.376
 0.162  0.956 -0.196 -0.356 -0.391 -0.376 -0.376
 0.164  0.959 -0.194 -0.355 -0.390 -0.375 -0.375
 0.166  0.962 -0.191 -0.354 -0.390 -0.374 -0.374
 0.168  0.966 -0.189 -0.352 -0.389 -0.373 -0.373
 0.170  0.969 -0.186 -0.351 -0.388 -0.372 -0.372
 0.172  0.972 -0.183 -0.350 -0.387 -0.372 -0.372
 0.174  0.976 -0.180 -0.349 -0.386 -0.371 -0.371
 0.176  0.979 -0.177 -0.347 -0.385 -0.370 -0.370
 0.178  0.983 -0.174 -0.346 -0.385 -0.369 -0.369
 0.180  0.986 -0.171 -0.344 -0.383 -0.368 -0.368
 0.182  0.989 -0.168 -0.343 -0.383 -0.368 -0.368
 0.184  0.992 -0.166 -0.341 -0.382 -0.367 -0.367
 0.186  0.995 -0.163 -0.340 -0.381 -0.366 -0.366
 0.188  0.998 -0.160 -0.338 -0.380 -0.365 -0.365
 0.190  1.002 -0.156 -0.337 -0.379 -0.364 -0.364
 0.192  1.005 -0.153 -0.335 -0.378 -0.364 -0.364
 0.194  1.007 -0.151 -0.333 -0.377 -0.363 -0.363
 0.196  1.010 -0.148 -0.332 -0.376 -0.362 -0.362
 0.198  1.013 -0.144 -0.330 -0.375 -0.361 -0.361
 0.200  1.016 -0.141 -0.328 -0.374 -0.360 -0.360
 0.202  1.020 -0.138 -0.327 -0.373 -0.360 -0.360
 0.204  1.022 -0.135 -0.325 -0.372 -0.359 -0.359
 0.206  1.025 -0.132 -0.323 -0.371 -0.358 -0.358
 0.208  1.028 -0.128 -0.321 -0.370 -0.357 -0.357
 0.210  1.031 -0.126 -0.319 -0.368 -0.357 -0.357
 0.212  1.034 -0.122 -0.317 -0.368 -0.356 -0.356
 0.214  1.037 -0.119 -0.315 -0.366 -0.355 -0.355
 0.216  1.039 -0.116 -0.313 -0.365 -0.354 -0.354
 0.218  1.042 -0.113 -0.311 -0.364 -0.353 -0.353
 0.220  1.045 -0.109 -0.309 -0.363 -0.353 -0.353
 0.222  1.048 -0.106 -0.307 -0.362 -0.352 -0.352
 0.224  1.050 -0.103 -0.305 -0.361 -0.351 -0.351
 0.226  1.053 -0.100 -0.303 -0.360 -0.351 -0.351
 0.228  1.056 -0.097 -0.302 -0.359 -0.349 -0.349
 0.230  1.059 -0.094 -0.300 -0.358 -0.349 -0.349
 0.232  1.061 -0.091 -0.298 -0.357 -0.348 -0.348
 0.234  1.064 -0.088 -0.296 -0.355 -0.347 -0.347
 0.236  1.067 -0.085 -0.294 -0.355 -0.347 -0.347
 0.238  1.069 -0.082 -0.292 -0.353 -0.346 -0.346
 0.240  1.071 -0.079 -0.290 -0.352 -0.345 -0.345
 0.242  1.075 -0.076 -0.288 -0.351 -0.344 -0.344
 0.244  1.077 -0.074 -0.287 -0.350 -0.343 -0.343
 0.246  1.079 -0.071 -0.285 -0.349 -0.343 -0.343
 0.248  1.082 -0.068 -0.283 -0.348 -0.342 -0.342
 0.250  1.085 -0.065 -0.281 -0.347 -0.341 -0.341
 0.252  1.087 -0.063 -0.279 -0.346 -0.340 -0.340
 0.254  1.090 -0.060 -0.278 -0.345 -0.339 -0.339
 0.256  1.093 -0.058 -0.276 -0.344 -0.339 -0.339
 0.258  1.095 -0.055 -0.274 -0.343 -0.337 -0.337
 0.260  1.097 -0.053 -0.273 -0.342 -0.337 -0.337
 0.262  1.101 -0.050 -0.271 -0.340 -0.336 -0.336
 0.264  1.103 -0.048 -0.270 -0.340 -0.335 -0.335
 0.266  1.105 -0.045 -0.268 -0.339 -0.334 -0.334
 0.268  1.108 -0.043 -0.266 -0.337 -0.333 -0.333
 0.270  1.110 -0.040 -0.265 -0.336 -0.332 -0.332
 0.272  1.113 -0.038 -0.263 -0.335 -0.331 -0.331
 0.274  1.115 -0.036 -0.262 -0.334 -0.331 -0.331
 0.276  1.118 -0.033 -0.260 -0.333 -0.329 -0.329
 0.278  1.120 -0.031 -0.259 -0.332 -0.328 -0.328
 0.280  1.123 -0.029 -0.258 -0.331 -0.328 -0.328
 0.282  1.125 -0.027 -0.256 -0.330 -0.327 -0.327
 0.284  1.127 -0.025 -0.255 -0.329 -0.325 -0.325
 0.286  1.130 -0.022 -0.253 -0.328 -0.325 -0.325
 0.288  1.132 -0.020 -0.252 -0.327 -0.324 -0.324
 0.290  1.134 -0.018 -0.251 -0.326 -0.323 -0.323
 0.292  1.137 -0.016 -0.249 -0.325 -0.321 -0.321
 0.294  1.140 -0.014 -0.248 -0.324 -0.320 -0.320
 0.296  1.142 -0.012 -0.247 -0.322 -0.319 -0.319
 0.298  1.145 -0.010 -0.245 -0.321 -0.318 -0.318
 0.300  1.147 -0.007 -0.244 -0.320 -0.317 -0.317
 0.302  1.149 -0.005 -0.243 -0.319 -0.316 -0.316
 0.304  1.152 -0.003 -0.241 -0.318 -0.315 -0.315
 0.306  1.154 -0.001 -0.240 -0.317 -0.314 -0.314
 0.308  1.156  0.001 -0.239 -0.316 -0.313 -0.313
 0.310  1.158  0.003 -0.237 -0.315 -0.312 -0.312
 0.312  1.160  0.005 -0.236 -0.313 -0.311 -0.311
 0.314  1.163  0.008 -0.234 -0.312 -0.310 -0.310
 0.316  1.165  0.010 -0.233 -0.311 -0.309 -0.309
 0.318  1.167  0.012 -0.231 -0.310 -0.308 -0.308
 0.320  1.170  0.014 -0.230 -0.309 -0.307 -0.307
 0.322  1.172  0.017 -0.228 -0.307 -0.305 -0.305
 0.324  1.174  0.019 -0.227 -0.306 -0.304 -0.304
 0.326  1.177  0.021 -0.225 -0.305 -0.303 -0.303
 0.328  1.179  0.023 -0.224 -0.304 -0.302 -0.302
 0.330  1.181  0.025 -0.222 -0.303 -0.301 -0.301
 0.332  1.184  0.028 -0.221 -0.301 -0.300 -0.300
 0.334  1.185  0.030 -0.219 -0.300 -0.299 -0.299
 0.336  1.188  0.033 -0.218 -0.299 -0.298 -0.298
 0.338  1.190  0.035 -0.216 -0.298 -0.297 -0.297
 0.340  1.192  0.037 -0.215 -0.296 -0.296 -0.296
 0.342  1.195  0.040 -0.213 -0.295 -0.295 -0.295
 0.344  1.197  0.042 -0.212 -0.294 -0.295 -0.295
 0.346  1.200  0.044 -0.210 -0.293 -0.293 -0.293
 0.348  1.201  0.047 -0.208 -0.291 -0.293 -0.293
 0.350  1.203  0.049 -0.207 -0.290 -0.292 -0.292
 0.352  1.206  0.051 -0.205 -0.288 -0.291 -0.291
 0.354  1.208  0.054 -0.204 -0.287 -0.290 -0.290
 0.356  1.211  0.056 -0.202 -0.286 -0.289 -0.289
 0.358  1.212  0.058 -0.200 -0.284 -0.288 -0.288
 0.360  1.214  0.061 -0.199 -0.283 -0.287 -0.287
 0.362  1.217  0.063 -0.197 -0.281 -0.286 -0.286
 0.364  1.219  0.066 -0.195 -0.280 -0.285 -0.285
 0.366  1.222  0.068 -0.193 -0.279 -0.284 -0.284
 0.368  1.223  0.071 -0.192 -0.278 -0.284 -0.284
 0.370  1.225  0.073 -0.190 -0.276 -0.283 -0.283
 0.372  1.228  0.075 -0.189 -0.275 -0.282 -0.282
 0.374  1.229  0.077 -0.187 -0.274 -0.281 -0.281
 0.376  1.232  0.079 -0.185 -0.272 -0.280 -0.280
 0.378  1.234  0.081 -0.184 -0.271 -0.279 -0.279
 0.380  1.236  0.083 -0.182 -0.270 -0.279 -0.279
 0.382  1.238  0.086 -0.180 -0.269 -0.278 -0.278
 0.384  1.240  0.088 -0.179 -0.267 -0.277 -0.277
 0.386  1.242  0.090 -0.177 -0.266 -0.276 -0.276
 0.388  1.244  0.092 -0.176 -0.265 -0.275 -0.275
 0.390  1.247  0.094 -0.174 -0.264 -0.274 -0.274
 0.392  1.248  0.096 -0.173 -0.263 -0.273 -0.273
 0.394  1.251  0.098 -0.171 -0.261 -0.272 -0.272
 0.396  1.252  0.100 -0.170 -0.260 -0.272 -0.272
 0.398  1.255  0.102 -0.168 -0.259 -0.271 -0.271
 0.400  1.256  0.103 -0.167 -0.258 -0.270 -0.270
 0.402  1.258  0.106 -0.165 -0.257 -0.269 -0.269
 0.404  1.260  0.108 -0.164 -0.256 -0.268 -0.268
 0.406  1.262  0.109 -0.162 -0.255 -0.267 -0.267
 0.408  1.264  0.111 -0.161 -0.254 -0.266 -0.266
 0.410  1.266  0.113 -0.160 -0.253 -0.265 -0.265
 0.412  1.268  0.114 -0.158 -0.252 -0.264 -0.264
 0.414  1.270  0.116 -0.157 -0.250 -0.263 -0.263
 0.416  1.272  0.118 -0.155 -0.250 -0.262 -0.262
 0.418  1.273  0.120 -0.154 -0.248 -0.261 -0.261
 0.420  1.276  0.121 -0.153 -0.247 -0.260 -0.260
 0.422  1.277  0.123 -0.151 -0.247 -0.259 -0.259
 0.424  1.280  0.124 -0.150 -0.245 -0.258 -0.258
 0.426  1.281  0.126 -0.149 -0.245 -0.257 -0.257
 0.428  1.283  0.128 -0.147 -0.243 -0.256 -0.256
 0.430  1.285  0.129 -0.146 -0.243 -0.255 -0.255
 0.432  1.287  0.131 -0.145 -0.241 -0.254 -0.254
 0.434  1.288  0.132 -0.144 -0.241 -0.253 -0.253
 0.436  1.290  0.134 -0.142 -0.240 -0.252 -0.252
 0.438  1.292  0.135 -0.141 -0.239 -0.250 -0.250
 0.440  1.294  0.136 -0.140 -0.238 -0.249 -0.249
 0.442  1.295  0.138 -0.139 -0.237 -0.248 -0.248
 0.444  1.297  0.139 -0.137 -0.236 -0.247 -0.247
 0.446  1.299  0.141 -0.136 -0.235 -0.246 -0.246
 0.448  1.300  0.142 -0.135 -0.234 -0.245 -0.245
 0.450  1.302  0.144 -0.134 -0.233 -0.244 -0.244
 0.452  1.304  0.145 -0.133 -0.232 -0.242 -0.242
 0.454  1.306  0.146 -0.132 -0.232 -0.241 -0.241
 0.456  1.307  0.148 -0.131 -0.231 -0.240 -0.240
 0.458  1.309  0.149 -0.130 -0.230 -0.239 -0.239
 0.460  1.310  0.151 -0.129 -0.229 -0.238 -0.238
 0.462  1.312  0.152 -0.128 -0.228 -0.237 -0.237
 0.464  1.313  0.154 -0.127 -0.227 -0.236 -0.236
 0.466  1.314  0.155 -0.126 -0.226 -0.235 -0.235
 0.468  1.316  0.156 -0.125 -0.226 -0.233 -0.233
 0.470  1.317  0.157 -0.124 -0.225 -0.232 -0.232
 0.472  1.319  0.159 -0.123 -0.224 -0.232 -0.232
 0.474  1.320  0.160 -0.122 -0.223 -0.231 -0.231
 0.476  1.322  0.161 -0.121 -0.223 -0.229 -0.229
 0.478  1.323  0.162 -0.120 -0.222 -0.229 -0.229
 0.480  1.324  0.164 -0.119 -0.221 -0.228 -0.228
 0.482  1.326  0.165 -0.118 -0.220 -0.227 -0.227
 0.484  1.327  0.166 -0.117 -0.219 -0.226 -0.226
 0.486  1.328  0.167 -0.117 -0.219 -0.225 -0.225
 0.488  1.330  0.169 -0.116 -0.218 -0.224 -0.224
 0.490  1.331  0.170 -0.115 -0.217 -0.224 -0.224
 0.492  1.332  0.171 -0.114 -0.217 -0.223 -0.223
 0.494  1.333  0.172 -0.114 -0.216 -0.222 -0.222
 0.496  1.335  0.173 -0.113 -0.215 -0.221 -0.221
 0.498  1.335  0.174 -0.112 -0.214 -0.220 -0.220
 0.500  1.337  0.176 -0.112 -0.213 -0.220 -0.220
 0.502  1.338  0.176 -0.111 -0.213 -0.219 -0.219
 0.504  1.339  0.178 -0.110 -0.212 -0.218 -0.218
 0.506  1.340  0.179 -0.110 -0.212 -0.217 -0.217
 0.508  1.341  0.180 -0.109 -0.211 -0.217 -0.217
 0.510  1.342  0.181 -0.108 -0.210 -0.216 -0.216
 0.512  1.343  0.182 -0.108 -0.210 -0.216 -0.216
 0.514  1.344  0.183 -0.107 -0.209 -0.215 -0.215
 0.516  1.346  0.184 -0.106 -0.208 -0.215 -0.215
 0.518  1.346  0.184 -0.106 -0.208 -0.214 -0.214
 0.520  1.347  0.185 -0.105 -0.207 -0.213 -0.213
 0.522  1.348  0.186 -0.105 -0.206 -0.213 -0.213
 0.524  1.349  0.187 -0.104 -0.206 -0.212 -0.212
 0.526  1.350  0.187 -0.103 -0.205 -0.212 -0.212
 0.528  1.351  0.188 -0.103 -0.204 -0.211 -0.211
 0.530  1.352  0.189 -0.102 -0.204 -0.211 -0.211
 0.532  1.353  0.189 -0.102 -0.203 -0.210 -0.210
 0.534  1.353  0.190 -0.101 -0.202 -0.209 -0.209
 0.536  1.354  0.191 -0.101 -0.202 -0.209 -0.209
 0.538  1.355  0.192 -0.100 -0.201 -0.208 -0.208
 0.540  1.356  0.192 -0.099 -0.200 -0.208 -0.208
 0.542  1.357  0.192 -0.099 -0.200 -0.208 -0.208
 0.544  1.357  0.193 -0.098 -0.199 -0.207 -0.207
 0.546  1.357  0.193 -0.098 -0.198 -0.207 -0.207
 0.548  1.358  0.194 -0.097 -0.198 -0.206 -0.206
 0.550  1.359  0.194 -0.097 -0.197 -0.205 -0.205
 0.552  1.360  0.194 -0.096 -0.197 -0.205 -0.205
 0.554  1.360  0.194 -0.096 -0.196 -0.204 -0.204
 0.556  1.361  0.194 -0.095 -0.195 -0.204 -0.204
 0.558  1.361  0.195 -0.095 -0.195 -0.203 -0.203
 0.560  1.361  0.195 -0.094 -0.194 -0.203 -0.203
 0.562  1.362  0.195 -0.094 -0.193 -0.202 -0.202
 0.564  1.363  0.195 -0.093 -0.193 -0.201 -0.201
 0.566  1.363  0.195 -0.093 -0.192 -0.201 -0.201
 0.568  1.364  0.195 -0.092 -0.191 -0.200 -0.200
 0.570  1.364  0.196 -0.092 -0.191 -0.200 -0.200
 0.572  1.364  0.196 -0.091 -0.190 -0.199 -0.199
 0.574  1.364  0.196 -0.091 -0.190 -0.199 -0.199
 0.576  1.365  0.196 -0.090 -0.189 -0.198 -0.198
 0.578  1.365  0.196 -0.090 -0.188 -0.198 -0.198
 0.580  1.366  0.196 -0.089 -0.188 -0.197 -0.197
 0.582  1.366  0.196 -0.089 -0.187 -0.197 -0.197
 0.584  1.366  0.196 -0.088 -0.186 -0.196 -0.196
 0.586  1.367  0.196 -0.088 -0.186 -0.196 -0.196
 0.588  1.367  0.196 -0.087 -0.185 -0.195 -0.195
 0.590  1.367  0.196 -0.087 -0.184 -0.195 -0.195
 0.592  1.368  0.196 -0.086 -0.183 -0.194 -0.194
 0.594  1.368  0.196 -0.085 -0.183 -0.193 -0.193
 0.596  1.368  0.196 -0.085 -0.182 -0.193 -0.193
 0.598  1.368  0.197 -0.084 -0.181 -0.192 -0.192
 0.600  1.368  0.197 -0.084 -0.180 -0.192 -0.192
 0.602  1.368  0.197 -0.083 -0.180 -0.191 -0.191
 0.604  1.368  0.197 -0.083 -0.179 -0.191 -0.191
 0.606  1.368  0.197 -0.082 -0.178 -0.190 -0.190
 0.608  1.368  0.197 -0.082 -0.177 -0.189 -0.189
 0.610  1.368  0.197 -0.081 -0.176 -0.189 -0.189
 0.612  1.368  0.197 -0.080 -0.175 -0.188 -0.188
 0.614  1.368  0.198 -0.080 -0.175 -0.187 -0.187
 0.616  1.368  0.198 -0.079 -0.174 -0.187 -0.187
 0.618  1.368  0.198 -0.079 -0.173 -0.186 -0.186
 0.620  1.368  0.199 -0.078 -0.172 -0.185 -0.185
 0.622  1.368  0.199 -0.077 -0.171 -0.185 -0.185
 0.624  1.368  0.199 -0.077 -0.170 -0.184 -0.184
 0.626  1.368  0.199 -0.076 -0.169 -0.183 -0.183
 0.628  1.368  0.199 -0.075 -0.168 -0.183 -0.183
 0.630  1.368  0.199 -0.074 -0.167 -0.182 -0.182
 0.632  1.368  0.200 -0.074 -0.166 -0.181 -0.181
 0.634  1.368  0.200 -0.073 -0.165 -0.180 -0.180
 0.636  1.368  0.201 -0.072 -0.164 -0.180 -0.180
 0.638  1.367  0.201 -0.072 -0.163 -0.179 -0.179
 0.640  1.367  0.201 -0.071 -0.162 -0.178 -0.178
 0.642  1.367  0.202 -0.070 -0.161 -0.177 -0.177
 0.644  1.366  0.202 -0.070 -0.160 -0.176 -0.176
 0.646  1.366  0.202 -0.069 -0.159 -0.176 -0.176
 0.648  1.366  0.203 -0.068 -0.158 -0.175 -0.175
 0.650  1.365  0.203 -0.068 -0.157 -0.174 -0.174
 0.652  1.365  0.204 -0.067 -0.156 -0.173 -0.173
 0.654  1.365  0.204 -0.066 -0.155 -0.172 -0.172
 0.656  1.364  0.205 -0.065 -0.153 -0.171 -0.171
 0.658  1.364  0.205 -0.064 -0.153 -0.171 -0.171
 0.660  1.364  0.206 -0.063 -0.151 -0.169 -0.169
 0.662  1.364  0.207 -0.062 -0.150 -0.169 -0.169
 0.664  1.364  0.207 -0.061 -0.149 -0.168 -0.168
 0.666  1.364  0.209 -0.060 -0.147 -0.167 -0.167
 0.668  1.364  0.209 -0.059 -0.146 -0.166 -0.166
 0.670  1.364  0.210 -0.058 -0.145 -0.165 -0.165
 0.672  1.364  0.211 -0.057 -0.144 -0.164 -0.164
 0.674  1.363  0.212 -0.056 -0.143 -0.163 -0.163
 0.676  1.363  0.213 -0.055 -0.141 -0.162 -0.162
 0.678  1.363  0.214 -0.053 -0.140 -0.161 -0.161
 0.680  1.363  0.215 -0.052 -0.139 -0.159 -0.159
 0.682  1.363  0.216 -0.051 -0.137 -0.158 -0.158
 0.684  1.363  0.217 -0.049 -0.136 -0.157 -0.157
 0.686  1.363  0.218 -0.048 -0.134 -0.156 -0.156
 0.688  1.363  0.219 -0.046 -0.133 -0.155 -0.155
 0.690  1.363  0.221 -0.045 -0.132 -0.153 -0.153
 0.692  1.363  0.222 -0.043 -0.130 -0.152 -0.152
 0.694  1.363  0.223 -0.041 -0.129 -0.151 -0.151
 0.696  1.364  0.224 -0.040 -0.127 -0.149 -0.149
 0.698  1.364  0.226 -0.038 -0.126 -0.148 -0.148
 0.700  1.364  0.227 -0.036 -0.124 -0.146 -0.146
 0.702  1.364  0.229 -0.034 -0.123 -0.145 -0.145
 0.704  1.364  0.231 -0.033 -0.121 -0.143 -0.143
 0.706  1.364  0.232 -0.031 -0.120 -0.142 -0.142
 0.708  1.364  0.234 -0.029 -0.118 -0.140 -0.140
 0.710  1.364  0.235 -0.027 -0.117 -0.138 -0.138
 0.712  1.364  0.237 -0.025 -0.115 -0.137 -0.137
 0.714  1.364  0.239 -0.023 -0.114 -0.135 -0.135
 0.716  1.365  0.240 -0.020 -0.112 -0.133 -0.133
 0.718  1.365  0.242 -0.018 -0.110 -0.131 -0.131
 0.720  1.365  0.244 -0.016 -0.109 -0.130 -0.130
 0.722  1.366  0.245 -0.014 -0.107 -0.128 -0.128
 0.724  1.367  0.247 -0.012 -0.106 -0.126 -0.126
 0.726  1.367  0.249 -0.010 -0.105 -0.124 -0.124
 0.728  1.368  0.250 -0.008 -0.103 -0.122 -0.122
 0.730  1.368  0.252 -0.006 -0.102 -0.120 -0.120
 0.732  1.369  0.254 -0.004 -0.101 -0.118 -0.118
 0.734  1.370  0.255 -0.003 -0.099 -0.116 -0.116
 0.736  1.372  0.257 -0.001 -0.098 -0.114 -0.114
 0.738  1.372  0.259  0.001 -0.097 -0.112 -0.112
 0.740  1.374  0.260  0.002 -0.096 -0.110 -0.110
 0.742  1.375  0.262  0.003 -0.094 -0.108 -0.108
 0.744  1.376  0.264  0.005 -0.094 -0.106 -0.106
 0.746  1.378  0.265  0.006 -0.092 -0.104 -0.104
 0.748  1.380  0.267  0.007 -0.092 -0.103 -0.103
 0.750  1.382  0.268  0.008 -0.091 -0.101 -0.101
 0.752  1.383  0.270  0.009 -0.090 -0.099 -0.099
 0.754  1.385  0.271  0.010 -0.089 -0.098 -0.098
 0.756  1.387  0.272  0.010 -0.088 -0.096 -0.096
 0.758  1.389  0.274  0.011 -0.088 -0.095 -0.095
 0.760  1.391  0.275  0.012 -0.087 -0.094 -0.094
 0.762  1.394  0.276  0.012 -0.086 -0.093 -0.093
 0.764  1.396  0.277  0.013 -0.086 -0.092 -0.092
 0.766  1.398  0.279  0.013 -0.085 -0.091 -0.091
 0.768  1.401  0.280  0.013 -0.085 -0.090 -0.090
 0.770  1.404  0.282  0.014 -0.084 -0.090 -0.090
 0.772  1.407  0.283  0.014 -0.083 -0.089 -0.089
 0.774  1.410  0.285  0.014 -0.083 -0.088 -0.088
 0.776  1.413  0.286  0.014 -0.082 -0.088 -0.088
 0.778  1.416  0.287  0.014 -0.082 -0.088 -0.088
 0.780  1.420  0.289  0.013 -0.081 -0.087 -0.087
 0.782  1.423  0.290  0.013 -0.081 -0.087 -0.087
 0.784  1.427  0.292  0.013 -0.081 -0.087 -0.087
 0.786  1.430  0.292  0.012 -0.081 -0.087 -0.087
 0.788  1.434  0.293  0.012 -0.081 -0.087 -0.087
 0.790  1.438  0.294  0.011 -0.081 -0.087 -0.087
 0.792  1.441  0.294  0.010 -0.082 -0.087 -0.087
 0.794  1.445  0.294  0.009 -0.082 -0.087 -0.087
 0.796  1.448  0.293  0.008 -0.083 -0.087 -0.087
 0.798  1.451  0.292  0.006 -0.084 -0.087 -0.087
 0.800  1.453  0.291  0.005 -0.085 -0.088 -0.088
 0.802  1.456  0.290  0.003 -0.087 -0.088 -0.088
 0.804  1.459  0.288  0.001 -0.088 -0.089 -0.089
 0.806  1.461  0.286 -0.001 -0.090 -0.090 -0.090
 0.808  1.463  0.283 -0.003 -0.092 -0.091 -0.091
