# IsPeriodic    : True
# Period        : 0.659162 days
# Normalization : <g_mag>=0
# 
# Phase u_mag  g_mag  r_mag  i_mag  z_mag  y_mag
 0.000  0.705 -0.408 -0.421 -0.439 -0.412 -0.412
 0.002  0.705 -0.408 -0.421 -0.439 -0.412 -0.412
 0.004  0.705 -0.408 -0.421 -0.439 -0.412 -0.412
 0.006  0.706 -0.407 -0.421 -0.439 -0.411 -0.411
 0.008  0.706 -0.407 -0.421 -0.439 -0.411 -0.411
 0.010  0.708 -0.406 -0.421 -0.439 -0.410 -0.410
 0.012  0.709 -0.405 -0.420 -0.438 -0.409 -0.409
 0.014  0.711 -0.404 -0.420 -0.438 -0.409 -0.409
 0.016  0.712 -0.402 -0.419 -0.438 -0.408 -0.408
 0.018  0.714 -0.401 -0.419 -0.437 -0.407 -0.407
 0.020  0.716 -0.400 -0.418 -0.437 -0.406 -0.406
 0.022  0.718 -0.398 -0.418 -0.436 -0.405 -0.405
 0.024  0.720 -0.397 -0.417 -0.436 -0.404 -0.404
 0.026  0.722 -0.395 -0.416 -0.435 -0.403 -0.403
 0.028  0.724 -0.394 -0.416 -0.435 -0.401 -0.401
 0.030  0.727 -0.392 -0.415 -0.434 -0.400 -0.400
 0.032  0.729 -0.390 -0.414 -0.433 -0.399 -0.399
 0.034  0.731 -0.388 -0.413 -0.432 -0.398 -0.398
 0.036  0.734 -0.385 -0.412 -0.431 -0.397 -0.397
 0.038  0.736 -0.383 -0.411 -0.431 -0.396 -0.396
 0.040  0.739 -0.381 -0.410 -0.429 -0.394 -0.394
 0.042  0.741 -0.379 -0.409 -0.429 -0.393 -0.393
 0.044  0.744 -0.376 -0.407 -0.427 -0.392 -0.392
 0.046  0.746 -0.373 -0.406 -0.426 -0.391 -0.391
 0.048  0.749 -0.371 -0.405 -0.425 -0.390 -0.390
 0.050  0.753 -0.368 -0.404 -0.424 -0.389 -0.389
 0.052  0.755 -0.366 -0.402 -0.423 -0.388 -0.388
 0.054  0.758 -0.362 -0.400 -0.421 -0.386 -0.386
 0.056  0.762 -0.360 -0.399 -0.420 -0.385 -0.385
 0.058  0.765 -0.356 -0.397 -0.419 -0.384 -0.384
 0.060  0.768 -0.353 -0.396 -0.417 -0.383 -0.383
 0.062  0.771 -0.350 -0.394 -0.415 -0.382 -0.382
 0.064  0.775 -0.347 -0.392 -0.414 -0.381 -0.381
 0.066  0.779 -0.343 -0.390 -0.413 -0.380 -0.380
 0.068  0.782 -0.339 -0.388 -0.411 -0.379 -0.379
 0.070  0.786 -0.336 -0.386 -0.409 -0.378 -0.378
 0.072  0.790 -0.332 -0.384 -0.408 -0.377 -0.377
 0.074  0.794 -0.328 -0.382 -0.406 -0.376 -0.376
 0.076  0.797 -0.324 -0.380 -0.404 -0.375 -0.375
 0.078  0.801 -0.320 -0.378 -0.402 -0.374 -0.374
 0.080  0.806 -0.316 -0.376 -0.401 -0.373 -0.373
 0.082  0.810 -0.312 -0.374 -0.399 -0.372 -0.372
 0.084  0.813 -0.308 -0.372 -0.398 -0.371 -0.371
 0.086  0.817 -0.304 -0.369 -0.396 -0.370 -0.370
 0.088  0.821 -0.300 -0.368 -0.394 -0.369 -0.369
 0.090  0.826 -0.296 -0.366 -0.393 -0.368 -0.368
 0.092  0.829 -0.291 -0.363 -0.391 -0.367 -0.367
 0.094  0.833 -0.287 -0.362 -0.390 -0.366 -0.366
 0.096  0.837 -0.284 -0.360 -0.388 -0.365 -0.365
 0.098  0.841 -0.280 -0.358 -0.387 -0.364 -0.364
 0.100  0.844 -0.276 -0.356 -0.386 -0.363 -0.363
 0.102  0.848 -0.272 -0.355 -0.384 -0.362 -0.362
 0.104  0.852 -0.268 -0.353 -0.383 -0.361 -0.361
 0.106  0.855 -0.265 -0.351 -0.382 -0.360 -0.360
 0.108  0.859 -0.261 -0.349 -0.381 -0.359 -0.359
 0.110  0.862 -0.257 -0.348 -0.379 -0.358 -0.358
 0.112  0.866 -0.254 -0.346 -0.378 -0.357 -0.357
 0.114  0.869 -0.251 -0.344 -0.377 -0.356 -0.356
 0.116  0.872 -0.247 -0.343 -0.376 -0.355 -0.355
 0.118  0.876 -0.244 -0.341 -0.375 -0.354 -0.354
 0.120  0.879 -0.240 -0.339 -0.373 -0.353 -0.353
 0.122  0.882 -0.237 -0.338 -0.372 -0.352 -0.352
 0.124  0.885 -0.234 -0.337 -0.371 -0.352 -0.352
 0.126  0.888 -0.231 -0.335 -0.370 -0.350 -0.350
 0.128  0.891 -0.227 -0.334 -0.369 -0.350 -0.350
 0.130  0.894 -0.225 -0.333 -0.368 -0.349 -0.349
 0.132  0.897 -0.221 -0.331 -0.367 -0.348 -0.348
 0.134  0.900 -0.219 -0.330 -0.367 -0.347 -0.347
 0.136  0.903 -0.215 -0.328 -0.366 -0.346 -0.346
 0.138  0.905 -0.212 -0.327 -0.365 -0.345 -0.345
 0.140  0.908 -0.210 -0.326 -0.364 -0.344 -0.344
 0.142  0.910 -0.207 -0.325 -0.363 -0.343 -0.343
 0.144  0.913 -0.204 -0.324 -0.362 -0.343 -0.343
 0.146  0.916 -0.202 -0.322 -0.361 -0.341 -0.341
 0.148  0.919 -0.199 -0.321 -0.361 -0.341 -0.341
 0.150  0.921 -0.196 -0.320 -0.360 -0.340 -0.340
 0.152  0.923 -0.193 -0.319 -0.359 -0.339 -0.339
 0.154  0.925 -0.191 -0.318 -0.359 -0.338 -0.338
 0.156  0.928 -0.189 -0.316 -0.357 -0.337 -0.337
 0.158  0.930 -0.186 -0.315 -0.357 -0.337 -0.337
 0.160  0.933 -0.183 -0.314 -0.356 -0.335 -0.335
 0.162  0.935 -0.180 -0.313 -0.355 -0.335 -0.335
 0.164  0.937 -0.178 -0.311 -0.354 -0.334 -0.334
 0.166  0.940 -0.176 -0.310 -0.354 -0.333 -0.333
 0.168  0.942 -0.173 -0.309 -0.353 -0.332 -0.332
 0.170  0.945 -0.170 -0.308 -0.352 -0.331 -0.331
 0.172  0.947 -0.168 -0.306 -0.351 -0.331 -0.331
 0.174  0.950 -0.165 -0.305 -0.350 -0.330 -0.330
 0.176  0.952 -0.162 -0.303 -0.349 -0.329 -0.329
 0.178  0.954 -0.159 -0.302 -0.348 -0.328 -0.328
 0.180  0.956 -0.157 -0.300 -0.347 -0.327 -0.327
 0.182  0.959 -0.154 -0.299 -0.346 -0.326 -0.326
 0.184  0.962 -0.151 -0.297 -0.346 -0.326 -0.326
 0.186  0.964 -0.148 -0.296 -0.344 -0.325 -0.325
 0.188  0.967 -0.146 -0.294 -0.344 -0.324 -0.324
 0.190  0.969 -0.143 -0.293 -0.342 -0.323 -0.323
 0.192  0.972 -0.140 -0.291 -0.342 -0.322 -0.322
 0.194  0.974 -0.137 -0.290 -0.340 -0.322 -0.322
 0.196  0.976 -0.134 -0.288 -0.340 -0.321 -0.321
 0.198  0.979 -0.131 -0.286 -0.338 -0.320 -0.320
 0.200  0.981 -0.129 -0.285 -0.338 -0.319 -0.319
 0.202  0.984 -0.126 -0.283 -0.336 -0.318 -0.318
 0.204  0.987 -0.123 -0.281 -0.335 -0.317 -0.317
 0.206  0.989 -0.120 -0.279 -0.334 -0.317 -0.317
 0.208  0.992 -0.117 -0.278 -0.333 -0.316 -0.316
 0.210  0.994 -0.114 -0.276 -0.332 -0.315 -0.315
 0.212  0.996 -0.111 -0.274 -0.331 -0.314 -0.314
 0.214  0.999 -0.108 -0.272 -0.330 -0.313 -0.313
 0.216  1.002 -0.105 -0.270 -0.329 -0.313 -0.313
 0.218  1.005 -0.101 -0.268 -0.328 -0.312 -0.312
 0.220  1.007 -0.099 -0.267 -0.327 -0.311 -0.311
 0.222  1.009 -0.095 -0.265 -0.326 -0.310 -0.310
 0.224  1.012 -0.093 -0.263 -0.325 -0.310 -0.310
 0.226  1.015 -0.089 -0.261 -0.323 -0.309 -0.309
 0.228  1.017 -0.086 -0.259 -0.323 -0.308 -0.308
 0.230  1.020 -0.083 -0.257 -0.321 -0.307 -0.307
 0.232  1.023 -0.080 -0.255 -0.320 -0.306 -0.306
 0.234  1.025 -0.078 -0.253 -0.319 -0.305 -0.305
 0.236  1.027 -0.074 -0.251 -0.318 -0.305 -0.305
 0.238  1.030 -0.071 -0.250 -0.317 -0.304 -0.304
 0.240  1.032 -0.069 -0.247 -0.316 -0.303 -0.303
 0.242  1.035 -0.066 -0.245 -0.315 -0.302 -0.302
 0.244  1.037 -0.063 -0.244 -0.314 -0.301 -0.301
 0.246  1.040 -0.061 -0.242 -0.313 -0.301 -0.301
 0.248  1.042 -0.058 -0.240 -0.311 -0.300 -0.300
 0.250  1.045 -0.055 -0.238 -0.311 -0.299 -0.299
 0.252  1.047 -0.052 -0.236 -0.309 -0.298 -0.298
 0.254  1.049 -0.050 -0.234 -0.308 -0.297 -0.297
 0.256  1.052 -0.047 -0.232 -0.307 -0.296 -0.296
 0.258  1.054 -0.045 -0.230 -0.306 -0.295 -0.295
 0.260  1.056 -0.042 -0.228 -0.305 -0.295 -0.295
 0.262  1.059 -0.040 -0.226 -0.304 -0.294 -0.294
 0.264  1.061 -0.037 -0.225 -0.303 -0.293 -0.293
 0.266  1.063 -0.035 -0.223 -0.302 -0.292 -0.292
 0.268  1.066 -0.033 -0.221 -0.301 -0.291 -0.291
 0.270  1.068 -0.031 -0.219 -0.300 -0.290 -0.290
 0.272  1.070 -0.029 -0.217 -0.299 -0.289 -0.289
 0.274  1.073 -0.026 -0.215 -0.298 -0.288 -0.288
 0.276  1.075 -0.024 -0.213 -0.296 -0.287 -0.287
 0.278  1.077 -0.022 -0.211 -0.296 -0.286 -0.286
 0.280  1.079 -0.020 -0.209 -0.294 -0.285 -0.285
 0.282  1.081 -0.018 -0.207 -0.293 -0.284 -0.284
 0.284  1.084 -0.016 -0.205 -0.292 -0.283 -0.283
 0.286  1.086 -0.014 -0.203 -0.291 -0.282 -0.282
 0.288  1.088 -0.012 -0.202 -0.290 -0.281 -0.281
 0.290  1.090 -0.009 -0.200 -0.289 -0.280 -0.280
 0.292  1.092 -0.007 -0.198 -0.288 -0.279 -0.279
 0.294  1.094 -0.006 -0.196 -0.287 -0.278 -0.278
 0.296  1.096 -0.004 -0.194 -0.286 -0.277 -0.277
 0.298  1.098 -0.002 -0.192 -0.284 -0.275 -0.275
 0.300  1.100 -0.001 -0.190 -0.284 -0.275 -0.275
 0.302  1.102  0.001 -0.189 -0.282 -0.274 -0.274
 0.304  1.105  0.003 -0.187 -0.281 -0.272 -0.272
 0.306  1.107  0.006 -0.185 -0.280 -0.271 -0.271
 0.308  1.109  0.007 -0.183 -0.279 -0.270 -0.270
 0.310  1.111  0.009 -0.182 -0.278 -0.269 -0.269
 0.312  1.113  0.011 -0.180 -0.276 -0.268 -0.268
 0.314  1.115  0.013 -0.178 -0.275 -0.267 -0.267
 0.316  1.117  0.015 -0.177 -0.274 -0.266 -0.266
 0.318  1.119  0.017 -0.175 -0.273 -0.265 -0.265
 0.320  1.121  0.019 -0.173 -0.272 -0.263 -0.263
 0.322  1.122  0.021 -0.172 -0.271 -0.262 -0.262
 0.324  1.125  0.023 -0.170 -0.269 -0.261 -0.261
 0.326  1.127  0.025 -0.169 -0.268 -0.260 -0.260
 0.328  1.129  0.027 -0.167 -0.267 -0.259 -0.259
 0.330  1.131  0.029 -0.166 -0.266 -0.258 -0.258
 0.332  1.132  0.031 -0.164 -0.264 -0.257 -0.257
 0.334  1.134  0.033 -0.163 -0.263 -0.256 -0.256
 0.336  1.136  0.035 -0.161 -0.262 -0.255 -0.255
 0.338  1.138  0.038 -0.160 -0.261 -0.254 -0.254
 0.340  1.140  0.040 -0.159 -0.259 -0.253 -0.253
 0.342  1.142  0.042 -0.157 -0.258 -0.252 -0.252
 0.344  1.143  0.044 -0.156 -0.257 -0.251 -0.251
 0.346  1.145  0.047 -0.155 -0.255 -0.250 -0.250
 0.348  1.147  0.049 -0.153 -0.254 -0.249 -0.249
 0.350  1.149  0.051 -0.152 -0.253 -0.248 -0.248
 0.352  1.151  0.054 -0.151 -0.251 -0.247 -0.247
 0.354  1.152  0.056 -0.149 -0.250 -0.246 -0.246
 0.356  1.154  0.059 -0.149 -0.249 -0.245 -0.245
 0.358  1.156  0.061 -0.147 -0.247 -0.244 -0.244
 0.360  1.158  0.063 -0.146 -0.246 -0.243 -0.243
 0.362  1.159  0.065 -0.145 -0.244 -0.242 -0.242
 0.364  1.161  0.068 -0.144 -0.243 -0.241 -0.241
 0.366  1.162  0.071 -0.143 -0.242 -0.241 -0.241
 0.368  1.164  0.073 -0.142 -0.240 -0.240 -0.240
 0.370  1.166  0.076 -0.141 -0.239 -0.239 -0.239
 0.372  1.168  0.078 -0.139 -0.238 -0.238 -0.238
 0.374  1.169  0.080 -0.138 -0.236 -0.237 -0.237
 0.376  1.171  0.082 -0.137 -0.235 -0.236 -0.236
 0.378  1.173  0.085 -0.136 -0.234 -0.235 -0.235
 0.380  1.175  0.087 -0.135 -0.233 -0.235 -0.235
 0.382  1.176  0.089 -0.134 -0.231 -0.234 -0.234
 0.384  1.178  0.092 -0.133 -0.230 -0.233 -0.233
 0.386  1.180  0.094 -0.131 -0.229 -0.232 -0.232
 0.388  1.182  0.096 -0.131 -0.228 -0.231 -0.231
 0.390  1.183  0.098 -0.129 -0.226 -0.230 -0.230
 0.392  1.185  0.100 -0.128 -0.225 -0.229 -0.229
 0.394  1.187  0.102 -0.127 -0.224 -0.228 -0.228
 0.396  1.189  0.104 -0.126 -0.223 -0.228 -0.228
 0.398  1.190  0.106 -0.125 -0.222 -0.226 -0.226
 0.400  1.192  0.108 -0.124 -0.220 -0.226 -0.226
 0.402  1.194  0.110 -0.123 -0.220 -0.225 -0.225
 0.404  1.195  0.112 -0.121 -0.218 -0.224 -0.224
 0.406  1.198  0.114 -0.120 -0.217 -0.223 -0.223
 0.408  1.199  0.116 -0.119 -0.216 -0.222 -0.222
 0.410  1.201  0.118 -0.118 -0.215 -0.221 -0.221
 0.412  1.203  0.119 -0.117 -0.214 -0.220 -0.220
 0.414  1.204  0.121 -0.116 -0.213 -0.219 -0.219
 0.416  1.206  0.123 -0.115 -0.212 -0.218 -0.218
 0.418  1.209  0.125 -0.113 -0.211 -0.217 -0.217
 0.420  1.210  0.126 -0.113 -0.210 -0.216 -0.216
 0.422  1.212  0.127 -0.112 -0.209 -0.214 -0.214
 0.424  1.214  0.129 -0.110 -0.208 -0.213 -0.213
 0.426  1.215  0.131 -0.109 -0.207 -0.213 -0.213
 0.428  1.218  0.132 -0.108 -0.206 -0.211 -0.211
 0.430  1.220  0.134 -0.107 -0.205 -0.210 -0.210
 0.432  1.222  0.135 -0.106 -0.204 -0.209 -0.209
 0.434  1.223  0.136 -0.105 -0.203 -0.208 -0.208
 0.436  1.225  0.138 -0.104 -0.202 -0.207 -0.207
 0.438  1.227  0.139 -0.102 -0.201 -0.205 -0.205
 0.440  1.229  0.140 -0.101 -0.200 -0.204 -0.204
 0.442  1.231  0.142 -0.101 -0.199 -0.203 -0.203
 0.444  1.233  0.143 -0.099 -0.198 -0.202 -0.202
 0.446  1.234  0.144 -0.098 -0.197 -0.201 -0.201
 0.448  1.236  0.146 -0.097 -0.197 -0.200 -0.200
 0.450  1.238  0.147 -0.096 -0.195 -0.199 -0.199
 0.452  1.240  0.148 -0.095 -0.195 -0.197 -0.197
 0.454  1.241  0.149 -0.094 -0.194 -0.196 -0.196
 0.456  1.243  0.151 -0.093 -0.193 -0.195 -0.195
 0.458  1.244  0.152 -0.092 -0.192 -0.194 -0.194
 0.460  1.246  0.153 -0.091 -0.191 -0.193 -0.193
 0.462  1.248  0.154 -0.090 -0.190 -0.192 -0.192
 0.464  1.249  0.155 -0.089 -0.189 -0.190 -0.190
 0.466  1.251  0.156 -0.088 -0.189 -0.189 -0.189
 0.468  1.252  0.157 -0.087 -0.188 -0.188 -0.188
 0.470  1.253  0.159 -0.086 -0.187 -0.187 -0.187
 0.472  1.255  0.159 -0.085 -0.186 -0.186 -0.186
 0.474  1.256  0.161 -0.084 -0.186 -0.185 -0.185
 0.476  1.257  0.161 -0.083 -0.185 -0.184 -0.184
 0.478  1.259  0.163 -0.082 -0.184 -0.183 -0.183
 0.480  1.260  0.164 -0.081 -0.183 -0.182 -0.182
 0.482  1.262  0.165 -0.080 -0.182 -0.181 -0.181
 0.484  1.262  0.166 -0.079 -0.182 -0.180 -0.180
 0.486  1.264  0.167 -0.078 -0.181 -0.180 -0.180
 0.488  1.265  0.168 -0.077 -0.180 -0.179 -0.179
 0.490  1.266  0.169 -0.077 -0.180 -0.178 -0.178
 0.492  1.267  0.170 -0.076 -0.179 -0.177 -0.177
 0.494  1.268  0.170 -0.075 -0.178 -0.176 -0.176
 0.496  1.269  0.172 -0.074 -0.177 -0.175 -0.175
 0.498  1.270  0.172 -0.073 -0.176 -0.175 -0.175
 0.500  1.271  0.173 -0.072 -0.176 -0.174 -0.174
 0.502  1.272  0.174 -0.071 -0.175 -0.173 -0.173
 0.504  1.273  0.175 -0.071 -0.174 -0.172 -0.172
 0.506  1.273  0.176 -0.070 -0.174 -0.172 -0.172
 0.508  1.275  0.176 -0.069 -0.173 -0.171 -0.171
 0.510  1.275  0.177 -0.068 -0.172 -0.170 -0.170
 0.512  1.276  0.178 -0.067 -0.172 -0.170 -0.170
 0.514  1.277  0.179 -0.066 -0.171 -0.169 -0.169
 0.516  1.277  0.180 -0.065 -0.170 -0.169 -0.169
 0.518  1.278  0.181 -0.065 -0.170 -0.168 -0.168
 0.520  1.279  0.181 -0.064 -0.169 -0.167 -0.167
 0.522  1.279  0.182 -0.063 -0.168 -0.167 -0.167
 0.524  1.280  0.183 -0.062 -0.168 -0.166 -0.166
 0.526  1.281  0.183 -0.061 -0.167 -0.166 -0.166
 0.528  1.282  0.184 -0.061 -0.166 -0.165 -0.165
 0.530  1.282  0.185 -0.060 -0.166 -0.165 -0.165
 0.532  1.283  0.185 -0.059 -0.165 -0.164 -0.164
 0.534  1.284  0.185 -0.059 -0.164 -0.163 -0.163
 0.536  1.284  0.186 -0.058 -0.164 -0.163 -0.163
 0.538  1.285  0.187 -0.057 -0.163 -0.162 -0.162
 0.540  1.285  0.187 -0.056 -0.162 -0.162 -0.162
 0.542  1.286  0.188 -0.055 -0.162 -0.162 -0.162
 0.544  1.286  0.188 -0.055 -0.161 -0.161 -0.161
 0.546  1.287  0.189 -0.054 -0.160 -0.160 -0.160
 0.548  1.287  0.189 -0.054 -0.160 -0.160 -0.160
 0.550  1.288  0.189 -0.053 -0.159 -0.159 -0.159
 0.552  1.288  0.190 -0.052 -0.159 -0.159 -0.159
 0.554  1.289  0.190 -0.052 -0.158 -0.158 -0.158
 0.556  1.289  0.191 -0.051 -0.157 -0.157 -0.157
 0.558  1.290  0.191 -0.050 -0.157 -0.157 -0.157
 0.560  1.290  0.191 -0.050 -0.156 -0.156 -0.156
 0.562  1.291  0.191 -0.049 -0.155 -0.156 -0.156
 0.564  1.291  0.192 -0.048 -0.155 -0.155 -0.155
 0.566  1.291  0.192 -0.048 -0.154 -0.155 -0.155
 0.568  1.292  0.192 -0.048 -0.153 -0.154 -0.154
 0.570  1.292  0.193 -0.047 -0.153 -0.154 -0.154
 0.572  1.293  0.193 -0.046 -0.152 -0.153 -0.153
 0.574  1.293  0.193 -0.046 -0.151 -0.153 -0.153
 0.576  1.293  0.193 -0.045 -0.151 -0.152 -0.152
 0.578  1.293  0.193 -0.044 -0.150 -0.151 -0.151
 0.580  1.293  0.193 -0.044 -0.149 -0.151 -0.151
 0.582  1.294  0.193 -0.043 -0.149 -0.150 -0.150
 0.584  1.294  0.193 -0.043 -0.148 -0.150 -0.150
 0.586  1.295  0.194 -0.042 -0.147 -0.149 -0.149
 0.588  1.295  0.194 -0.042 -0.147 -0.148 -0.148
 0.590  1.295  0.194 -0.041 -0.146 -0.148 -0.148
 0.592  1.295  0.194 -0.041 -0.145 -0.147 -0.147
 0.594  1.295  0.194 -0.040 -0.145 -0.147 -0.147
 0.596  1.296  0.194 -0.039 -0.144 -0.146 -0.146
 0.598  1.296  0.195 -0.038 -0.143 -0.146 -0.146
 0.600  1.296  0.195 -0.038 -0.142 -0.145 -0.145
 0.602  1.297  0.195 -0.037 -0.141 -0.144 -0.144
 0.604  1.297  0.195 -0.036 -0.141 -0.144 -0.144
 0.606  1.297  0.195 -0.036 -0.140 -0.143 -0.143
 0.608  1.297  0.195 -0.035 -0.139 -0.142 -0.142
 0.610  1.297  0.196 -0.035 -0.138 -0.142 -0.142
 0.612  1.298  0.196 -0.034 -0.137 -0.141 -0.141
 0.614  1.298  0.196 -0.033 -0.136 -0.141 -0.141
 0.616  1.299  0.196 -0.032 -0.135 -0.140 -0.140
 0.618  1.299  0.196 -0.032 -0.134 -0.139 -0.139
 0.620  1.299  0.196 -0.031 -0.134 -0.139 -0.139
 0.622  1.299  0.196 -0.030 -0.133 -0.138 -0.138
 0.624  1.300  0.196 -0.030 -0.132 -0.137 -0.137
 0.626  1.300  0.196 -0.029 -0.131 -0.136 -0.136
 0.628  1.300  0.197 -0.028 -0.130 -0.136 -0.136
 0.630  1.301  0.197 -0.027 -0.129 -0.135 -0.135
 0.632  1.301  0.197 -0.026 -0.128 -0.134 -0.134
 0.634  1.302  0.197 -0.026 -0.127 -0.133 -0.133
 0.636  1.302  0.197 -0.025 -0.126 -0.133 -0.133
 0.638  1.302  0.198 -0.024 -0.125 -0.132 -0.132
 0.640  1.302  0.198 -0.024 -0.124 -0.131 -0.131
 0.642  1.303  0.198 -0.023 -0.123 -0.130 -0.130
 0.644  1.303  0.198 -0.022 -0.122 -0.129 -0.129
 0.646  1.304  0.198 -0.021 -0.121 -0.129 -0.129
 0.648  1.304  0.198 -0.020 -0.120 -0.127 -0.127
 0.650  1.304  0.198 -0.019 -0.118 -0.127 -0.127
 0.652  1.304  0.198 -0.018 -0.117 -0.126 -0.126
 0.654  1.304  0.199 -0.017 -0.116 -0.125 -0.125
 0.656  1.305  0.199 -0.016 -0.115 -0.124 -0.124
 0.658  1.305  0.199 -0.015 -0.114 -0.123 -0.123
 0.660  1.306  0.200 -0.014 -0.113 -0.122 -0.122
 0.662  1.306  0.200 -0.013 -0.111 -0.121 -0.121
 0.664  1.306  0.200 -0.012 -0.110 -0.120 -0.120
 0.666  1.307  0.201 -0.011 -0.109 -0.120 -0.120
 0.668  1.307  0.202 -0.010 -0.108 -0.118 -0.118
 0.670  1.308  0.202 -0.008 -0.106 -0.117 -0.117
 0.672  1.308  0.203 -0.007 -0.105 -0.117 -0.117
 0.674  1.308  0.204 -0.006 -0.104 -0.115 -0.115
 0.676  1.309  0.204 -0.005 -0.103 -0.114 -0.114
 0.678  1.309  0.206 -0.003 -0.101 -0.113 -0.113
 0.680  1.310  0.206 -0.002 -0.100 -0.112 -0.112
 0.682  1.310  0.208 -0.000 -0.099 -0.111 -0.111
 0.684  1.310  0.208  0.001 -0.097 -0.109 -0.109
 0.686  1.311  0.210  0.002 -0.096 -0.108 -0.108
 0.688  1.312  0.211  0.004 -0.095 -0.107 -0.107
 0.690  1.312  0.213  0.006 -0.093 -0.105 -0.105
 0.692  1.313  0.214  0.007 -0.091 -0.104 -0.104
 0.694  1.313  0.215  0.009 -0.090 -0.103 -0.103
 0.696  1.313  0.217  0.011 -0.089 -0.101 -0.101
 0.698  1.314  0.218  0.012 -0.087 -0.100 -0.100
 0.700  1.315  0.220  0.014 -0.085 -0.098 -0.098
 0.702  1.315  0.221  0.016 -0.084 -0.097 -0.097
 0.704  1.316  0.223  0.018 -0.082 -0.095 -0.095
 0.706  1.316  0.225  0.019 -0.081 -0.093 -0.093
 0.708  1.317  0.227  0.021 -0.079 -0.092 -0.092
 0.710  1.317  0.229  0.023 -0.078 -0.090 -0.090
 0.712  1.318  0.231  0.025 -0.076 -0.088 -0.088
 0.714  1.319  0.233  0.027 -0.075 -0.087 -0.087
 0.716  1.319  0.235  0.029 -0.073 -0.085 -0.085
 0.718  1.319  0.238  0.031 -0.072 -0.083 -0.083
 0.720  1.320  0.240  0.033 -0.070 -0.081 -0.081
 0.722  1.321  0.243  0.035 -0.068 -0.079 -0.079
 0.724  1.322  0.245  0.036 -0.067 -0.077 -0.077
 0.726  1.322  0.247  0.037 -0.066 -0.075 -0.075
 0.728  1.323  0.249  0.038 -0.064 -0.073 -0.073
 0.730  1.324  0.251  0.039 -0.063 -0.071 -0.071
 0.732  1.325  0.253  0.040 -0.062 -0.069 -0.069
 0.734  1.326  0.255  0.040 -0.060 -0.067 -0.067
 0.736  1.326  0.257  0.040 -0.059 -0.065 -0.065
 0.738  1.328  0.259  0.040 -0.058 -0.063 -0.063
 0.740  1.328  0.260  0.039 -0.056 -0.061 -0.061
 0.742  1.330  0.262  0.038 -0.055 -0.059 -0.059
 0.744  1.331  0.264  0.037 -0.054 -0.057 -0.057
 0.746  1.333  0.265  0.036 -0.053 -0.055 -0.055
 0.748  1.334  0.266  0.035 -0.052 -0.053 -0.053
 0.750  1.335  0.268  0.033 -0.052 -0.051 -0.051
 0.752  1.337  0.268  0.031 -0.050 -0.050 -0.050
 0.754  1.338  0.270  0.029 -0.050 -0.048 -0.048
 0.756  1.339  0.270  0.027 -0.049 -0.047 -0.047
 0.758  1.341  0.271  0.024 -0.049 -0.046 -0.046
 0.760  1.343  0.272  0.021 -0.048 -0.045 -0.045
 0.762  1.344  0.272  0.018 -0.047 -0.044 -0.044
 0.764  1.346  0.273  0.015 -0.047 -0.042 -0.042
 0.766  1.348  0.273  0.012 -0.046 -0.042 -0.042
 0.768  1.350  0.273  0.007 -0.045 -0.041 -0.041
 0.770  1.352  0.273  0.003 -0.045 -0.040 -0.040
 0.772  1.354  0.273 -0.001 -0.044 -0.039 -0.039
 0.774  1.357  0.273 -0.006 -0.044 -0.039 -0.039
 0.776  1.359  0.273 -0.011 -0.043 -0.038 -0.038
 0.778  1.361  0.273 -0.016 -0.043 -0.038 -0.038
 0.780  1.364  0.273 -0.022 -0.042 -0.038 -0.038
 0.782  1.366  0.272 -0.027 -0.042 -0.037 -0.037
 0.784  1.368  0.271 -0.033 -0.042 -0.037 -0.037
 0.786  1.371  0.270 -0.039 -0.042 -0.037 -0.037
 0.788  1.373  0.270 -0.045 -0.042 -0.037 -0.037
 0.790  1.376  0.268 -0.052 -0.042 -0.037 -0.037
 0.792  1.379  0.268 -0.058 -0.043 -0.037 -0.037
 0.794  1.381  0.266 -0.064 -0.043 -0.037 -0.037
 0.796  1.384  0.265 -0.071 -0.044 -0.037 -0.037
 0.798  1.386  0.264 -0.077 -0.045 -0.038 -0.038
 0.800  1.388  0.262 -0.083 -0.046 -0.038 -0.038
 0.802  1.390  0.260 -0.090 -0.047 -0.039 -0.039
 0.804  1.391  0.258 -0.096 -0.049 -0.039 -0.039
 0.806  1.392  0.255 -0.103 -0.051 -0.040 -0.040
 0.808  1.393  0.252 -0.109 -0.053 -0.041 -0.041
