# IsPeriodic    : True
# Period        : 0.486398 days
# Normalization : <g_mag>=0
# 
# Phase u_mag  g_mag  r_mag  i_mag  z_mag  y_mag
 0.000  0.111 -0.887 -0.731 -0.560 -0.560 -0.560
 0.002  0.111 -0.887 -0.731 -0.560 -0.560 -0.560
 0.004  0.114 -0.885 -0.731 -0.560 -0.560 -0.560
 0.006  0.117 -0.884 -0.731 -0.559 -0.559 -0.559
 0.008  0.122 -0.881 -0.730 -0.558 -0.558 -0.558
 0.010  0.128 -0.877 -0.729 -0.557 -0.556 -0.556
 0.012  0.135 -0.873 -0.728 -0.557 -0.555 -0.555
 0.014  0.144 -0.867 -0.727 -0.555 -0.553 -0.553
 0.016  0.152 -0.862 -0.726 -0.553 -0.551 -0.551
 0.018  0.163 -0.856 -0.724 -0.552 -0.549 -0.549
 0.020  0.173 -0.849 -0.723 -0.549 -0.547 -0.547
 0.022  0.184 -0.843 -0.721 -0.547 -0.544 -0.544
 0.024  0.194 -0.836 -0.719 -0.544 -0.542 -0.542
 0.026  0.205 -0.828 -0.715 -0.542 -0.540 -0.540
 0.028  0.216 -0.821 -0.713 -0.539 -0.537 -0.537
 0.030  0.226 -0.814 -0.710 -0.536 -0.534 -0.534
 0.032  0.237 -0.807 -0.708 -0.532 -0.532 -0.532
 0.034  0.246 -0.800 -0.705 -0.528 -0.529 -0.529
 0.036  0.256 -0.793 -0.702 -0.525 -0.527 -0.527
 0.038  0.265 -0.786 -0.697 -0.521 -0.524 -0.524
 0.040  0.275 -0.777 -0.694 -0.517 -0.521 -0.521
 0.042  0.286 -0.770 -0.690 -0.513 -0.518 -0.518
 0.044  0.296 -0.763 -0.686 -0.509 -0.515 -0.515
 0.046  0.305 -0.756 -0.682 -0.504 -0.513 -0.513
 0.048  0.315 -0.749 -0.677 -0.500 -0.509 -0.509
 0.050  0.324 -0.741 -0.672 -0.496 -0.506 -0.506
 0.052  0.334 -0.734 -0.668 -0.491 -0.502 -0.502
 0.054  0.343 -0.727 -0.663 -0.487 -0.499 -0.499
 0.056  0.354 -0.720 -0.657 -0.483 -0.495 -0.495
 0.058  0.364 -0.711 -0.651 -0.479 -0.492 -0.492
 0.060  0.374 -0.704 -0.646 -0.475 -0.488 -0.488
 0.062  0.383 -0.697 -0.639 -0.471 -0.484 -0.484
 0.064  0.393 -0.690 -0.633 -0.467 -0.480 -0.480
 0.066  0.402 -0.682 -0.628 -0.463 -0.476 -0.476
 0.068  0.412 -0.675 -0.620 -0.459 -0.472 -0.472
 0.070  0.421 -0.668 -0.614 -0.455 -0.468 -0.468
 0.072  0.431 -0.659 -0.608 -0.451 -0.463 -0.463
 0.074  0.440 -0.652 -0.602 -0.448 -0.459 -0.459
 0.076  0.450 -0.644 -0.594 -0.445 -0.455 -0.455
 0.078  0.459 -0.637 -0.588 -0.441 -0.451 -0.451
 0.080  0.469 -0.630 -0.581 -0.437 -0.447 -0.447
 0.082  0.477 -0.621 -0.574 -0.434 -0.443 -0.443
 0.084  0.486 -0.614 -0.568 -0.431 -0.438 -0.438
 0.086  0.496 -0.606 -0.561 -0.429 -0.434 -0.434
 0.088  0.506 -0.599 -0.555 -0.425 -0.430 -0.430
 0.090  0.514 -0.590 -0.550 -0.422 -0.426 -0.426
 0.092  0.523 -0.583 -0.544 -0.420 -0.422 -0.422
 0.094  0.533 -0.576 -0.538 -0.416 -0.418 -0.418
 0.096  0.541 -0.568 -0.532 -0.414 -0.414 -0.414
 0.098  0.550 -0.561 -0.527 -0.411 -0.410 -0.410
 0.100  0.558 -0.554 -0.521 -0.408 -0.407 -0.407
 0.102  0.568 -0.546 -0.516 -0.406 -0.403 -0.403
 0.104  0.576 -0.539 -0.511 -0.403 -0.400 -0.400
 0.106  0.584 -0.531 -0.507 -0.401 -0.396 -0.396
 0.108  0.593 -0.524 -0.501 -0.399 -0.393 -0.393
 0.110  0.601 -0.517 -0.496 -0.396 -0.389 -0.389
 0.112  0.609 -0.510 -0.492 -0.394 -0.385 -0.385
 0.114  0.617 -0.503 -0.487 -0.391 -0.382 -0.382
 0.116  0.625 -0.496 -0.482 -0.390 -0.379 -0.379
 0.118  0.633 -0.489 -0.478 -0.387 -0.376 -0.376
 0.120  0.641 -0.484 -0.474 -0.385 -0.373 -0.373
 0.122  0.649 -0.477 -0.470 -0.383 -0.370 -0.370
 0.124  0.655 -0.470 -0.465 -0.381 -0.366 -0.366
 0.126  0.663 -0.464 -0.461 -0.378 -0.363 -0.363
 0.128  0.671 -0.457 -0.457 -0.377 -0.361 -0.361
 0.130  0.677 -0.450 -0.454 -0.374 -0.358 -0.358
 0.132  0.685 -0.444 -0.450 -0.372 -0.354 -0.354
 0.134  0.692 -0.437 -0.446 -0.369 -0.352 -0.352
 0.136  0.700 -0.432 -0.443 -0.368 -0.350 -0.350
 0.138  0.706 -0.425 -0.440 -0.365 -0.346 -0.346
 0.140  0.714 -0.419 -0.437 -0.363 -0.344 -0.344
 0.142  0.720 -0.413 -0.434 -0.361 -0.342 -0.342
 0.144  0.727 -0.408 -0.431 -0.358 -0.339 -0.339
 0.146  0.733 -0.401 -0.427 -0.356 -0.337 -0.337
 0.148  0.739 -0.395 -0.424 -0.353 -0.335 -0.335
 0.150  0.746 -0.390 -0.421 -0.351 -0.332 -0.332
 0.152  0.752 -0.384 -0.418 -0.348 -0.330 -0.330
 0.154  0.759 -0.378 -0.415 -0.346 -0.327 -0.327
 0.156  0.765 -0.373 -0.412 -0.344 -0.325 -0.325
 0.158  0.771 -0.367 -0.409 -0.341 -0.323 -0.323
 0.160  0.778 -0.363 -0.405 -0.339 -0.320 -0.320
 0.162  0.782 -0.357 -0.402 -0.336 -0.318 -0.318
 0.164  0.789 -0.352 -0.399 -0.334 -0.315 -0.315
 0.166  0.795 -0.346 -0.396 -0.331 -0.313 -0.313
 0.168  0.802 -0.340 -0.393 -0.328 -0.311 -0.311
 0.170  0.806 -0.335 -0.388 -0.326 -0.308 -0.308
 0.172  0.813 -0.331 -0.385 -0.323 -0.306 -0.306
 0.174  0.819 -0.325 -0.382 -0.321 -0.303 -0.303
 0.176  0.825 -0.319 -0.379 -0.318 -0.301 -0.301
 0.178  0.830 -0.314 -0.375 -0.315 -0.299 -0.299
 0.180  0.837 -0.308 -0.372 -0.313 -0.296 -0.296
 0.182  0.843 -0.303 -0.368 -0.310 -0.294 -0.294
 0.184  0.848 -0.297 -0.364 -0.307 -0.292 -0.292
 0.186  0.854 -0.293 -0.361 -0.305 -0.289 -0.289
 0.188  0.860 -0.287 -0.357 -0.301 -0.287 -0.287
 0.190  0.865 -0.281 -0.354 -0.299 -0.284 -0.284
 0.192  0.872 -0.276 -0.349 -0.297 -0.283 -0.283
 0.194  0.876 -0.270 -0.346 -0.294 -0.280 -0.280
 0.196  0.883 -0.265 -0.342 -0.291 -0.278 -0.278
 0.198  0.889 -0.259 -0.338 -0.288 -0.276 -0.276
 0.200  0.894 -0.253 -0.335 -0.286 -0.273 -0.273
 0.202  0.900 -0.248 -0.330 -0.284 -0.271 -0.271
 0.204  0.905 -0.242 -0.326 -0.281 -0.268 -0.268
 0.206  0.911 -0.236 -0.323 -0.279 -0.266 -0.266
 0.208  0.918 -0.231 -0.319 -0.276 -0.264 -0.264
 0.210  0.922 -0.225 -0.315 -0.274 -0.261 -0.261
 0.212  0.929 -0.220 -0.310 -0.271 -0.259 -0.259
 0.214  0.934 -0.214 -0.306 -0.269 -0.257 -0.257
 0.216  0.940 -0.208 -0.303 -0.267 -0.254 -0.254
 0.218  0.945 -0.203 -0.299 -0.265 -0.252 -0.252
 0.220  0.951 -0.197 -0.295 -0.263 -0.249 -0.249
 0.222  0.956 -0.192 -0.290 -0.261 -0.247 -0.247
 0.224  0.962 -0.186 -0.286 -0.258 -0.245 -0.245
 0.226  0.967 -0.180 -0.283 -0.257 -0.242 -0.242
 0.228  0.973 -0.173 -0.279 -0.254 -0.241 -0.241
 0.230  0.978 -0.168 -0.276 -0.253 -0.238 -0.238
 0.232  0.985 -0.162 -0.271 -0.250 -0.236 -0.236
 0.234  0.989 -0.156 -0.268 -0.249 -0.233 -0.233
 0.236  0.994 -0.151 -0.264 -0.246 -0.231 -0.231
 0.238  1.000 -0.145 -0.261 -0.245 -0.229 -0.229
 0.240  1.005 -0.140 -0.257 -0.243 -0.227 -0.227
 0.242  1.010 -0.134 -0.253 -0.241 -0.225 -0.225
 0.244  1.016 -0.128 -0.250 -0.240 -0.222 -0.222
 0.246  1.021 -0.123 -0.247 -0.238 -0.220 -0.220
 0.248  1.026 -0.117 -0.244 -0.236 -0.218 -0.218
 0.250  1.031 -0.113 -0.240 -0.235 -0.216 -0.216
 0.252  1.035 -0.107 -0.237 -0.233 -0.214 -0.214
 0.254  1.040 -0.102 -0.233 -0.232 -0.212 -0.212
 0.256  1.045 -0.097 -0.230 -0.230 -0.210 -0.210
 0.258  1.050 -0.092 -0.227 -0.228 -0.207 -0.207
 0.260  1.055 -0.086 -0.224 -0.227 -0.206 -0.206
 0.262  1.059 -0.082 -0.221 -0.225 -0.203 -0.203
 0.264  1.064 -0.076 -0.219 -0.224 -0.202 -0.202
 0.266  1.069 -0.072 -0.215 -0.222 -0.199 -0.199
 0.268  1.074 -0.067 -0.212 -0.220 -0.198 -0.198
 0.270  1.077 -0.062 -0.209 -0.219 -0.195 -0.195
 0.272  1.082 -0.058 -0.207 -0.217 -0.194 -0.194
 0.274  1.086 -0.052 -0.204 -0.216 -0.191 -0.191
 0.276  1.091 -0.048 -0.202 -0.213 -0.190 -0.190
 0.278  1.094 -0.044 -0.199 -0.211 -0.187 -0.187
 0.280  1.099 -0.040 -0.197 -0.210 -0.186 -0.186
 0.282  1.102 -0.036 -0.193 -0.207 -0.183 -0.183
 0.284  1.107 -0.030 -0.191 -0.206 -0.182 -0.182
 0.286  1.112 -0.026 -0.188 -0.203 -0.180 -0.180
 0.288  1.115 -0.022 -0.186 -0.202 -0.178 -0.178
 0.290  1.118 -0.017 -0.184 -0.199 -0.176 -0.176
 0.292  1.123 -0.015 -0.181 -0.197 -0.174 -0.174
 0.294  1.126 -0.010 -0.179 -0.194 -0.172 -0.172
 0.296  1.129 -0.006 -0.175 -0.193 -0.171 -0.171
 0.298  1.134 -0.002 -0.173 -0.190 -0.168 -0.168
 0.300  1.137  0.002 -0.171 -0.188 -0.167 -0.167
 0.302  1.140  0.005 -0.168 -0.186 -0.165 -0.165
 0.304  1.145  0.009 -0.166 -0.183 -0.163 -0.163
 0.306  1.148  0.014 -0.163 -0.181 -0.161 -0.161
 0.308  1.152  0.018 -0.161 -0.178 -0.160 -0.160
 0.310  1.155  0.021 -0.157 -0.175 -0.157 -0.157
 0.312  1.160  0.025 -0.155 -0.173 -0.156 -0.156
 0.314  1.163  0.029 -0.152 -0.170 -0.154 -0.154
 0.316  1.166  0.032 -0.149 -0.167 -0.152 -0.152
 0.318  1.171  0.036 -0.147 -0.165 -0.150 -0.150
 0.320  1.174  0.040 -0.144 -0.161 -0.148 -0.148
 0.322  1.177  0.044 -0.141 -0.159 -0.146 -0.146
 0.324  1.182  0.047 -0.139 -0.156 -0.144 -0.144
 0.326  1.185  0.051 -0.135 -0.153 -0.143 -0.143
 0.328  1.190  0.056 -0.132 -0.150 -0.140 -0.140
 0.330  1.193  0.060 -0.130 -0.147 -0.139 -0.139
 0.332  1.198  0.064 -0.127 -0.144 -0.137 -0.137
 0.334  1.201  0.067 -0.124 -0.141 -0.136 -0.136
 0.336  1.204  0.071 -0.121 -0.139 -0.133 -0.133
 0.338  1.209  0.075 -0.118 -0.135 -0.132 -0.132
 0.340  1.214  0.080 -0.115 -0.133 -0.130 -0.130
 0.342  1.217  0.084 -0.112 -0.130 -0.128 -0.128
 0.344  1.222  0.088 -0.109 -0.127 -0.126 -0.126
 0.346  1.225  0.092 -0.106 -0.124 -0.125 -0.125
 0.348  1.230  0.096 -0.103 -0.122 -0.122 -0.122
 0.350  1.233  0.101 -0.099 -0.119 -0.121 -0.121
 0.352  1.237  0.105 -0.097 -0.116 -0.119 -0.119
 0.354  1.242  0.109 -0.094 -0.113 -0.117 -0.117
 0.356  1.245  0.113 -0.091 -0.111 -0.115 -0.115
 0.358  1.250  0.117 -0.088 -0.109 -0.113 -0.113
 0.360  1.255  0.122 -0.085 -0.106 -0.112 -0.112
 0.362  1.260  0.126 -0.082 -0.104 -0.109 -0.109
 0.364  1.263  0.130 -0.078 -0.101 -0.108 -0.108
 0.366  1.268  0.134 -0.075 -0.099 -0.106 -0.106
 0.368  1.272  0.139 -0.072 -0.096 -0.104 -0.104
 0.370  1.277  0.143 -0.069 -0.095 -0.102 -0.102
 0.372  1.280  0.147 -0.066 -0.092 -0.101 -0.101
 0.374  1.285  0.151 -0.063 -0.090 -0.098 -0.098
 0.376  1.290  0.155 -0.059 -0.088 -0.097 -0.097
 0.378  1.295  0.160 -0.057 -0.086 -0.094 -0.094
 0.380  1.300  0.164 -0.054 -0.083 -0.093 -0.093
 0.382  1.303  0.168 -0.051 -0.081 -0.091 -0.091
 0.384  1.308  0.172 -0.048 -0.079 -0.089 -0.089
 0.386  1.312  0.176 -0.046 -0.078 -0.087 -0.087
 0.388  1.315  0.181 -0.043 -0.075 -0.085 -0.085
 0.390  1.320  0.185 -0.039 -0.074 -0.083 -0.083
 0.392  1.325  0.189 -0.036 -0.072 -0.081 -0.081
 0.394  1.328  0.193 -0.034 -0.070 -0.079 -0.079
 0.396  1.333  0.198 -0.031 -0.068 -0.077 -0.077
 0.398  1.336  0.200 -0.028 -0.066 -0.075 -0.075
 0.400  1.341  0.205 -0.026 -0.065 -0.073 -0.073
 0.402  1.344  0.209 -0.022 -0.063 -0.071 -0.071
 0.404  1.349  0.212 -0.019 -0.062 -0.069 -0.069
 0.406  1.352  0.216 -0.017 -0.060 -0.067 -0.067
 0.408  1.357  0.219 -0.014 -0.058 -0.065 -0.065
 0.410  1.360  0.223 -0.011 -0.056 -0.062 -0.062
 0.412  1.365  0.226 -0.009 -0.054 -0.061 -0.061
 0.414  1.368  0.230 -0.006 -0.053 -0.059 -0.059
 0.416  1.371  0.233 -0.004 -0.051 -0.057 -0.057
 0.418  1.376  0.237 -0.000 -0.049 -0.055 -0.055
 0.420  1.379  0.240  0.002 -0.047 -0.052 -0.052
 0.422  1.382  0.243  0.005 -0.045 -0.051 -0.051
 0.424  1.385  0.245  0.007 -0.044 -0.048 -0.048
 0.426  1.390  0.250  0.010 -0.042 -0.046 -0.046
 0.428  1.393  0.252  0.012 -0.040 -0.044 -0.044
 0.430  1.397  0.255  0.015 -0.038 -0.042 -0.042
 0.432  1.400  0.258  0.018 -0.037 -0.039 -0.039
 0.434  1.403  0.261  0.020 -0.035 -0.038 -0.038
 0.436  1.406  0.264  0.023 -0.032 -0.035 -0.035
 0.438  1.409  0.266  0.025 -0.031 -0.033 -0.033
 0.440  1.413  0.269  0.027 -0.029 -0.031 -0.031
 0.442  1.416  0.272  0.029 -0.027 -0.029 -0.029
 0.444  1.419  0.275  0.032 -0.025 -0.027 -0.027
 0.446  1.422  0.278  0.034 -0.024 -0.025 -0.025
 0.448  1.425  0.280  0.037 -0.021 -0.023 -0.023
 0.450  1.428  0.282  0.039 -0.020 -0.021 -0.021
 0.452  1.432  0.285  0.041 -0.017 -0.019 -0.019
 0.454  1.435  0.287  0.043 -0.015 -0.017 -0.017
 0.456  1.438  0.289  0.045 -0.013 -0.015 -0.015
 0.458  1.441  0.292  0.047 -0.011 -0.013 -0.013
 0.460  1.444  0.294  0.049 -0.009 -0.011 -0.011
 0.462  1.448  0.296  0.051 -0.007 -0.009 -0.009
 0.464  1.449  0.299  0.053 -0.005 -0.008 -0.008
 0.466  1.452  0.300  0.056 -0.003 -0.005 -0.005
 0.468  1.455  0.303  0.058 -0.001 -0.004 -0.004
 0.470  1.459  0.304  0.059  0.001 -0.002 -0.002
 0.472  1.460  0.307  0.061  0.003  0.000  0.000
 0.474  1.463  0.309  0.063  0.005  0.002  0.002
 0.476  1.467  0.311  0.065  0.006  0.004  0.004
 0.478  1.470  0.313  0.066  0.009  0.005  0.005
 0.480  1.471  0.316  0.068  0.010  0.008  0.008
 0.482  1.475  0.317  0.070  0.013  0.009  0.009
 0.484  1.478  0.318  0.071  0.015  0.011  0.011
 0.486  1.479  0.320  0.073  0.016  0.012  0.012
 0.488  1.483  0.323  0.075  0.019  0.014  0.014
 0.490  1.484  0.324  0.077  0.020  0.015  0.015
 0.492  1.487  0.325  0.078  0.022  0.017  0.017
 0.494  1.489  0.327  0.079  0.023  0.019  0.019
 0.496  1.492  0.328  0.081  0.025  0.020  0.020
 0.498  1.495  0.330  0.082  0.027  0.022  0.022
 0.500  1.497  0.331  0.083  0.028  0.023  0.023
 0.502  1.500  0.334  0.085  0.030  0.025  0.025
 0.504  1.502  0.335  0.086  0.032  0.027  0.027
 0.506  1.503  0.337  0.087  0.033  0.028  0.028
 0.508  1.506  0.338  0.089  0.034  0.030  0.030
 0.510  1.508  0.338  0.090  0.036  0.031  0.031
 0.512  1.511  0.339  0.091  0.037  0.032  0.032
 0.514  1.513  0.341  0.092  0.039  0.034  0.034
 0.516  1.514  0.342  0.095  0.040  0.035  0.035
 0.518  1.518  0.344  0.096  0.041  0.037  0.037
 0.520  1.519  0.345  0.097  0.042  0.038  0.038
 0.522  1.521  0.345  0.098  0.044  0.039  0.039
 0.524  1.522  0.346  0.099  0.044  0.041  0.041
 0.526  1.525  0.348  0.101  0.046  0.042  0.042
 0.528  1.527  0.349  0.102  0.047  0.043  0.043
 0.530  1.529  0.349  0.103  0.048  0.044  0.044
 0.532  1.530  0.351  0.104  0.049  0.046  0.046
 0.534  1.532  0.352  0.105  0.050  0.047  0.047
 0.536  1.532  0.352  0.106  0.051  0.048  0.048
 0.538  1.533  0.353  0.108  0.052  0.050  0.050
 0.540  1.535  0.353  0.109  0.053  0.050  0.050
 0.542  1.537  0.355  0.110  0.053  0.052  0.052
 0.544  1.537  0.355  0.111  0.054  0.053  0.053
 0.546  1.538  0.356  0.113  0.055  0.054  0.054
 0.548  1.540  0.356  0.114  0.056  0.055  0.055
 0.550  1.540  0.358  0.115  0.057  0.056  0.056
 0.552  1.541  0.358  0.117  0.057  0.058  0.058
 0.554  1.541  0.358  0.118  0.058  0.058  0.058
 0.556  1.541  0.359  0.119  0.059  0.059  0.059
 0.558  1.543  0.359  0.120  0.060  0.060  0.060
 0.560  1.543  0.361  0.121  0.061  0.062  0.062
 0.562  1.543  0.361  0.122  0.061  0.062  0.062
 0.564  1.545  0.361  0.123  0.062  0.063  0.063
 0.566  1.545  0.361  0.124  0.063  0.064  0.064
 0.568  1.545  0.362  0.125  0.064  0.065  0.065
 0.570  1.545  0.362  0.126  0.065  0.066  0.066
 0.572  1.545  0.362  0.127  0.066  0.067  0.067
 0.574  1.545  0.362  0.128  0.066  0.068  0.068
 0.576  1.545  0.362  0.129  0.067  0.069  0.069
 0.578  1.543  0.362  0.130  0.068  0.070  0.070
 0.580  1.543  0.362  0.131  0.069  0.070  0.070
 0.582  1.543  0.362  0.133  0.070  0.071  0.071
 0.584  1.543  0.362  0.134  0.071  0.072  0.072
 0.586  1.541  0.362  0.135  0.072  0.073  0.073
 0.588  1.541  0.362  0.136  0.073  0.074  0.074
 0.590  1.541  0.362  0.137  0.074  0.074  0.074
 0.592  1.540  0.362  0.137  0.074  0.075  0.075
 0.594  1.540  0.362  0.138  0.075  0.076  0.076
 0.596  1.540  0.362  0.139  0.076  0.076  0.076
 0.598  1.538  0.362  0.140  0.077  0.077  0.077
 0.600  1.538  0.362  0.140  0.078  0.077  0.077
 0.602  1.538  0.362  0.141  0.079  0.078  0.078
 0.604  1.537  0.362  0.142  0.079  0.079  0.079
 0.606  1.537  0.362  0.142  0.081  0.080  0.080
 0.608  1.537  0.362  0.143  0.082  0.080  0.080
 0.610  1.535  0.361  0.144  0.083  0.081  0.081
 0.612  1.535  0.361  0.144  0.083  0.081  0.081
 0.614  1.535  0.361  0.145  0.084  0.082  0.082
 0.616  1.535  0.361  0.145  0.085  0.082  0.082
 0.618  1.533  0.361  0.146  0.086  0.083  0.083
 0.620  1.533  0.361  0.146  0.087  0.084  0.084
 0.622  1.533  0.361  0.147  0.087  0.085  0.085
 0.624  1.533  0.361  0.147  0.088  0.085  0.085
 0.626  1.533  0.361  0.148  0.089  0.085  0.085
 0.628  1.532  0.361  0.148  0.090  0.085  0.085
 0.630  1.532  0.359  0.148  0.091  0.086  0.086
 0.632  1.532  0.359  0.149  0.091  0.087  0.087
 0.634  1.532  0.359  0.149  0.092  0.087  0.087
 0.636  1.532  0.359  0.149  0.093  0.088  0.088
 0.638  1.532  0.359  0.150  0.094  0.088  0.088
 0.640  1.532  0.359  0.150  0.095  0.089  0.089
 0.642  1.532  0.359  0.150  0.095  0.089  0.089
 0.644  1.532  0.359  0.152  0.096  0.089  0.089
 0.646  1.530  0.358  0.152  0.096  0.089  0.089
 0.648  1.530  0.358  0.152  0.097  0.090  0.090
 0.650  1.530  0.358  0.152  0.097  0.090  0.090
 0.652  1.530  0.358  0.152  0.098  0.091  0.091
 0.654  1.530  0.358  0.152  0.099  0.091  0.091
 0.656  1.530  0.358  0.152  0.099  0.091  0.091
 0.658  1.530  0.356  0.152  0.100  0.092  0.092
 0.660  1.530  0.356  0.152  0.100  0.092  0.092
 0.662  1.530  0.356  0.152  0.100  0.093  0.093
 0.664  1.532  0.356  0.152  0.101  0.093  0.093
 0.666  1.532  0.356  0.152  0.101  0.093  0.093
 0.668  1.532  0.356  0.152  0.101  0.093  0.093
 0.670  1.530  0.356  0.152  0.102  0.093  0.093
 0.672  1.530  0.356  0.152  0.102  0.094  0.094
 0.674  1.530  0.356  0.152  0.103  0.094  0.094
 0.676  1.530  0.356  0.152  0.103  0.095  0.095
 0.678  1.530  0.356  0.150  0.103  0.095  0.095
 0.680  1.530  0.358  0.150  0.103  0.096  0.096
 0.682  1.530  0.358  0.150  0.104  0.096  0.096
 0.684  1.530  0.358  0.150  0.104  0.097  0.097
 0.686  1.530  0.359  0.149  0.104  0.097  0.097
 0.688  1.529  0.359  0.149  0.104  0.097  0.097
 0.690  1.529  0.361  0.149  0.104  0.097  0.097
 0.692  1.529  0.361  0.148  0.104  0.097  0.097
 0.694  1.529  0.362  0.148  0.105  0.098  0.098
 0.696  1.529  0.363  0.147  0.105  0.098  0.098
 0.698  1.529  0.363  0.147  0.106  0.099  0.099
 0.700  1.527  0.365  0.146  0.106  0.099  0.099
 0.702  1.527  0.366  0.146  0.107  0.099  0.099
 0.704  1.527  0.368  0.145  0.108  0.100  0.100
 0.706  1.527  0.369  0.145  0.108  0.100  0.100
 0.708  1.525  0.370  0.144  0.108  0.101  0.101
 0.710  1.525  0.372  0.143  0.109  0.101  0.101
 0.712  1.525  0.373  0.143  0.110  0.101  0.101
 0.714  1.524  0.375  0.142  0.111  0.101  0.101
 0.716  1.524  0.376  0.142  0.112  0.101  0.101
 0.718  1.522  0.377  0.141  0.113  0.102  0.102
 0.720  1.522  0.380  0.141  0.114  0.102  0.102
 0.722  1.522  0.382  0.141  0.115  0.103  0.103
 0.724  1.521  0.383  0.140  0.116  0.103  0.103
 0.726  1.521  0.386  0.140  0.117  0.104  0.104
 0.728  1.521  0.387  0.141  0.118  0.105  0.105
 0.730  1.519  0.390  0.141  0.120  0.105  0.105
 0.732  1.519  0.391  0.141  0.121  0.105  0.105
 0.734  1.519  0.394  0.142  0.122  0.106  0.106
 0.736  1.519  0.397  0.143  0.124  0.107  0.107
 0.738  1.519  0.398  0.143  0.125  0.108  0.108
 0.740  1.519  0.401  0.145  0.127  0.109  0.109
 0.742  1.519  0.404  0.146  0.129  0.109  0.109
 0.744  1.521  0.405  0.147  0.130  0.111  0.111
 0.746  1.522  0.408  0.149  0.132  0.112  0.112
 0.748  1.522  0.411  0.150  0.134  0.112  0.112
 0.750  1.524  0.414  0.153  0.135  0.114  0.114
 0.752  1.525  0.417  0.155  0.137  0.115  0.115
 0.754  1.529  0.420  0.157  0.138  0.116  0.116
 0.756  1.530  0.422  0.159  0.141  0.117  0.117
 0.758  1.533  0.425  0.161  0.143  0.119  0.119
 0.760  1.537  0.429  0.163  0.144  0.120  0.120
 0.762  1.540  0.432  0.166  0.147  0.121  0.121
 0.764  1.543  0.435  0.168  0.149  0.123  0.123
 0.766  1.546  0.438  0.172  0.151  0.124  0.124
 0.768  1.551  0.441  0.175  0.153  0.126  0.126
 0.770  1.556  0.445  0.178  0.155  0.128  0.128
 0.772  1.559  0.448  0.181  0.158  0.129  0.129
 0.774  1.564  0.450  0.185  0.160  0.131  0.131
 0.776  1.568  0.453  0.190  0.163  0.132  0.132
 0.778  1.573  0.457  0.193  0.165  0.135  0.135
 0.780  1.578  0.460  0.197  0.168  0.136  0.136
 0.782  1.584  0.463  0.201  0.170  0.139  0.139
 0.784  1.591  0.467  0.205  0.173  0.140  0.140
 0.786  1.595  0.470  0.210  0.176  0.143  0.143
 0.788  1.602  0.474  0.214  0.178  0.144  0.144
 0.790  1.610  0.479  0.218  0.181  0.147  0.147
 0.792  1.616  0.483  0.222  0.184  0.148  0.148
 0.794  1.624  0.487  0.226  0.186  0.151  0.151
 0.796  1.632  0.491  0.231  0.189  0.153  0.153
 0.798  1.640  0.495  0.235  0.191  0.155  0.155
 0.800  1.646  0.500  0.239  0.194  0.157  0.157
 0.802  1.654  0.504  0.243  0.197  0.159  0.159
 0.804  1.662  0.508  0.246  0.200  0.162  0.162
 0.806  1.669  0.511  0.251  0.202  0.163  0.163
 0.808  1.675  0.514  0.254  0.206  0.166  0.166
