# IsPeriodic    : True
# Period        : 0.553793 days
# Normalization : <g_mag>=0
# 
# Phase u_mag  g_mag  r_mag  i_mag  z_mag  y_mag
 0.000  0.498 -0.750 -0.667 -0.569 -0.466 -0.466
 0.002  0.498 -0.748 -0.667 -0.569 -0.466 -0.466
 0.004  0.498 -0.747 -0.667 -0.568 -0.465 -0.465
 0.006  0.499 -0.745 -0.666 -0.567 -0.464 -0.464
 0.008  0.500 -0.743 -0.664 -0.567 -0.463 -0.463
 0.010  0.502 -0.740 -0.663 -0.567 -0.461 -0.461
 0.012  0.503 -0.735 -0.662 -0.566 -0.460 -0.460
 0.014  0.505 -0.730 -0.660 -0.565 -0.458 -0.458
 0.016  0.507 -0.724 -0.658 -0.564 -0.456 -0.456
 0.018  0.511 -0.719 -0.656 -0.564 -0.454 -0.454
 0.020  0.514 -0.713 -0.653 -0.562 -0.452 -0.452
 0.022  0.516 -0.708 -0.652 -0.561 -0.449 -0.449
 0.024  0.519 -0.701 -0.649 -0.560 -0.447 -0.447
 0.026  0.524 -0.695 -0.647 -0.558 -0.444 -0.444
 0.028  0.527 -0.689 -0.644 -0.557 -0.442 -0.442
 0.030  0.530 -0.683 -0.641 -0.555 -0.440 -0.440
 0.032  0.535 -0.678 -0.639 -0.553 -0.437 -0.437
 0.034  0.539 -0.672 -0.636 -0.551 -0.435 -0.435
 0.036  0.543 -0.667 -0.633 -0.549 -0.433 -0.433
 0.038  0.548 -0.661 -0.630 -0.547 -0.430 -0.430
 0.040  0.552 -0.656 -0.626 -0.545 -0.428 -0.428
 0.042  0.558 -0.650 -0.623 -0.542 -0.426 -0.426
 0.044  0.563 -0.645 -0.620 -0.540 -0.424 -0.424
 0.046  0.569 -0.639 -0.616 -0.537 -0.422 -0.422
 0.048  0.574 -0.634 -0.613 -0.535 -0.420 -0.420
 0.050  0.580 -0.627 -0.609 -0.531 -0.418 -0.418
 0.052  0.586 -0.621 -0.605 -0.528 -0.416 -0.416
 0.054  0.593 -0.615 -0.601 -0.525 -0.414 -0.414
 0.056  0.599 -0.608 -0.597 -0.522 -0.411 -0.411
 0.058  0.606 -0.603 -0.593 -0.519 -0.409 -0.409
 0.060  0.612 -0.596 -0.588 -0.516 -0.407 -0.407
 0.062  0.620 -0.589 -0.584 -0.513 -0.405 -0.405
 0.064  0.628 -0.583 -0.579 -0.509 -0.403 -0.403
 0.066  0.634 -0.576 -0.574 -0.506 -0.401 -0.401
 0.068  0.643 -0.570 -0.569 -0.503 -0.399 -0.399
 0.070  0.651 -0.563 -0.564 -0.500 -0.397 -0.397
 0.072  0.658 -0.556 -0.559 -0.496 -0.395 -0.395
 0.074  0.667 -0.550 -0.554 -0.493 -0.392 -0.392
 0.076  0.675 -0.543 -0.549 -0.491 -0.391 -0.391
 0.078  0.684 -0.536 -0.544 -0.487 -0.389 -0.389
 0.080  0.691 -0.530 -0.538 -0.485 -0.386 -0.386
 0.082  0.700 -0.523 -0.533 -0.482 -0.385 -0.385
 0.084  0.708 -0.517 -0.529 -0.479 -0.383 -0.383
 0.086  0.715 -0.510 -0.524 -0.476 -0.380 -0.380
 0.088  0.723 -0.503 -0.519 -0.473 -0.379 -0.379
 0.090  0.731 -0.497 -0.515 -0.471 -0.377 -0.377
 0.092  0.738 -0.490 -0.510 -0.468 -0.375 -0.375
 0.094  0.746 -0.485 -0.506 -0.465 -0.373 -0.373
 0.096  0.753 -0.478 -0.501 -0.463 -0.371 -0.371
 0.098  0.760 -0.471 -0.496 -0.460 -0.369 -0.369
 0.100  0.767 -0.465 -0.492 -0.458 -0.367 -0.367
 0.102  0.773 -0.459 -0.488 -0.456 -0.365 -0.365
 0.104  0.780 -0.453 -0.484 -0.453 -0.364 -0.364
 0.106  0.786 -0.446 -0.480 -0.451 -0.361 -0.361
 0.108  0.793 -0.440 -0.476 -0.449 -0.360 -0.360
 0.110  0.800 -0.435 -0.472 -0.446 -0.358 -0.358
 0.112  0.806 -0.428 -0.468 -0.444 -0.356 -0.356
 0.114  0.812 -0.423 -0.464 -0.442 -0.354 -0.354
 0.116  0.818 -0.417 -0.460 -0.440 -0.353 -0.353
 0.118  0.824 -0.412 -0.456 -0.438 -0.351 -0.351
 0.120  0.830 -0.406 -0.453 -0.436 -0.349 -0.349
 0.122  0.836 -0.401 -0.450 -0.434 -0.347 -0.347
 0.124  0.841 -0.395 -0.446 -0.432 -0.346 -0.346
 0.126  0.847 -0.390 -0.442 -0.430 -0.344 -0.344
 0.128  0.852 -0.384 -0.439 -0.428 -0.343 -0.343
 0.130  0.858 -0.379 -0.436 -0.426 -0.341 -0.341
 0.132  0.862 -0.373 -0.433 -0.424 -0.339 -0.339
 0.134  0.867 -0.369 -0.430 -0.422 -0.338 -0.338
 0.136  0.872 -0.363 -0.427 -0.420 -0.336 -0.336
 0.138  0.877 -0.358 -0.424 -0.419 -0.334 -0.334
 0.140  0.882 -0.353 -0.421 -0.417 -0.333 -0.333
 0.142  0.886 -0.348 -0.418 -0.415 -0.331 -0.331
 0.144  0.890 -0.343 -0.416 -0.413 -0.330 -0.330
 0.146  0.895 -0.338 -0.413 -0.411 -0.328 -0.328
 0.148  0.899 -0.333 -0.410 -0.410 -0.326 -0.326
 0.150  0.904 -0.329 -0.408 -0.408 -0.325 -0.325
 0.152  0.908 -0.324 -0.404 -0.406 -0.323 -0.323
 0.154  0.912 -0.319 -0.402 -0.404 -0.321 -0.321
 0.156  0.917 -0.315 -0.400 -0.402 -0.320 -0.320
 0.158  0.921 -0.310 -0.397 -0.401 -0.319 -0.319
 0.160  0.925 -0.306 -0.394 -0.399 -0.317 -0.317
 0.162  0.929 -0.301 -0.391 -0.397 -0.315 -0.315
 0.164  0.933 -0.297 -0.389 -0.395 -0.314 -0.314
 0.166  0.937 -0.292 -0.386 -0.393 -0.313 -0.313
 0.168  0.942 -0.288 -0.383 -0.392 -0.311 -0.311
 0.170  0.946 -0.284 -0.381 -0.390 -0.309 -0.309
 0.172  0.951 -0.279 -0.378 -0.388 -0.308 -0.308
 0.174  0.955 -0.274 -0.376 -0.386 -0.307 -0.307
 0.176  0.958 -0.269 -0.372 -0.384 -0.305 -0.305
 0.178  0.963 -0.265 -0.370 -0.383 -0.303 -0.303
 0.180  0.967 -0.260 -0.367 -0.381 -0.302 -0.302
 0.182  0.971 -0.256 -0.364 -0.379 -0.301 -0.301
 0.184  0.976 -0.252 -0.362 -0.377 -0.299 -0.299
 0.186  0.980 -0.247 -0.359 -0.376 -0.298 -0.298
 0.188  0.985 -0.243 -0.356 -0.374 -0.296 -0.296
 0.190  0.988 -0.238 -0.353 -0.372 -0.295 -0.295
 0.192  0.992 -0.234 -0.351 -0.370 -0.293 -0.293
 0.194  0.997 -0.230 -0.348 -0.368 -0.292 -0.292
 0.196  1.001 -0.225 -0.345 -0.367 -0.290 -0.290
 0.198  1.005 -0.221 -0.342 -0.365 -0.289 -0.289
 0.200  1.010 -0.216 -0.340 -0.363 -0.287 -0.287
 0.202  1.013 -0.212 -0.337 -0.361 -0.286 -0.286
 0.204  1.017 -0.207 -0.334 -0.360 -0.284 -0.284
 0.206  1.022 -0.203 -0.331 -0.358 -0.283 -0.283
 0.208  1.026 -0.199 -0.329 -0.356 -0.281 -0.281
 0.210  1.029 -0.194 -0.326 -0.354 -0.280 -0.280
 0.212  1.034 -0.190 -0.323 -0.353 -0.278 -0.278
 0.214  1.038 -0.186 -0.320 -0.351 -0.277 -0.277
 0.216  1.043 -0.182 -0.317 -0.349 -0.275 -0.275
 0.218  1.047 -0.178 -0.315 -0.347 -0.274 -0.274
 0.220  1.050 -0.173 -0.312 -0.345 -0.272 -0.272
 0.222  1.055 -0.169 -0.309 -0.344 -0.271 -0.271
 0.224  1.059 -0.164 -0.306 -0.342 -0.269 -0.269
 0.226  1.062 -0.160 -0.303 -0.340 -0.268 -0.268
 0.228  1.067 -0.156 -0.301 -0.338 -0.266 -0.266
 0.230  1.071 -0.152 -0.298 -0.337 -0.265 -0.265
 0.232  1.074 -0.148 -0.295 -0.335 -0.263 -0.263
 0.234  1.079 -0.143 -0.293 -0.333 -0.262 -0.262
 0.236  1.082 -0.139 -0.290 -0.332 -0.261 -0.261
 0.238  1.086 -0.136 -0.288 -0.330 -0.259 -0.259
 0.240  1.090 -0.131 -0.285 -0.328 -0.257 -0.257
 0.242  1.094 -0.127 -0.282 -0.327 -0.256 -0.256
 0.244  1.097 -0.124 -0.280 -0.325 -0.255 -0.255
 0.246  1.101 -0.119 -0.277 -0.323 -0.253 -0.253
 0.248  1.105 -0.116 -0.275 -0.322 -0.252 -0.252
 0.250  1.108 -0.111 -0.272 -0.320 -0.250 -0.250
 0.252  1.112 -0.107 -0.270 -0.318 -0.249 -0.249
 0.254  1.116 -0.104 -0.267 -0.316 -0.248 -0.248
 0.256  1.119 -0.100 -0.265 -0.315 -0.247 -0.247
 0.258  1.122 -0.096 -0.262 -0.313 -0.245 -0.245
 0.260  1.126 -0.093 -0.260 -0.311 -0.244 -0.244
 0.262  1.129 -0.088 -0.257 -0.310 -0.242 -0.242
 0.264  1.133 -0.085 -0.255 -0.308 -0.241 -0.241
 0.266  1.137 -0.082 -0.252 -0.307 -0.239 -0.239
 0.268  1.140 -0.078 -0.251 -0.305 -0.238 -0.238
 0.270  1.143 -0.074 -0.248 -0.304 -0.237 -0.237
 0.272  1.147 -0.071 -0.246 -0.302 -0.236 -0.236
 0.274  1.150 -0.067 -0.243 -0.300 -0.235 -0.235
 0.276  1.153 -0.064 -0.242 -0.298 -0.233 -0.233
 0.278  1.156 -0.061 -0.239 -0.296 -0.232 -0.232
 0.280  1.160 -0.057 -0.237 -0.295 -0.231 -0.231
 0.282  1.163 -0.053 -0.234 -0.293 -0.229 -0.229
 0.284  1.165 -0.050 -0.233 -0.292 -0.228 -0.228
 0.286  1.168 -0.046 -0.230 -0.290 -0.227 -0.227
 0.288  1.172 -0.043 -0.228 -0.289 -0.226 -0.226
 0.290  1.175 -0.040 -0.226 -0.287 -0.224 -0.224
 0.292  1.178 -0.037 -0.224 -0.285 -0.223 -0.223
 0.294  1.182 -0.034 -0.222 -0.284 -0.222 -0.222
 0.296  1.184 -0.031 -0.220 -0.282 -0.221 -0.221
 0.298  1.187 -0.028 -0.217 -0.280 -0.220 -0.220
 0.300  1.190 -0.024 -0.215 -0.278 -0.219 -0.219
 0.302  1.194 -0.021 -0.213 -0.277 -0.218 -0.218
 0.304  1.196 -0.018 -0.211 -0.275 -0.216 -0.216
 0.306  1.199 -0.014 -0.209 -0.274 -0.215 -0.215
 0.308  1.202 -0.012 -0.206 -0.272 -0.214 -0.214
 0.310  1.206 -0.009 -0.205 -0.270 -0.213 -0.213
 0.312  1.208 -0.005 -0.202 -0.269 -0.212 -0.212
 0.314  1.211 -0.002 -0.201 -0.267 -0.211 -0.211
 0.316  1.214  0.001 -0.198 -0.265 -0.209 -0.209
 0.318  1.218  0.005 -0.196 -0.264 -0.208 -0.208
 0.320  1.220  0.007 -0.194 -0.262 -0.207 -0.207
 0.322  1.223  0.010 -0.192 -0.260 -0.205 -0.205
 0.324  1.226  0.013 -0.190 -0.258 -0.204 -0.204
 0.326  1.229  0.017 -0.187 -0.256 -0.203 -0.203
 0.328  1.232  0.020 -0.185 -0.255 -0.202 -0.202
 0.330  1.235  0.022 -0.183 -0.253 -0.200 -0.200
 0.332  1.238  0.025 -0.181 -0.251 -0.199 -0.199
 0.334  1.241  0.029 -0.179 -0.250 -0.198 -0.198
 0.336  1.244  0.032 -0.177 -0.248 -0.197 -0.197
 0.338  1.247  0.035 -0.174 -0.247 -0.195 -0.195
 0.340  1.249  0.038 -0.173 -0.245 -0.194 -0.194
 0.342  1.253  0.041 -0.170 -0.243 -0.192 -0.192
 0.344  1.255  0.044 -0.169 -0.242 -0.191 -0.191
 0.346  1.258  0.048 -0.166 -0.240 -0.190 -0.190
 0.348  1.261  0.050 -0.164 -0.238 -0.189 -0.189
 0.350  1.264  0.053 -0.162 -0.236 -0.187 -0.187
 0.352  1.267  0.056 -0.160 -0.234 -0.186 -0.186
 0.354  1.270  0.060 -0.158 -0.233 -0.184 -0.184
 0.356  1.272  0.062 -0.155 -0.231 -0.183 -0.183
 0.358  1.276  0.065 -0.153 -0.229 -0.181 -0.181
 0.360  1.278  0.069 -0.151 -0.227 -0.180 -0.180
 0.362  1.281  0.071 -0.149 -0.225 -0.178 -0.178
 0.364  1.284  0.074 -0.147 -0.224 -0.177 -0.177
 0.366  1.287  0.077 -0.145 -0.222 -0.176 -0.176
 0.368  1.290  0.081 -0.142 -0.220 -0.174 -0.174
 0.370  1.292  0.083 -0.141 -0.219 -0.172 -0.172
 0.372  1.295  0.086 -0.138 -0.217 -0.171 -0.171
 0.374  1.298  0.090 -0.136 -0.215 -0.170 -0.170
 0.376  1.301  0.092 -0.134 -0.213 -0.168 -0.168
 0.378  1.303  0.095 -0.132 -0.212 -0.166 -0.166
 0.380  1.306  0.098 -0.130 -0.210 -0.165 -0.165
 0.382  1.309  0.102 -0.127 -0.208 -0.164 -0.164
 0.384  1.312  0.104 -0.126 -0.206 -0.162 -0.162
 0.386  1.314  0.107 -0.123 -0.205 -0.160 -0.160
 0.388  1.317  0.111 -0.122 -0.203 -0.159 -0.159
 0.390  1.319  0.114 -0.119 -0.201 -0.158 -0.158
 0.392  1.323  0.116 -0.117 -0.200 -0.156 -0.156
 0.394  1.325  0.119 -0.115 -0.198 -0.154 -0.154
 0.396  1.328  0.123 -0.113 -0.196 -0.153 -0.153
 0.398  1.330  0.126 -0.111 -0.194 -0.152 -0.152
 0.400  1.334  0.128 -0.109 -0.192 -0.150 -0.150
 0.402  1.336  0.131 -0.107 -0.191 -0.149 -0.149
 0.404  1.339  0.135 -0.104 -0.189 -0.147 -0.147
 0.406  1.341  0.138 -0.103 -0.187 -0.146 -0.146
 0.408  1.344  0.141 -0.100 -0.185 -0.145 -0.145
 0.410  1.347  0.144 -0.099 -0.183 -0.143 -0.143
 0.412  1.349  0.147 -0.096 -0.182 -0.142 -0.142
 0.414  1.351  0.150 -0.095 -0.180 -0.140 -0.140
 0.416  1.354  0.154 -0.092 -0.178 -0.139 -0.139
 0.418  1.357  0.157 -0.090 -0.176 -0.138 -0.138
 0.420  1.360  0.159 -0.088 -0.174 -0.136 -0.136
 0.422  1.362  0.162 -0.086 -0.173 -0.135 -0.135
 0.424  1.364  0.166 -0.084 -0.171 -0.134 -0.134
 0.426  1.368  0.169 -0.082 -0.169 -0.132 -0.132
 0.428  1.370  0.172 -0.080 -0.167 -0.131 -0.131
 0.430  1.372  0.176 -0.078 -0.166 -0.129 -0.129
 0.432  1.374  0.178 -0.076 -0.164 -0.128 -0.128
 0.434  1.377  0.181 -0.074 -0.163 -0.127 -0.127
 0.436  1.380  0.184 -0.072 -0.161 -0.126 -0.126
 0.438  1.382  0.188 -0.070 -0.160 -0.124 -0.124
 0.440  1.384  0.191 -0.067 -0.158 -0.123 -0.123
 0.442  1.387  0.194 -0.066 -0.156 -0.122 -0.122
 0.444  1.389  0.197 -0.064 -0.155 -0.120 -0.120
 0.446  1.392  0.200 -0.062 -0.153 -0.119 -0.119
 0.448  1.394  0.203 -0.060 -0.152 -0.118 -0.118
 0.450  1.396  0.205 -0.058 -0.151 -0.116 -0.116
 0.452  1.398  0.209 -0.056 -0.149 -0.115 -0.115
 0.454  1.400  0.211 -0.054 -0.148 -0.114 -0.114
 0.456  1.403  0.213 -0.053 -0.146 -0.113 -0.113
 0.458  1.405  0.216 -0.050 -0.145 -0.112 -0.112
 0.460  1.407  0.219 -0.049 -0.143 -0.110 -0.110
 0.462  1.409  0.221 -0.047 -0.142 -0.109 -0.109
 0.464  1.411  0.223 -0.045 -0.141 -0.108 -0.108
 0.466  1.414  0.225 -0.044 -0.140 -0.107 -0.107
 0.468  1.416  0.228 -0.041 -0.138 -0.106 -0.106
 0.470  1.418  0.230 -0.039 -0.137 -0.104 -0.104
 0.472  1.420  0.232 -0.038 -0.136 -0.103 -0.103
 0.474  1.422  0.234 -0.036 -0.135 -0.102 -0.102
 0.476  1.425  0.236 -0.035 -0.134 -0.101 -0.101
 0.478  1.426  0.239 -0.033 -0.133 -0.100 -0.100
 0.480  1.428  0.240 -0.031 -0.131 -0.100 -0.100
 0.482  1.430  0.242 -0.030 -0.131 -0.099 -0.099
 0.484  1.432  0.244 -0.028 -0.129 -0.097 -0.097
 0.486  1.433  0.245 -0.026 -0.128 -0.096 -0.096
 0.488  1.435  0.247 -0.025 -0.127 -0.095 -0.095
 0.490  1.438  0.249 -0.023 -0.126 -0.094 -0.094
 0.492  1.439  0.250 -0.021 -0.125 -0.093 -0.093
 0.494  1.441  0.252 -0.020 -0.124 -0.093 -0.093
 0.496  1.443  0.253 -0.018 -0.123 -0.091 -0.091
 0.498  1.444  0.254 -0.016 -0.122 -0.090 -0.090
 0.500  1.446  0.255 -0.016 -0.121 -0.090 -0.090
 0.502  1.448  0.256 -0.014 -0.120 -0.089 -0.089
 0.504  1.450  0.257 -0.012 -0.119 -0.088 -0.088
 0.506  1.451  0.258 -0.011 -0.118 -0.087 -0.087
 0.508  1.453  0.260 -0.010 -0.117 -0.086 -0.086
 0.510  1.454  0.261 -0.008 -0.116 -0.086 -0.086
 0.512  1.456  0.262 -0.007 -0.115 -0.084 -0.084
 0.514  1.457  0.263 -0.006 -0.114 -0.084 -0.084
 0.516  1.458  0.263 -0.004 -0.113 -0.083 -0.083
 0.518  1.460  0.264 -0.003 -0.112 -0.082 -0.082
 0.520  1.462  0.265 -0.002 -0.111 -0.081 -0.081
 0.522  1.463  0.265 -0.000 -0.110 -0.081 -0.081
 0.524  1.464  0.266  0.001 -0.109 -0.080 -0.080
 0.526  1.465  0.267  0.002 -0.108 -0.079 -0.079
 0.528  1.466  0.268  0.003 -0.107 -0.078 -0.078
 0.530  1.467  0.268  0.004 -0.106 -0.077 -0.077
 0.532  1.468  0.269  0.006 -0.105 -0.076 -0.076
 0.534  1.469  0.269  0.007 -0.104 -0.076 -0.076
 0.536  1.470  0.271  0.007 -0.103 -0.075 -0.075
 0.538  1.472  0.272  0.008 -0.102 -0.074 -0.074
 0.540  1.473  0.272  0.010 -0.102 -0.073 -0.073
 0.542  1.474  0.273  0.011 -0.101 -0.072 -0.072
 0.544  1.475  0.274  0.011 -0.100 -0.071 -0.071
 0.546  1.476  0.274  0.012 -0.099 -0.071 -0.071
 0.548  1.477  0.275  0.013 -0.098 -0.070 -0.070
 0.550  1.477  0.275  0.014 -0.097 -0.069 -0.069
 0.552  1.478  0.276  0.015 -0.096 -0.069 -0.069
 0.554  1.479  0.276  0.016 -0.095 -0.068 -0.068
 0.556  1.479  0.277  0.016 -0.094 -0.067 -0.067
 0.558  1.480  0.277  0.017 -0.094 -0.066 -0.066
 0.560  1.480  0.278  0.018 -0.093 -0.065 -0.065
 0.562  1.481  0.278  0.019 -0.092 -0.064 -0.064
 0.564  1.481  0.279  0.019 -0.091 -0.064 -0.064
 0.566  1.483  0.279  0.020 -0.091 -0.063 -0.063
 0.568  1.483  0.279  0.021 -0.089 -0.062 -0.062
 0.570  1.484  0.281  0.021 -0.089 -0.061 -0.061
 0.572  1.484  0.281  0.021 -0.088 -0.061 -0.061
 0.574  1.484  0.282  0.022 -0.087 -0.059 -0.059
 0.576  1.485  0.282  0.023 -0.087 -0.059 -0.059
 0.578  1.485  0.282  0.023 -0.086 -0.058 -0.058
 0.580  1.485  0.283  0.024 -0.085 -0.057 -0.057
 0.582  1.485  0.283  0.024 -0.084 -0.056 -0.056
 0.584  1.486  0.283  0.025 -0.083 -0.056 -0.056
 0.586  1.486  0.284  0.025 -0.083 -0.055 -0.055
 0.588  1.486  0.284  0.025 -0.082 -0.054 -0.054
 0.590  1.486  0.284  0.025 -0.082 -0.054 -0.054
 0.592  1.486  0.284  0.026 -0.081 -0.052 -0.052
 0.594  1.487  0.285  0.026 -0.080 -0.052 -0.052
 0.596  1.487  0.285  0.026 -0.080 -0.051 -0.051
 0.598  1.487  0.285  0.027 -0.079 -0.050 -0.050
 0.600  1.487  0.285  0.027 -0.078 -0.050 -0.050
 0.602  1.487  0.286  0.027 -0.078 -0.049 -0.049
 0.604  1.487  0.286  0.028 -0.077 -0.048 -0.048
 0.606  1.487  0.286  0.028 -0.076 -0.048 -0.048
 0.608  1.487  0.286  0.028 -0.076 -0.046 -0.046
 0.610  1.487  0.286  0.028 -0.075 -0.046 -0.046
 0.612  1.487  0.287  0.029 -0.075 -0.045 -0.045
 0.614  1.487  0.287  0.029 -0.074 -0.045 -0.045
 0.616  1.487  0.287  0.029 -0.074 -0.044 -0.044
 0.618  1.487  0.287  0.029 -0.073 -0.043 -0.043
 0.620  1.487  0.287  0.029 -0.073 -0.043 -0.043
 0.622  1.487  0.287  0.029 -0.073 -0.042 -0.042
 0.624  1.487  0.287  0.029 -0.072 -0.042 -0.042
 0.626  1.486  0.288  0.030 -0.071 -0.041 -0.041
 0.628  1.486  0.288  0.030 -0.071 -0.040 -0.040
 0.630  1.486  0.288  0.030 -0.071 -0.040 -0.040
 0.632  1.486  0.288  0.030 -0.070 -0.039 -0.039
 0.634  1.486  0.288  0.030 -0.069 -0.039 -0.039
 0.636  1.485  0.288  0.029 -0.069 -0.038 -0.038
 0.638  1.485  0.288  0.029 -0.069 -0.038 -0.038
 0.640  1.485  0.288  0.029 -0.068 -0.038 -0.038
 0.642  1.485  0.288  0.029 -0.068 -0.037 -0.037
 0.644  1.484  0.288  0.029 -0.067 -0.037 -0.037
 0.646  1.484  0.288  0.029 -0.067 -0.036 -0.036
 0.648  1.484  0.288  0.029 -0.067 -0.036 -0.036
 0.650  1.483  0.288  0.029 -0.067 -0.036 -0.036
 0.652  1.483  0.288  0.028 -0.066 -0.035 -0.035
 0.654  1.483  0.288  0.028 -0.066 -0.035 -0.035
 0.656  1.483  0.288  0.028 -0.065 -0.035 -0.035
 0.658  1.481  0.288  0.028 -0.065 -0.034 -0.034
 0.660  1.481  0.288  0.028 -0.065 -0.033 -0.033
 0.662  1.481  0.287  0.027 -0.065 -0.033 -0.033
 0.664  1.480  0.287  0.027 -0.065 -0.033 -0.033
 0.666  1.480  0.287  0.027 -0.065 -0.032 -0.032
 0.668  1.480  0.287  0.027 -0.064 -0.032 -0.032
 0.670  1.479  0.287  0.026 -0.064 -0.031 -0.031
 0.672  1.479  0.286  0.026 -0.064 -0.031 -0.031
 0.674  1.479  0.286  0.026 -0.063 -0.030 -0.030
 0.676  1.478  0.286  0.025 -0.063 -0.030 -0.030
 0.678  1.478  0.285  0.025 -0.063 -0.029 -0.029
 0.680  1.478  0.285  0.025 -0.063 -0.029 -0.029
 0.682  1.478  0.284  0.025 -0.063 -0.028 -0.028
 0.684  1.477  0.284  0.025 -0.063 -0.027 -0.027
 0.686  1.477  0.284  0.025 -0.063 -0.026 -0.026
 0.688  1.477  0.283  0.024 -0.063 -0.026 -0.026
 0.690  1.476  0.283  0.024 -0.063 -0.025 -0.025
 0.692  1.476  0.282  0.024 -0.063 -0.024 -0.024
 0.694  1.476  0.282  0.023 -0.063 -0.024 -0.024
 0.696  1.475  0.281  0.023 -0.063 -0.023 -0.023
 0.698  1.475  0.279  0.022 -0.063 -0.022 -0.022
 0.700  1.475  0.279  0.022 -0.063 -0.021 -0.021
 0.702  1.474  0.278  0.022 -0.063 -0.020 -0.020
 0.704  1.474  0.277  0.021 -0.063 -0.019 -0.019
 0.706  1.474  0.277  0.021 -0.063 -0.018 -0.018
 0.708  1.474  0.276  0.021 -0.062 -0.017 -0.017
 0.710  1.473  0.275  0.021 -0.062 -0.016 -0.016
 0.712  1.473  0.274  0.020 -0.062 -0.015 -0.015
 0.714  1.473  0.273  0.020 -0.061 -0.014 -0.014
 0.716  1.472  0.273  0.019 -0.060 -0.013 -0.013
 0.718  1.472  0.272  0.019 -0.060 -0.012 -0.012
 0.720  1.472  0.271  0.019 -0.059 -0.011 -0.011
 0.722  1.472  0.269  0.018 -0.058 -0.009 -0.009
 0.724  1.470  0.268  0.018 -0.057 -0.008 -0.008
 0.726  1.470  0.267  0.018 -0.056 -0.007 -0.007
 0.728  1.470  0.266  0.018 -0.055 -0.005 -0.005
 0.730  1.470  0.266  0.018 -0.054 -0.004 -0.004
 0.732  1.469  0.265  0.018 -0.053 -0.003 -0.003
 0.734  1.469  0.264  0.018 -0.052 -0.001 -0.001
 0.736  1.469  0.264  0.018 -0.050  0.000  0.000
 0.738  1.469  0.264  0.019 -0.049  0.001  0.001
 0.740  1.468  0.263  0.019 -0.047  0.003  0.003
 0.742  1.468  0.263  0.020 -0.045  0.005  0.005
 0.744  1.468  0.263  0.021 -0.044  0.006  0.006
 0.746  1.468  0.263  0.021 -0.042  0.008  0.008
 0.748  1.468  0.263  0.021 -0.040  0.009  0.009
 0.750  1.468  0.263  0.022 -0.038  0.011  0.011
 0.752  1.467  0.264  0.023 -0.036  0.013  0.013
 0.754  1.467  0.264  0.024 -0.034  0.014  0.014
 0.756  1.467  0.264  0.025 -0.032  0.016  0.016
 0.758  1.467  0.265  0.026 -0.029  0.018  0.018
 0.760  1.467  0.265  0.027 -0.027  0.020  0.020
 0.762  1.467  0.266  0.028 -0.025  0.022  0.022
 0.764  1.467  0.267  0.030 -0.022  0.024  0.024
 0.766  1.467  0.268  0.030 -0.019  0.026  0.026
 0.768  1.467  0.269  0.032 -0.016  0.028  0.028
 0.770  1.467  0.271  0.034 -0.014  0.030  0.030
 0.772  1.467  0.272  0.035 -0.011  0.032  0.032
 0.774  1.467  0.274  0.037 -0.009  0.034  0.034
 0.776  1.466  0.275  0.039 -0.005  0.036  0.036
 0.778  1.466  0.277  0.040 -0.003  0.038  0.038
 0.780  1.466  0.278  0.042 -0.000  0.040  0.040
 0.782  1.466  0.281  0.044  0.002  0.042  0.042
 0.784  1.466  0.283  0.046  0.006  0.045  0.045
 0.786  1.466  0.285  0.048  0.008  0.047  0.047
 0.788  1.466  0.286  0.050  0.011  0.050  0.050
 0.790  1.467  0.288  0.052  0.013  0.052  0.052
 0.792  1.467  0.290  0.054  0.017  0.054  0.054
 0.794  1.468  0.293  0.056  0.019  0.057  0.057
 0.796  1.468  0.296  0.058  0.022  0.060  0.060
 0.798  1.469  0.298  0.061  0.024  0.062  0.062
 0.800  1.470  0.300  0.063  0.027  0.065  0.065
 0.802  1.472  0.303  0.065  0.029  0.067  0.067
 0.804  1.473  0.305  0.067  0.031  0.070  0.070
 0.806  1.474  0.307  0.070  0.034  0.071  0.071
 0.808  1.476  0.309  0.072  0.037  0.073  0.073
