# IsPeriodic    : True
# Period        : 0.554234 days
# Normalization : <g_mag>=0
# 
# Phase u_mag  g_mag  r_mag  i_mag  z_mag  y_mag
 0.000  0.390 -0.752 -0.639 -0.558 -0.500 -0.500
 0.002  0.390 -0.751 -0.639 -0.558 -0.500 -0.500
 0.004  0.391 -0.749 -0.638 -0.557 -0.500 -0.500
 0.006  0.392 -0.747 -0.637 -0.556 -0.499 -0.499
 0.008  0.393 -0.745 -0.635 -0.556 -0.499 -0.499
 0.010  0.395 -0.742 -0.635 -0.554 -0.497 -0.497
 0.012  0.397 -0.738 -0.633 -0.553 -0.496 -0.496
 0.014  0.399 -0.735 -0.631 -0.551 -0.495 -0.495
 0.016  0.403 -0.731 -0.629 -0.549 -0.493 -0.493
 0.018  0.405 -0.727 -0.627 -0.547 -0.492 -0.492
 0.020  0.408 -0.722 -0.625 -0.545 -0.490 -0.490
 0.022  0.411 -0.718 -0.623 -0.543 -0.489 -0.489
 0.024  0.416 -0.712 -0.621 -0.541 -0.487 -0.487
 0.026  0.419 -0.708 -0.618 -0.539 -0.485 -0.485
 0.028  0.422 -0.703 -0.615 -0.537 -0.483 -0.483
 0.030  0.427 -0.699 -0.612 -0.534 -0.481 -0.481
 0.032  0.431 -0.693 -0.610 -0.532 -0.479 -0.479
 0.034  0.435 -0.688 -0.607 -0.530 -0.478 -0.478
 0.036  0.440 -0.684 -0.604 -0.527 -0.476 -0.476
 0.038  0.445 -0.678 -0.601 -0.525 -0.474 -0.474
 0.040  0.449 -0.674 -0.597 -0.522 -0.472 -0.472
 0.042  0.455 -0.668 -0.594 -0.520 -0.469 -0.469
 0.044  0.460 -0.663 -0.591 -0.517 -0.467 -0.467
 0.046  0.466 -0.657 -0.587 -0.514 -0.465 -0.465
 0.048  0.471 -0.651 -0.584 -0.511 -0.463 -0.463
 0.050  0.478 -0.646 -0.580 -0.509 -0.461 -0.461
 0.052  0.484 -0.639 -0.576 -0.505 -0.458 -0.458
 0.054  0.491 -0.633 -0.572 -0.502 -0.455 -0.455
 0.056  0.497 -0.626 -0.567 -0.499 -0.453 -0.453
 0.058  0.504 -0.620 -0.563 -0.496 -0.450 -0.450
 0.060  0.511 -0.613 -0.558 -0.492 -0.447 -0.447
 0.062  0.518 -0.606 -0.554 -0.489 -0.444 -0.444
 0.064  0.526 -0.599 -0.549 -0.485 -0.441 -0.441
 0.066  0.533 -0.593 -0.544 -0.482 -0.439 -0.439
 0.068  0.542 -0.585 -0.539 -0.478 -0.436 -0.436
 0.070  0.550 -0.578 -0.534 -0.475 -0.433 -0.433
 0.072  0.558 -0.571 -0.529 -0.471 -0.429 -0.429
 0.074  0.566 -0.563 -0.524 -0.467 -0.426 -0.426
 0.076  0.575 -0.555 -0.519 -0.463 -0.423 -0.423
 0.078  0.582 -0.548 -0.514 -0.459 -0.420 -0.420
 0.080  0.591 -0.541 -0.508 -0.456 -0.417 -0.417
 0.082  0.600 -0.534 -0.503 -0.451 -0.414 -0.414
 0.084  0.607 -0.526 -0.498 -0.448 -0.411 -0.411
 0.086  0.615 -0.518 -0.494 -0.444 -0.408 -0.408
 0.088  0.623 -0.511 -0.489 -0.441 -0.405 -0.405
 0.090  0.630 -0.504 -0.484 -0.437 -0.402 -0.402
 0.092  0.638 -0.497 -0.479 -0.434 -0.399 -0.399
 0.094  0.645 -0.490 -0.475 -0.430 -0.396 -0.396
 0.096  0.652 -0.483 -0.470 -0.427 -0.393 -0.393
 0.098  0.660 -0.476 -0.466 -0.424 -0.390 -0.390
 0.100  0.666 -0.469 -0.462 -0.421 -0.388 -0.388
 0.102  0.673 -0.463 -0.458 -0.417 -0.385 -0.385
 0.104  0.679 -0.457 -0.454 -0.415 -0.383 -0.383
 0.106  0.686 -0.450 -0.450 -0.411 -0.380 -0.380
 0.108  0.692 -0.443 -0.445 -0.409 -0.377 -0.377
 0.110  0.698 -0.438 -0.441 -0.406 -0.374 -0.374
 0.112  0.704 -0.431 -0.437 -0.402 -0.372 -0.372
 0.114  0.710 -0.425 -0.433 -0.400 -0.370 -0.370
 0.116  0.716 -0.420 -0.430 -0.397 -0.367 -0.367
 0.118  0.722 -0.413 -0.425 -0.395 -0.365 -0.365
 0.120  0.727 -0.407 -0.422 -0.392 -0.363 -0.363
 0.122  0.732 -0.402 -0.419 -0.390 -0.360 -0.360
 0.124  0.738 -0.396 -0.415 -0.387 -0.358 -0.358
 0.126  0.743 -0.390 -0.411 -0.385 -0.356 -0.356
 0.128  0.748 -0.386 -0.408 -0.383 -0.354 -0.354
 0.130  0.753 -0.380 -0.405 -0.381 -0.352 -0.352
 0.132  0.757 -0.375 -0.402 -0.379 -0.349 -0.349
 0.134  0.762 -0.370 -0.399 -0.377 -0.348 -0.348
 0.136  0.766 -0.364 -0.396 -0.375 -0.346 -0.346
 0.138  0.771 -0.360 -0.393 -0.373 -0.344 -0.344
 0.140  0.775 -0.355 -0.390 -0.370 -0.342 -0.342
 0.142  0.779 -0.351 -0.387 -0.368 -0.340 -0.340
 0.144  0.783 -0.345 -0.385 -0.367 -0.338 -0.338
 0.146  0.787 -0.341 -0.381 -0.365 -0.337 -0.337
 0.148  0.791 -0.336 -0.379 -0.363 -0.335 -0.335
 0.150  0.794 -0.332 -0.376 -0.362 -0.333 -0.333
 0.152  0.799 -0.327 -0.373 -0.360 -0.331 -0.331
 0.154  0.802 -0.323 -0.371 -0.358 -0.330 -0.330
 0.156  0.806 -0.319 -0.368 -0.357 -0.328 -0.328
 0.158  0.810 -0.315 -0.366 -0.355 -0.326 -0.326
 0.160  0.814 -0.310 -0.362 -0.353 -0.324 -0.324
 0.162  0.817 -0.306 -0.360 -0.351 -0.323 -0.323
 0.164  0.822 -0.301 -0.357 -0.350 -0.321 -0.321
 0.166  0.825 -0.297 -0.355 -0.348 -0.319 -0.319
 0.168  0.829 -0.292 -0.352 -0.347 -0.317 -0.317
 0.170  0.834 -0.288 -0.349 -0.345 -0.316 -0.316
 0.172  0.837 -0.284 -0.347 -0.343 -0.314 -0.314
 0.174  0.841 -0.280 -0.344 -0.341 -0.312 -0.312
 0.176  0.846 -0.275 -0.341 -0.340 -0.310 -0.310
 0.178  0.849 -0.271 -0.338 -0.338 -0.309 -0.309
 0.180  0.853 -0.266 -0.336 -0.336 -0.307 -0.307
 0.182  0.858 -0.262 -0.333 -0.334 -0.305 -0.305
 0.184  0.861 -0.257 -0.330 -0.332 -0.303 -0.303
 0.186  0.865 -0.253 -0.328 -0.330 -0.302 -0.302
 0.188  0.870 -0.248 -0.324 -0.329 -0.300 -0.300
 0.190  0.874 -0.244 -0.322 -0.327 -0.298 -0.298
 0.192  0.877 -0.239 -0.319 -0.326 -0.297 -0.297
 0.194  0.882 -0.235 -0.316 -0.324 -0.295 -0.295
 0.196  0.886 -0.230 -0.313 -0.321 -0.293 -0.293
 0.198  0.890 -0.227 -0.310 -0.319 -0.292 -0.292
 0.200  0.894 -0.222 -0.308 -0.318 -0.290 -0.290
 0.202  0.898 -0.218 -0.305 -0.316 -0.288 -0.288
 0.204  0.902 -0.213 -0.302 -0.314 -0.286 -0.286
 0.206  0.907 -0.209 -0.299 -0.313 -0.285 -0.285
 0.208  0.911 -0.204 -0.297 -0.311 -0.283 -0.283
 0.210  0.914 -0.200 -0.293 -0.309 -0.281 -0.281
 0.212  0.919 -0.195 -0.291 -0.306 -0.279 -0.279
 0.214  0.923 -0.191 -0.288 -0.304 -0.278 -0.278
 0.216  0.927 -0.186 -0.285 -0.303 -0.276 -0.276
 0.218  0.932 -0.182 -0.283 -0.301 -0.274 -0.274
 0.220  0.936 -0.177 -0.279 -0.299 -0.272 -0.272
 0.222  0.940 -0.174 -0.277 -0.297 -0.271 -0.271
 0.224  0.944 -0.169 -0.274 -0.295 -0.269 -0.269
 0.226  0.948 -0.165 -0.271 -0.294 -0.267 -0.267
 0.228  0.952 -0.160 -0.269 -0.292 -0.266 -0.266
 0.230  0.957 -0.156 -0.266 -0.289 -0.264 -0.264
 0.232  0.960 -0.152 -0.263 -0.287 -0.262 -0.262
 0.234  0.964 -0.148 -0.260 -0.285 -0.261 -0.261
 0.236  0.968 -0.143 -0.258 -0.284 -0.259 -0.259
 0.238  0.972 -0.139 -0.255 -0.282 -0.257 -0.257
 0.240  0.976 -0.135 -0.253 -0.280 -0.256 -0.256
 0.242  0.980 -0.131 -0.250 -0.279 -0.254 -0.254
 0.244  0.984 -0.127 -0.247 -0.277 -0.253 -0.253
 0.246  0.987 -0.123 -0.245 -0.275 -0.251 -0.251
 0.248  0.990 -0.119 -0.242 -0.273 -0.250 -0.250
 0.250  0.995 -0.115 -0.240 -0.271 -0.248 -0.248
 0.252  0.998 -0.111 -0.237 -0.269 -0.246 -0.246
 0.254  1.002 -0.107 -0.235 -0.268 -0.245 -0.245
 0.256  1.006 -0.104 -0.232 -0.266 -0.243 -0.243
 0.258  1.009 -0.100 -0.230 -0.264 -0.241 -0.241
 0.260  1.012 -0.096 -0.227 -0.262 -0.240 -0.240
 0.262  1.017 -0.092 -0.225 -0.261 -0.239 -0.239
 0.264  1.020 -0.089 -0.222 -0.259 -0.237 -0.237
 0.266  1.023 -0.086 -0.220 -0.257 -0.236 -0.236
 0.268  1.026 -0.082 -0.218 -0.255 -0.234 -0.234
 0.270  1.030 -0.078 -0.215 -0.254 -0.233 -0.233
 0.272  1.033 -0.074 -0.213 -0.252 -0.232 -0.232
 0.274  1.036 -0.071 -0.211 -0.251 -0.230 -0.230
 0.276  1.039 -0.067 -0.209 -0.249 -0.229 -0.229
 0.278  1.043 -0.064 -0.206 -0.247 -0.227 -0.227
 0.280  1.046 -0.061 -0.204 -0.245 -0.226 -0.226
 0.282  1.049 -0.057 -0.201 -0.244 -0.224 -0.224
 0.284  1.052 -0.054 -0.200 -0.242 -0.223 -0.223
 0.286  1.056 -0.051 -0.197 -0.240 -0.222 -0.222
 0.288  1.059 -0.048 -0.195 -0.239 -0.220 -0.220
 0.290  1.062 -0.045 -0.193 -0.237 -0.219 -0.219
 0.292  1.064 -0.041 -0.191 -0.236 -0.217 -0.217
 0.294  1.068 -0.038 -0.189 -0.234 -0.216 -0.216
 0.296  1.071 -0.035 -0.186 -0.232 -0.215 -0.215
 0.298  1.074 -0.032 -0.184 -0.231 -0.213 -0.213
 0.300  1.077 -0.029 -0.182 -0.229 -0.212 -0.212
 0.302  1.080 -0.026 -0.180 -0.228 -0.211 -0.211
 0.304  1.083 -0.022 -0.178 -0.226 -0.209 -0.209
 0.306  1.086 -0.019 -0.176 -0.224 -0.208 -0.208
 0.308  1.089 -0.016 -0.173 -0.223 -0.206 -0.206
 0.310  1.093 -0.013 -0.171 -0.221 -0.205 -0.205
 0.312  1.095 -0.010 -0.169 -0.219 -0.204 -0.204
 0.314  1.098 -0.006 -0.167 -0.218 -0.202 -0.202
 0.316  1.101 -0.003 -0.165 -0.216 -0.201 -0.201
 0.318  1.105  0.000 -0.162 -0.215 -0.199 -0.199
 0.320  1.108  0.004 -0.161 -0.213 -0.198 -0.198
 0.322  1.110  0.007 -0.158 -0.211 -0.197 -0.197
 0.324  1.113  0.010 -0.157 -0.209 -0.195 -0.195
 0.326  1.117  0.014 -0.154 -0.208 -0.194 -0.194
 0.328  1.120  0.017 -0.152 -0.206 -0.192 -0.192
 0.330  1.122  0.021 -0.150 -0.204 -0.191 -0.191
 0.332  1.125  0.023 -0.147 -0.202 -0.190 -0.190
 0.334  1.129  0.026 -0.146 -0.201 -0.189 -0.189
 0.336  1.132  0.030 -0.143 -0.199 -0.187 -0.187
 0.338  1.134  0.033 -0.141 -0.198 -0.186 -0.186
 0.340  1.137  0.036 -0.139 -0.196 -0.185 -0.185
 0.342  1.141  0.040 -0.137 -0.194 -0.183 -0.183
 0.344  1.144  0.043 -0.135 -0.192 -0.182 -0.182
 0.346  1.147  0.047 -0.132 -0.190 -0.181 -0.181
 0.348  1.149  0.050 -0.130 -0.189 -0.179 -0.179
 0.350  1.153  0.053 -0.128 -0.187 -0.178 -0.178
 0.352  1.156  0.057 -0.126 -0.185 -0.177 -0.177
 0.354  1.159  0.060 -0.124 -0.183 -0.175 -0.175
 0.356  1.161  0.065 -0.122 -0.182 -0.174 -0.174
 0.358  1.165  0.068 -0.119 -0.180 -0.173 -0.173
 0.360  1.168  0.071 -0.118 -0.178 -0.171 -0.171
 0.362  1.170  0.075 -0.115 -0.177 -0.170 -0.170
 0.364  1.173  0.078 -0.113 -0.174 -0.169 -0.169
 0.366  1.177  0.082 -0.111 -0.173 -0.167 -0.167
 0.368  1.180  0.085 -0.108 -0.171 -0.166 -0.166
 0.370  1.182  0.088 -0.107 -0.169 -0.164 -0.164
 0.372  1.185  0.092 -0.104 -0.168 -0.163 -0.163
 0.374  1.189  0.095 -0.103 -0.166 -0.162 -0.162
 0.376  1.191  0.099 -0.100 -0.164 -0.160 -0.160
 0.378  1.194  0.102 -0.098 -0.162 -0.159 -0.159
 0.380  1.197  0.105 -0.096 -0.161 -0.157 -0.157
 0.382  1.199  0.109 -0.093 -0.159 -0.156 -0.156
 0.384  1.203  0.112 -0.092 -0.157 -0.155 -0.155
 0.386  1.205  0.115 -0.089 -0.155 -0.153 -0.153
 0.388  1.208  0.119 -0.088 -0.154 -0.152 -0.152
 0.390  1.211  0.122 -0.085 -0.152 -0.150 -0.150
 0.392  1.214  0.124 -0.083 -0.151 -0.149 -0.149
 0.394  1.217  0.128 -0.081 -0.149 -0.148 -0.148
 0.396  1.219  0.131 -0.079 -0.147 -0.146 -0.146
 0.398  1.222  0.135 -0.077 -0.145 -0.145 -0.145
 0.400  1.224  0.138 -0.074 -0.144 -0.143 -0.143
 0.402  1.228  0.141 -0.073 -0.142 -0.142 -0.142
 0.404  1.230  0.144 -0.070 -0.140 -0.140 -0.140
 0.406  1.233  0.147 -0.069 -0.139 -0.139 -0.139
 0.408  1.235  0.150 -0.066 -0.138 -0.137 -0.137
 0.410  1.239  0.154 -0.064 -0.136 -0.135 -0.135
 0.412  1.241  0.156 -0.062 -0.134 -0.134 -0.134
 0.414  1.244  0.159 -0.060 -0.132 -0.132 -0.132
 0.416  1.246  0.163 -0.058 -0.131 -0.131 -0.131
 0.418  1.249  0.165 -0.056 -0.130 -0.129 -0.129
 0.420  1.252  0.169 -0.054 -0.128 -0.128 -0.128
 0.422  1.255  0.172 -0.052 -0.126 -0.127 -0.127
 0.424  1.257  0.174 -0.049 -0.125 -0.125 -0.125
 0.426  1.259  0.178 -0.048 -0.123 -0.123 -0.123
 0.428  1.263  0.181 -0.045 -0.121 -0.122 -0.122
 0.430  1.265  0.183 -0.044 -0.120 -0.120 -0.120
 0.432  1.267  0.187 -0.041 -0.119 -0.118 -0.118
 0.434  1.270  0.189 -0.040 -0.117 -0.117 -0.117
 0.436  1.272  0.192 -0.037 -0.116 -0.116 -0.116
 0.438  1.275  0.194 -0.035 -0.114 -0.114 -0.114
 0.440  1.278  0.198 -0.033 -0.113 -0.113 -0.113
 0.442  1.280  0.200 -0.031 -0.111 -0.111 -0.111
 0.444  1.282  0.204 -0.030 -0.110 -0.109 -0.109
 0.446  1.284  0.206 -0.027 -0.108 -0.108 -0.108
 0.448  1.286  0.208 -0.025 -0.106 -0.106 -0.106
 0.450  1.290  0.211 -0.023 -0.105 -0.105 -0.105
 0.452  1.292  0.214 -0.021 -0.104 -0.103 -0.103
 0.454  1.294  0.216 -0.020 -0.102 -0.102 -0.102
 0.456  1.296  0.218 -0.018 -0.100 -0.100 -0.100
 0.458  1.298  0.220 -0.015 -0.099 -0.099 -0.099
 0.460  1.301  0.223 -0.014 -0.098 -0.097 -0.097
 0.462  1.303  0.225 -0.012 -0.096 -0.096 -0.096
 0.464  1.305  0.227 -0.010 -0.094 -0.095 -0.095
 0.466  1.307  0.229 -0.009 -0.093 -0.093 -0.093
 0.468  1.309  0.232 -0.006 -0.091 -0.092 -0.092
 0.470  1.312  0.234 -0.005 -0.090 -0.091 -0.091
 0.472  1.314  0.236 -0.003 -0.088 -0.089 -0.089
 0.474  1.316  0.239 -0.001 -0.087 -0.088 -0.088
 0.476  1.317  0.240  0.000 -0.085 -0.087 -0.087
 0.478  1.319  0.242  0.002 -0.084 -0.086 -0.086
 0.480  1.321  0.244  0.004 -0.082 -0.084 -0.084
 0.482  1.323  0.245  0.005 -0.081 -0.083 -0.083
 0.484  1.325  0.248  0.007 -0.079 -0.082 -0.082
 0.486  1.327  0.249  0.009 -0.078 -0.081 -0.081
 0.488  1.329  0.251  0.010 -0.076 -0.079 -0.079
 0.490  1.331  0.252  0.012 -0.074 -0.078 -0.078
 0.492  1.332  0.254  0.014 -0.073 -0.077 -0.077
 0.494  1.334  0.255  0.015 -0.072 -0.076 -0.076
 0.496  1.337  0.257  0.017 -0.070 -0.075 -0.075
 0.498  1.338  0.258  0.019 -0.068 -0.074 -0.074
 0.500  1.340  0.260  0.019 -0.067 -0.072 -0.072
 0.502  1.341  0.261  0.021 -0.065 -0.071 -0.071
 0.504  1.343  0.262  0.023 -0.064 -0.070 -0.070
 0.506  1.344  0.263  0.024 -0.062 -0.069 -0.069
 0.508  1.346  0.265  0.025 -0.061 -0.068 -0.068
 0.510  1.347  0.266  0.027 -0.059 -0.067 -0.067
 0.512  1.349  0.267  0.029 -0.058 -0.066 -0.066
 0.514  1.351  0.268  0.029 -0.057 -0.065 -0.065
 0.516  1.352  0.269  0.031 -0.055 -0.064 -0.064
 0.518  1.353  0.270  0.033 -0.054 -0.062 -0.062
 0.520  1.354  0.271  0.034 -0.053 -0.062 -0.062
 0.522  1.355  0.272  0.035 -0.051 -0.061 -0.061
 0.524  1.356  0.274  0.036 -0.050 -0.060 -0.060
 0.526  1.357  0.274  0.038 -0.049 -0.059 -0.059
 0.528  1.358  0.275  0.038 -0.048 -0.058 -0.058
 0.530  1.359  0.276  0.039 -0.047 -0.057 -0.057
 0.532  1.360  0.276  0.041 -0.045 -0.056 -0.056
 0.534  1.362  0.277  0.042 -0.044 -0.055 -0.055
 0.536  1.363  0.278  0.043 -0.043 -0.054 -0.054
 0.538  1.364  0.278  0.043 -0.042 -0.053 -0.053
 0.540  1.364  0.279  0.045 -0.042 -0.053 -0.053
 0.542  1.365  0.279  0.046 -0.040 -0.051 -0.051
 0.544  1.366  0.280  0.047 -0.040 -0.051 -0.051
 0.546  1.366  0.280  0.048 -0.039 -0.050 -0.050
 0.548  1.367  0.281  0.048 -0.038 -0.049 -0.049
 0.550  1.367  0.281  0.049 -0.037 -0.048 -0.048
 0.552  1.368  0.283  0.050 -0.036 -0.047 -0.047
 0.554  1.368  0.283  0.051 -0.036 -0.047 -0.047
 0.556  1.369  0.283  0.052 -0.035 -0.046 -0.046
 0.558  1.369  0.284  0.053 -0.034 -0.046 -0.046
 0.560  1.369  0.284  0.053 -0.034 -0.044 -0.044
 0.562  1.370  0.284  0.054 -0.034 -0.044 -0.044
 0.564  1.370  0.284  0.054 -0.033 -0.043 -0.043
 0.566  1.370  0.284  0.055 -0.032 -0.043 -0.043
 0.568  1.370  0.284  0.056 -0.032 -0.042 -0.042
 0.570  1.370  0.285  0.057 -0.032 -0.041 -0.041
 0.572  1.370  0.285  0.057 -0.031 -0.040 -0.040
 0.574  1.370  0.285  0.058 -0.031 -0.040 -0.040
 0.576  1.370  0.285  0.058 -0.030 -0.039 -0.039
 0.578  1.370  0.285  0.058 -0.030 -0.039 -0.039
 0.580  1.370  0.285  0.059 -0.030 -0.038 -0.038
 0.582  1.370  0.285  0.059 -0.030 -0.037 -0.037
 0.584  1.370  0.285  0.060 -0.029 -0.037 -0.037
 0.586  1.370  0.285  0.060 -0.029 -0.036 -0.036
 0.588  1.370  0.285  0.061 -0.029 -0.036 -0.036
 0.590  1.370  0.285  0.061 -0.028 -0.035 -0.035
 0.592  1.370  0.285  0.062 -0.028 -0.034 -0.034
 0.594  1.370  0.285  0.062 -0.027 -0.034 -0.034
 0.596  1.370  0.285  0.062 -0.027 -0.034 -0.034
 0.598  1.370  0.285  0.063 -0.027 -0.033 -0.033
 0.600  1.370  0.285  0.063 -0.027 -0.033 -0.033
 0.602  1.370  0.285  0.063 -0.027 -0.032 -0.032
 0.604  1.370  0.285  0.063 -0.026 -0.032 -0.032
 0.606  1.370  0.285  0.063 -0.026 -0.031 -0.031
 0.608  1.370  0.285  0.063 -0.025 -0.031 -0.031
 0.610  1.370  0.285  0.063 -0.025 -0.030 -0.030
 0.612  1.370  0.286  0.064 -0.025 -0.030 -0.030
 0.614  1.369  0.286  0.064 -0.025 -0.029 -0.029
 0.616  1.369  0.286  0.064 -0.025 -0.029 -0.029
 0.618  1.369  0.286  0.064 -0.024 -0.029 -0.029
 0.620  1.369  0.286  0.064 -0.024 -0.028 -0.028
 0.622  1.369  0.286  0.064 -0.023 -0.027 -0.027
 0.624  1.369  0.286  0.064 -0.023 -0.027 -0.027
 0.626  1.369  0.287  0.065 -0.023 -0.027 -0.027
 0.628  1.369  0.287  0.065 -0.023 -0.027 -0.027
 0.630  1.369  0.287  0.065 -0.023 -0.026 -0.026
 0.632  1.369  0.287  0.065 -0.023 -0.026 -0.026
 0.634  1.369  0.288  0.065 -0.022 -0.026 -0.026
 0.636  1.369  0.288  0.064 -0.022 -0.025 -0.025
 0.638  1.369  0.288  0.064 -0.021 -0.025 -0.025
 0.640  1.369  0.288  0.064 -0.021 -0.025 -0.025
 0.642  1.369  0.289  0.064 -0.021 -0.025 -0.025
 0.644  1.369  0.289  0.064 -0.021 -0.024 -0.024
 0.646  1.369  0.289  0.064 -0.021 -0.024 -0.024
 0.648  1.368  0.290  0.064 -0.021 -0.023 -0.023
 0.650  1.368  0.290  0.064 -0.020 -0.023 -0.023
 0.652  1.368  0.290  0.063 -0.020 -0.023 -0.023
 0.654  1.368  0.290  0.063 -0.020 -0.023 -0.023
 0.656  1.368  0.292  0.063 -0.020 -0.023 -0.023
 0.658  1.368  0.292  0.063 -0.019 -0.022 -0.022
 0.660  1.368  0.292  0.063 -0.019 -0.022 -0.022
 0.662  1.368  0.292  0.063 -0.019 -0.022 -0.022
 0.664  1.367  0.292  0.063 -0.019 -0.022 -0.022
 0.666  1.367  0.292  0.063 -0.019 -0.021 -0.021
 0.668  1.367  0.292  0.063 -0.019 -0.021 -0.021
 0.670  1.367  0.292  0.062 -0.019 -0.021 -0.021
 0.672  1.367  0.292  0.062 -0.019 -0.020 -0.020
 0.674  1.366  0.292  0.062 -0.019 -0.020 -0.020
 0.676  1.366  0.292  0.061 -0.019 -0.020 -0.020
 0.678  1.366  0.290  0.061 -0.019 -0.020 -0.020
 0.680  1.366  0.290  0.061 -0.019 -0.019 -0.019
 0.682  1.365  0.290  0.060 -0.019 -0.019 -0.019
 0.684  1.365  0.290  0.060 -0.019 -0.019 -0.019
 0.686  1.365  0.289  0.060 -0.019 -0.019 -0.019
 0.688  1.365  0.289  0.059 -0.019 -0.019 -0.019
 0.690  1.364  0.288  0.059 -0.019 -0.018 -0.018
 0.692  1.364  0.288  0.059 -0.019 -0.018 -0.018
 0.694  1.364  0.287  0.058 -0.019 -0.018 -0.018
 0.696  1.363  0.287  0.058 -0.019 -0.018 -0.018
 0.698  1.363  0.286  0.058 -0.019 -0.017 -0.017
 0.700  1.362  0.286  0.058 -0.019 -0.017 -0.017
 0.702  1.362  0.285  0.058 -0.019 -0.017 -0.017
 0.704  1.362  0.284  0.057 -0.019 -0.016 -0.016
 0.706  1.360  0.284  0.057 -0.020 -0.016 -0.016
 0.708  1.360  0.283  0.056 -0.020 -0.016 -0.016
 0.710  1.359  0.281  0.056 -0.020 -0.016 -0.016
 0.712  1.359  0.280  0.055 -0.021 -0.015 -0.015
 0.714  1.358  0.279  0.055 -0.021 -0.015 -0.015
 0.716  1.358  0.279  0.054 -0.021 -0.015 -0.015
 0.718  1.358  0.278  0.054 -0.021 -0.015 -0.015
 0.720  1.357  0.277  0.054 -0.021 -0.015 -0.015
 0.722  1.357  0.276  0.053 -0.021 -0.014 -0.014
 0.724  1.356  0.275  0.053 -0.021 -0.014 -0.014
 0.726  1.356  0.274  0.053 -0.021 -0.013 -0.013
 0.728  1.356  0.274  0.053 -0.021 -0.013 -0.013
 0.730  1.356  0.272  0.053 -0.021 -0.013 -0.013
 0.732  1.356  0.272  0.053 -0.021 -0.012 -0.012
 0.734  1.356  0.271  0.053 -0.021 -0.012 -0.012
 0.736  1.356  0.271  0.053 -0.021 -0.011 -0.011
 0.738  1.356  0.271  0.054 -0.020 -0.011 -0.011
 0.740  1.356  0.271  0.054 -0.020 -0.010 -0.010
 0.742  1.356  0.271  0.055 -0.019 -0.009 -0.009
 0.744  1.356  0.271  0.056 -0.019 -0.008 -0.008
 0.746  1.356  0.272  0.056 -0.018 -0.008 -0.008
 0.748  1.357  0.272  0.057 -0.017 -0.007 -0.007
 0.750  1.357  0.274  0.058 -0.016 -0.006 -0.006
 0.752  1.357  0.274  0.058 -0.015 -0.005 -0.005
 0.754  1.358  0.275  0.059 -0.014 -0.004 -0.004
 0.756  1.358  0.276  0.060 -0.013 -0.004 -0.004
 0.758  1.359  0.276  0.062 -0.012 -0.002 -0.002
 0.760  1.359  0.277  0.063 -0.011 -0.002 -0.002
 0.762  1.360  0.278  0.063 -0.010 -0.001 -0.001
 0.764  1.362  0.280  0.065 -0.008  0.001  0.001
 0.766  1.363  0.281  0.066 -0.007  0.002  0.002
 0.768  1.363  0.283  0.068 -0.005  0.003  0.003
 0.770  1.364  0.285  0.069 -0.004  0.004  0.004
 0.772  1.365  0.287  0.071 -0.002  0.005  0.005
 0.774  1.366  0.288  0.073 -0.000  0.006  0.006
 0.776  1.367  0.290  0.074  0.002  0.008  0.008
 0.778  1.368  0.293  0.076  0.004  0.009  0.009
 0.780  1.369  0.295  0.077  0.006  0.010  0.010
 0.782  1.370  0.298  0.079  0.008  0.012  0.012
 0.784  1.372  0.301  0.082  0.010  0.013  0.013
 0.786  1.374  0.303  0.083  0.012  0.015  0.015
 0.788  1.375  0.306  0.086  0.014  0.016  0.016
 0.790  1.377  0.309  0.087  0.017  0.018  0.018
 0.792  1.378  0.311  0.090  0.019  0.019  0.019
 0.794  1.379  0.314  0.092  0.021  0.021  0.021
 0.796  1.381  0.316  0.094  0.024  0.023  0.023
 0.798  1.383  0.320  0.097  0.026  0.024  0.024
 0.800  1.384  0.322  0.099  0.028  0.026  0.026
 0.802  1.387  0.324  0.101  0.031  0.027  0.027
 0.804  1.389  0.328  0.103  0.033  0.029  0.029
 0.806  1.391  0.330  0.106  0.036  0.030  0.030
 0.808  1.393  0.332  0.108  0.039  0.032  0.032
