# IsPeriodic    : True
# Period        : 0.471168 days
# Normalization : <g_mag>=0
# 
# Phase u_mag  g_mag  r_mag  i_mag  z_mag  y_mag
 0.000  0.165 -1.023 -0.796 -0.671 -0.507 -0.507
 0.002  0.165 -1.021 -0.796 -0.671 -0.506 -0.506
 0.004  0.166 -1.020 -0.796 -0.670 -0.505 -0.505
 0.006  0.170 -1.017 -0.795 -0.668 -0.504 -0.504
 0.008  0.173 -1.014 -0.794 -0.666 -0.501 -0.501
 0.010  0.177 -1.009 -0.792 -0.664 -0.498 -0.498
 0.012  0.183 -1.003 -0.790 -0.660 -0.495 -0.495
 0.014  0.190 -0.996 -0.787 -0.656 -0.491 -0.491
 0.016  0.196 -0.988 -0.785 -0.653 -0.487 -0.487
 0.018  0.203 -0.981 -0.783 -0.648 -0.484 -0.484
 0.020  0.211 -0.973 -0.779 -0.644 -0.479 -0.479
 0.022  0.219 -0.966 -0.777 -0.639 -0.475 -0.475
 0.024  0.227 -0.957 -0.774 -0.635 -0.471 -0.471
 0.026  0.234 -0.949 -0.770 -0.630 -0.467 -0.467
 0.028  0.242 -0.940 -0.767 -0.625 -0.463 -0.463
 0.030  0.250 -0.933 -0.764 -0.621 -0.459 -0.459
 0.032  0.257 -0.925 -0.759 -0.617 -0.456 -0.456
 0.034  0.264 -0.918 -0.756 -0.613 -0.452 -0.452
 0.036  0.271 -0.910 -0.751 -0.609 -0.448 -0.448
 0.038  0.277 -0.902 -0.747 -0.605 -0.445 -0.445
 0.040  0.285 -0.895 -0.743 -0.601 -0.441 -0.441
 0.042  0.293 -0.887 -0.738 -0.596 -0.438 -0.438
 0.044  0.299 -0.880 -0.733 -0.592 -0.435 -0.435
 0.046  0.307 -0.872 -0.729 -0.588 -0.431 -0.431
 0.048  0.314 -0.865 -0.723 -0.584 -0.427 -0.427
 0.050  0.322 -0.856 -0.717 -0.579 -0.424 -0.424
 0.052  0.330 -0.848 -0.712 -0.575 -0.421 -0.421
 0.054  0.338 -0.839 -0.706 -0.570 -0.418 -0.418
 0.056  0.345 -0.830 -0.699 -0.566 -0.414 -0.414
 0.058  0.353 -0.823 -0.694 -0.561 -0.410 -0.410
 0.060  0.361 -0.814 -0.687 -0.556 -0.407 -0.407
 0.062  0.368 -0.805 -0.680 -0.551 -0.404 -0.404
 0.064  0.378 -0.795 -0.673 -0.547 -0.400 -0.400
 0.066  0.385 -0.786 -0.666 -0.542 -0.397 -0.397
 0.068  0.393 -0.777 -0.660 -0.537 -0.393 -0.393
 0.070  0.401 -0.768 -0.652 -0.532 -0.390 -0.390
 0.072  0.409 -0.759 -0.645 -0.527 -0.387 -0.387
 0.074  0.418 -0.750 -0.637 -0.523 -0.384 -0.384
 0.076  0.426 -0.741 -0.630 -0.517 -0.381 -0.381
 0.078  0.433 -0.732 -0.622 -0.513 -0.378 -0.378
 0.080  0.441 -0.723 -0.615 -0.508 -0.375 -0.375
 0.082  0.450 -0.714 -0.608 -0.504 -0.371 -0.371
 0.084  0.458 -0.705 -0.600 -0.498 -0.369 -0.369
 0.086  0.466 -0.696 -0.593 -0.494 -0.366 -0.366
 0.088  0.473 -0.687 -0.586 -0.489 -0.363 -0.363
 0.090  0.483 -0.678 -0.579 -0.485 -0.360 -0.360
 0.092  0.490 -0.669 -0.573 -0.479 -0.357 -0.357
 0.094  0.498 -0.661 -0.566 -0.475 -0.354 -0.354
 0.096  0.506 -0.652 -0.559 -0.470 -0.351 -0.351
 0.098  0.513 -0.643 -0.552 -0.466 -0.348 -0.348
 0.100  0.521 -0.634 -0.545 -0.461 -0.346 -0.346
 0.102  0.530 -0.627 -0.540 -0.457 -0.342 -0.342
 0.104  0.538 -0.618 -0.533 -0.452 -0.340 -0.340
 0.106  0.546 -0.609 -0.527 -0.448 -0.337 -0.337
 0.108  0.553 -0.601 -0.522 -0.444 -0.334 -0.334
 0.110  0.561 -0.594 -0.515 -0.439 -0.332 -0.332
 0.112  0.567 -0.585 -0.509 -0.435 -0.328 -0.328
 0.114  0.575 -0.577 -0.504 -0.431 -0.326 -0.326
 0.116  0.583 -0.569 -0.498 -0.427 -0.324 -0.324
 0.118  0.591 -0.562 -0.492 -0.423 -0.321 -0.321
 0.120  0.598 -0.554 -0.487 -0.419 -0.319 -0.319
 0.122  0.604 -0.547 -0.481 -0.415 -0.316 -0.316
 0.124  0.612 -0.539 -0.475 -0.411 -0.313 -0.313
 0.126  0.618 -0.532 -0.471 -0.407 -0.311 -0.311
 0.128  0.626 -0.524 -0.465 -0.403 -0.308 -0.308
 0.130  0.634 -0.517 -0.461 -0.400 -0.306 -0.306
 0.132  0.640 -0.509 -0.456 -0.396 -0.303 -0.303
 0.134  0.648 -0.503 -0.452 -0.392 -0.302 -0.302
 0.136  0.654 -0.496 -0.446 -0.389 -0.299 -0.299
 0.138  0.661 -0.488 -0.441 -0.385 -0.297 -0.297
 0.140  0.668 -0.482 -0.437 -0.381 -0.294 -0.294
 0.142  0.674 -0.475 -0.433 -0.378 -0.292 -0.292
 0.144  0.681 -0.468 -0.429 -0.374 -0.290 -0.290
 0.146  0.688 -0.461 -0.424 -0.370 -0.288 -0.288
 0.148  0.694 -0.455 -0.420 -0.368 -0.286 -0.286
 0.150  0.702 -0.449 -0.415 -0.364 -0.283 -0.283
 0.152  0.708 -0.443 -0.412 -0.360 -0.281 -0.281
 0.154  0.714 -0.435 -0.407 -0.358 -0.279 -0.279
 0.156  0.720 -0.429 -0.403 -0.354 -0.277 -0.277
 0.158  0.726 -0.423 -0.399 -0.351 -0.275 -0.275
 0.160  0.732 -0.417 -0.395 -0.348 -0.273 -0.273
 0.162  0.739 -0.411 -0.390 -0.345 -0.271 -0.271
 0.164  0.745 -0.405 -0.387 -0.342 -0.268 -0.268
 0.166  0.751 -0.399 -0.383 -0.339 -0.266 -0.266
 0.168  0.757 -0.393 -0.379 -0.336 -0.264 -0.264
 0.170  0.763 -0.387 -0.375 -0.333 -0.262 -0.262
 0.172  0.769 -0.381 -0.370 -0.330 -0.260 -0.260
 0.174  0.776 -0.374 -0.367 -0.327 -0.258 -0.258
 0.176  0.782 -0.368 -0.362 -0.324 -0.256 -0.256
 0.178  0.788 -0.362 -0.359 -0.321 -0.254 -0.254
 0.180  0.794 -0.355 -0.354 -0.318 -0.251 -0.251
 0.182  0.800 -0.349 -0.350 -0.315 -0.249 -0.249
 0.184  0.806 -0.343 -0.346 -0.312 -0.247 -0.247
 0.186  0.813 -0.337 -0.342 -0.310 -0.245 -0.245
 0.188  0.819 -0.331 -0.338 -0.306 -0.243 -0.243
 0.190  0.825 -0.325 -0.334 -0.303 -0.241 -0.241
 0.192  0.831 -0.319 -0.330 -0.301 -0.238 -0.238
 0.194  0.837 -0.313 -0.326 -0.298 -0.236 -0.236
 0.196  0.842 -0.307 -0.323 -0.295 -0.234 -0.234
 0.198  0.848 -0.301 -0.319 -0.292 -0.232 -0.232
 0.200  0.854 -0.295 -0.315 -0.290 -0.230 -0.230
 0.202  0.860 -0.289 -0.311 -0.287 -0.228 -0.228
 0.204  0.867 -0.283 -0.307 -0.284 -0.226 -0.226
 0.206  0.871 -0.277 -0.303 -0.282 -0.223 -0.223
 0.208  0.877 -0.271 -0.300 -0.279 -0.221 -0.221
 0.210  0.883 -0.265 -0.295 -0.276 -0.219 -0.219
 0.212  0.890 -0.259 -0.292 -0.274 -0.217 -0.217
 0.214  0.894 -0.255 -0.288 -0.272 -0.215 -0.215
 0.216  0.900 -0.248 -0.284 -0.269 -0.213 -0.213
 0.218  0.907 -0.242 -0.281 -0.266 -0.210 -0.210
 0.220  0.911 -0.236 -0.276 -0.263 -0.208 -0.208
 0.222  0.917 -0.230 -0.273 -0.262 -0.206 -0.206
 0.224  0.924 -0.224 -0.269 -0.259 -0.204 -0.204
 0.226  0.928 -0.218 -0.266 -0.256 -0.201 -0.201
 0.228  0.934 -0.212 -0.262 -0.254 -0.199 -0.199
 0.230  0.939 -0.208 -0.258 -0.252 -0.197 -0.197
 0.232  0.945 -0.202 -0.255 -0.249 -0.195 -0.195
 0.234  0.950 -0.196 -0.251 -0.247 -0.192 -0.192
 0.236  0.956 -0.190 -0.248 -0.244 -0.191 -0.191
 0.238  0.961 -0.185 -0.245 -0.242 -0.188 -0.188
 0.240  0.967 -0.179 -0.241 -0.240 -0.186 -0.186
 0.242  0.971 -0.173 -0.237 -0.237 -0.184 -0.184
 0.244  0.976 -0.169 -0.233 -0.234 -0.182 -0.182
 0.246  0.982 -0.163 -0.230 -0.233 -0.180 -0.180
 0.248  0.987 -0.158 -0.226 -0.230 -0.178 -0.178
 0.250  0.991 -0.152 -0.223 -0.227 -0.176 -0.176
 0.252  0.998 -0.146 -0.220 -0.225 -0.174 -0.174
 0.254  1.002 -0.142 -0.216 -0.223 -0.172 -0.172
 0.256  1.007 -0.137 -0.214 -0.221 -0.170 -0.170
 0.258  1.011 -0.131 -0.211 -0.218 -0.168 -0.168
 0.260  1.018 -0.126 -0.207 -0.215 -0.166 -0.166
 0.262  1.022 -0.120 -0.204 -0.213 -0.164 -0.164
 0.264  1.027 -0.116 -0.200 -0.211 -0.161 -0.161
 0.266  1.032 -0.111 -0.197 -0.208 -0.160 -0.160
 0.268  1.036 -0.107 -0.194 -0.206 -0.158 -0.158
 0.270  1.041 -0.101 -0.191 -0.204 -0.156 -0.156
 0.272  1.045 -0.096 -0.188 -0.202 -0.154 -0.154
 0.274  1.050 -0.092 -0.185 -0.199 -0.153 -0.153
 0.276  1.055 -0.087 -0.181 -0.197 -0.151 -0.151
 0.278  1.059 -0.083 -0.179 -0.194 -0.149 -0.149
 0.280  1.064 -0.078 -0.176 -0.192 -0.147 -0.147
 0.282  1.069 -0.072 -0.172 -0.190 -0.145 -0.145
 0.284  1.073 -0.068 -0.170 -0.187 -0.144 -0.144
 0.286  1.076 -0.063 -0.167 -0.185 -0.141 -0.141
 0.288  1.081 -0.059 -0.163 -0.183 -0.140 -0.140
 0.290  1.085 -0.054 -0.161 -0.181 -0.138 -0.138
 0.292  1.090 -0.051 -0.157 -0.178 -0.136 -0.136
 0.294  1.093 -0.047 -0.155 -0.176 -0.135 -0.135
 0.296  1.098 -0.042 -0.152 -0.174 -0.133 -0.133
 0.298  1.102 -0.038 -0.150 -0.171 -0.131 -0.131
 0.300  1.106 -0.033 -0.146 -0.169 -0.130 -0.130
 0.302  1.110 -0.028 -0.143 -0.166 -0.128 -0.128
 0.304  1.115 -0.024 -0.141 -0.165 -0.127 -0.127
 0.306  1.118 -0.019 -0.137 -0.162 -0.125 -0.125
 0.308  1.122 -0.016 -0.135 -0.160 -0.123 -0.123
 0.310  1.127 -0.012 -0.131 -0.157 -0.121 -0.121
 0.312  1.132 -0.007 -0.129 -0.155 -0.119 -0.119
 0.314  1.135 -0.003 -0.126 -0.153 -0.118 -0.118
 0.316  1.139  0.002 -0.122 -0.150 -0.116 -0.116
 0.318  1.144  0.006 -0.120 -0.148 -0.114 -0.114
 0.320  1.147  0.009 -0.117 -0.145 -0.113 -0.113
 0.322  1.152  0.014 -0.114 -0.144 -0.111 -0.111
 0.324  1.156  0.018 -0.111 -0.141 -0.110 -0.110
 0.326  1.161  0.023 -0.108 -0.138 -0.107 -0.107
 0.328  1.166  0.027 -0.105 -0.136 -0.106 -0.106
 0.330  1.169  0.030 -0.102 -0.134 -0.104 -0.104
 0.332  1.173  0.035 -0.100 -0.132 -0.102 -0.102
 0.334  1.178  0.039 -0.096 -0.129 -0.101 -0.101
 0.336  1.183  0.044 -0.094 -0.126 -0.098 -0.098
 0.338  1.186  0.048 -0.091 -0.125 -0.097 -0.097
 0.340  1.190  0.051 -0.088 -0.122 -0.095 -0.095
 0.342  1.195  0.056 -0.085 -0.120 -0.093 -0.093
 0.344  1.200  0.060 -0.082 -0.117 -0.092 -0.092
 0.346  1.204  0.065 -0.079 -0.115 -0.089 -0.089
 0.348  1.209  0.068 -0.076 -0.113 -0.088 -0.088
 0.350  1.213  0.072 -0.074 -0.110 -0.086 -0.086
 0.352  1.217  0.077 -0.070 -0.107 -0.084 -0.084
 0.354  1.221  0.082 -0.068 -0.106 -0.082 -0.082
 0.356  1.226  0.085 -0.065 -0.103 -0.080 -0.080
 0.358  1.230  0.089 -0.061 -0.100 -0.079 -0.079
 0.360  1.235  0.094 -0.059 -0.098 -0.076 -0.076
 0.362  1.240  0.097 -0.056 -0.096 -0.075 -0.075
 0.364  1.244  0.101 -0.053 -0.093 -0.073 -0.073
 0.366  1.249  0.106 -0.050 -0.090 -0.071 -0.071
 0.368  1.254  0.110 -0.048 -0.088 -0.069 -0.069
 0.370  1.258  0.113 -0.044 -0.086 -0.067 -0.067
 0.372  1.263  0.118 -0.042 -0.083 -0.065 -0.065
 0.374  1.266  0.122 -0.039 -0.081 -0.063 -0.063
 0.376  1.271  0.125 -0.036 -0.078 -0.062 -0.062
 0.378  1.275  0.130 -0.033 -0.076 -0.059 -0.059
 0.380  1.280  0.134 -0.031 -0.074 -0.058 -0.058
 0.382  1.284  0.139 -0.027 -0.071 -0.055 -0.055
 0.384  1.289  0.142 -0.025 -0.069 -0.054 -0.054
 0.386  1.292  0.146 -0.022 -0.067 -0.052 -0.052
 0.388  1.297  0.151 -0.019 -0.064 -0.050 -0.050
 0.390  1.301  0.155 -0.016 -0.062 -0.048 -0.048
 0.392  1.306  0.158 -0.014 -0.059 -0.046 -0.046
 0.394  1.309  0.163 -0.010 -0.057 -0.044 -0.044
 0.396  1.314  0.167 -0.008 -0.055 -0.041 -0.041
 0.398  1.317  0.172 -0.005 -0.052 -0.040 -0.040
 0.400  1.321  0.175 -0.003 -0.050 -0.038 -0.038
 0.402  1.326  0.179  0.001 -0.047 -0.036 -0.036
 0.404  1.329  0.184  0.003 -0.046 -0.034 -0.034
 0.406  1.334  0.188  0.007 -0.043 -0.032 -0.032
 0.408  1.337  0.193  0.009 -0.041 -0.030 -0.030
 0.410  1.341  0.196  0.012 -0.038 -0.028 -0.028
 0.412  1.345  0.201  0.014 -0.037 -0.026 -0.026
 0.414  1.349  0.205  0.018 -0.034 -0.024 -0.024
 0.416  1.352  0.210  0.020 -0.032 -0.022 -0.022
 0.418  1.355  0.214  0.022 -0.029 -0.020 -0.020
 0.420  1.360  0.217  0.026 -0.027 -0.018 -0.018
 0.422  1.363  0.222  0.028 -0.026 -0.016 -0.016
 0.424  1.366  0.226  0.031 -0.023 -0.013 -0.013
 0.426  1.371  0.231  0.034 -0.021 -0.011 -0.011
 0.428  1.374  0.235  0.037 -0.018 -0.009 -0.009
 0.430  1.377  0.240  0.039 -0.017 -0.007 -0.007
 0.432  1.380  0.243  0.042 -0.015 -0.005 -0.005
 0.434  1.385  0.247  0.045 -0.012 -0.003 -0.003
 0.436  1.388  0.252  0.047 -0.010 -0.001 -0.001
 0.438  1.391  0.256  0.051 -0.008  0.001  0.001
 0.440  1.394  0.261  0.053 -0.006  0.003  0.003
 0.442  1.397  0.265  0.055 -0.004  0.006  0.006
 0.444  1.400  0.268  0.059 -0.001  0.007  0.007
 0.446  1.403  0.273  0.061  0.001  0.010  0.010
 0.448  1.406  0.277  0.063  0.002  0.012  0.012
 0.450  1.409  0.280  0.065  0.005  0.014  0.014
 0.452  1.412  0.285  0.069  0.007  0.016  0.016
 0.454  1.415  0.288  0.071  0.009  0.018  0.018
 0.456  1.419  0.291  0.073  0.012  0.019  0.019
 0.458  1.422  0.295  0.075  0.013  0.022  0.022
 0.460  1.425  0.298  0.079  0.015  0.023  0.023
 0.462  1.426  0.301  0.081  0.018  0.025  0.025
 0.464  1.429  0.305  0.083  0.020  0.027  0.027
 0.466  1.432  0.308  0.086  0.022  0.029  0.029
 0.468  1.435  0.311  0.088  0.023  0.031  0.031
 0.470  1.437  0.314  0.090  0.026  0.032  0.032
 0.472  1.440  0.317  0.094  0.028  0.035  0.035
 0.474  1.443  0.320  0.096  0.030  0.036  0.036
 0.476  1.445  0.323  0.098  0.032  0.038  0.038
 0.478  1.448  0.326  0.100  0.034  0.040  0.040
 0.480  1.449  0.327  0.103  0.036  0.041  0.041
 0.482  1.452  0.330  0.105  0.038  0.043  0.043
 0.484  1.454  0.333  0.107  0.041  0.044  0.044
 0.486  1.457  0.335  0.109  0.042  0.046  0.046
 0.488  1.459  0.338  0.112  0.044  0.048  0.048
 0.490  1.462  0.339  0.114  0.047  0.049  0.049
 0.492  1.463  0.341  0.116  0.049  0.051  0.051
 0.494  1.465  0.344  0.118  0.051  0.052  0.052
 0.496  1.468  0.345  0.121  0.052  0.053  0.053
 0.498  1.469  0.347  0.123  0.055  0.055  0.055
 0.500  1.471  0.348  0.125  0.057  0.057  0.057
 0.502  1.474  0.350  0.128  0.059  0.057  0.057
 0.504  1.476  0.351  0.130  0.061  0.059  0.059
 0.506  1.477  0.353  0.132  0.063  0.061  0.061
 0.508  1.479  0.354  0.133  0.065  0.061  0.061
 0.510  1.480  0.356  0.135  0.067  0.063  0.063
 0.512  1.482  0.357  0.138  0.069  0.065  0.065
 0.514  1.483  0.359  0.140  0.071  0.066  0.066
 0.516  1.485  0.359  0.141  0.073  0.067  0.067
 0.518  1.486  0.360  0.143  0.075  0.068  0.068
 0.520  1.488  0.362  0.146  0.077  0.070  0.070
 0.522  1.489  0.362  0.147  0.079  0.070  0.070
 0.524  1.491  0.363  0.149  0.080  0.072  0.072
 0.526  1.493  0.365  0.150  0.081  0.073  0.073
 0.528  1.494  0.366  0.152  0.083  0.074  0.074
 0.530  1.496  0.366  0.154  0.085  0.075  0.075
 0.532  1.497  0.368  0.156  0.087  0.077  0.077
 0.534  1.499  0.368  0.157  0.088  0.078  0.078
 0.536  1.500  0.369  0.159  0.090  0.078  0.078
 0.538  1.500  0.371  0.160  0.090  0.080  0.080
 0.540  1.502  0.371  0.161  0.091  0.081  0.081
 0.542  1.503  0.372  0.164  0.093  0.083  0.083
 0.544  1.505  0.374  0.165  0.094  0.083  0.083
 0.546  1.505  0.374  0.166  0.095  0.085  0.085
 0.548  1.506  0.375  0.167  0.097  0.086  0.086
 0.550  1.508  0.375  0.168  0.098  0.087  0.087
 0.552  1.508  0.377  0.170  0.099  0.088  0.088
 0.554  1.510  0.377  0.172  0.100  0.089  0.089
 0.556  1.511  0.378  0.173  0.100  0.090  0.090
 0.558  1.511  0.378  0.174  0.101  0.091  0.091
 0.560  1.513  0.380  0.175  0.102  0.092  0.092
 0.562  1.513  0.380  0.176  0.102  0.093  0.093
 0.564  1.514  0.381  0.177  0.103  0.095  0.095
 0.566  1.514  0.381  0.178  0.104  0.096  0.096
 0.568  1.516  0.381  0.180  0.105  0.096  0.096
 0.570  1.516  0.383  0.180  0.105  0.098  0.098
 0.572  1.517  0.383  0.181  0.106  0.099  0.099
 0.574  1.517  0.384  0.182  0.106  0.100  0.100
 0.576  1.517  0.384  0.183  0.106  0.100  0.100
 0.578  1.519  0.384  0.183  0.107  0.102  0.102
 0.580  1.519  0.386  0.184  0.107  0.103  0.103
 0.582  1.519  0.386  0.185  0.107  0.104  0.104
 0.584  1.520  0.386  0.185  0.108  0.104  0.104
 0.586  1.520  0.387  0.186  0.108  0.105  0.105
 0.588  1.520  0.387  0.186  0.108  0.107  0.107
 0.590  1.520  0.387  0.187  0.108  0.108  0.108
 0.592  1.522  0.387  0.187  0.109  0.108  0.108
 0.594  1.522  0.389  0.189  0.109  0.109  0.109
 0.596  1.522  0.389  0.189  0.109  0.110  0.110
 0.598  1.522  0.389  0.190  0.110  0.111  0.111
 0.600  1.522  0.389  0.190  0.110  0.113  0.113
 0.602  1.523  0.390  0.190  0.110  0.113  0.113
 0.604  1.523  0.390  0.190  0.110  0.114  0.114
 0.606  1.523  0.390  0.191  0.110  0.115  0.115
 0.608  1.523  0.390  0.191  0.110  0.116  0.116
 0.610  1.523  0.390  0.191  0.110  0.117  0.117
 0.612  1.523  0.392  0.191  0.111  0.117  0.117
 0.614  1.523  0.392  0.191  0.111  0.118  0.118
 0.616  1.523  0.392  0.191  0.112  0.119  0.119
 0.618  1.523  0.392  0.191  0.112  0.120  0.120
 0.620  1.525  0.392  0.191  0.112  0.121  0.121
 0.622  1.525  0.392  0.191  0.113  0.121  0.121
 0.624  1.525  0.392  0.191  0.113  0.122  0.122
 0.626  1.525  0.393  0.191  0.113  0.123  0.123
 0.628  1.525  0.393  0.190  0.114  0.124  0.124
 0.630  1.525  0.393  0.190  0.114  0.125  0.125
 0.632  1.523  0.393  0.190  0.115  0.126  0.126
 0.634  1.523  0.393  0.189  0.115  0.126  0.126
 0.636  1.523  0.393  0.189  0.116  0.127  0.127
 0.638  1.523  0.393  0.189  0.116  0.128  0.128
 0.640  1.523  0.393  0.187  0.116  0.129  0.129
 0.642  1.523  0.393  0.187  0.117  0.129  0.129
 0.644  1.523  0.393  0.186  0.117  0.130  0.130
 0.646  1.523  0.393  0.186  0.118  0.130  0.130
 0.648  1.523  0.393  0.185  0.118  0.131  0.131
 0.650  1.522  0.393  0.185  0.119  0.132  0.132
 0.652  1.522  0.393  0.184  0.119  0.133  0.133
 0.654  1.522  0.393  0.184  0.120  0.134  0.134
 0.656  1.522  0.393  0.183  0.120  0.134  0.134
 0.658  1.522  0.393  0.183  0.120  0.134  0.134
 0.660  1.520  0.393  0.183  0.120  0.135  0.135
 0.662  1.520  0.392  0.182  0.120  0.136  0.136
 0.664  1.520  0.392  0.182  0.121  0.136  0.136
 0.666  1.520  0.392  0.181  0.121  0.137  0.137
 0.668  1.519  0.392  0.181  0.121  0.138  0.138
 0.670  1.519  0.392  0.180  0.122  0.138  0.138
 0.672  1.517  0.390  0.180  0.122  0.138  0.138
 0.674  1.517  0.390  0.180  0.122  0.138  0.138
 0.676  1.516  0.390  0.178  0.122  0.139  0.139
 0.678  1.516  0.389  0.178  0.122  0.139  0.139
 0.680  1.514  0.389  0.178  0.122  0.140  0.140
 0.682  1.514  0.387  0.177  0.122  0.140  0.140
 0.684  1.513  0.387  0.177  0.122  0.140  0.140
 0.686  1.511  0.387  0.177  0.122  0.141  0.141
 0.688  1.511  0.386  0.177  0.122  0.141  0.141
 0.690  1.510  0.386  0.176  0.122  0.142  0.142
 0.692  1.508  0.384  0.176  0.122  0.142  0.142
 0.694  1.508  0.384  0.176  0.121  0.142  0.142
 0.696  1.506  0.383  0.176  0.121  0.143  0.143
 0.698  1.505  0.381  0.176  0.121  0.143  0.143
 0.700  1.505  0.381  0.175  0.121  0.143  0.143
 0.702  1.503  0.380  0.175  0.121  0.143  0.143
 0.704  1.502  0.378  0.175  0.120  0.143  0.143
 0.706  1.500  0.378  0.175  0.120  0.143  0.143
 0.708  1.499  0.377  0.175  0.120  0.143  0.143
 0.710  1.497  0.375  0.175  0.120  0.143  0.143
 0.712  1.496  0.374  0.175  0.119  0.143  0.143
 0.714  1.494  0.372  0.174  0.119  0.143  0.143
 0.716  1.493  0.372  0.174  0.118  0.143  0.143
 0.718  1.489  0.371  0.174  0.117  0.143  0.143
 0.720  1.488  0.369  0.174  0.116  0.143  0.143
 0.722  1.486  0.368  0.174  0.116  0.143  0.143
 0.724  1.485  0.366  0.174  0.115  0.143  0.143
 0.726  1.483  0.365  0.174  0.115  0.143  0.143
 0.728  1.482  0.363  0.174  0.114  0.143  0.143
 0.730  1.480  0.363  0.174  0.114  0.143  0.143
 0.732  1.480  0.362  0.174  0.114  0.143  0.143
 0.734  1.479  0.360  0.174  0.114  0.144  0.144
 0.736  1.479  0.360  0.174  0.114  0.144  0.144
 0.738  1.479  0.360  0.174  0.114  0.145  0.145
 0.740  1.479  0.359  0.174  0.114  0.147  0.147
 0.742  1.480  0.359  0.173  0.115  0.147  0.147
 0.744  1.480  0.359  0.173  0.116  0.149  0.149
 0.746  1.482  0.359  0.173  0.116  0.151  0.151
 0.748  1.483  0.359  0.173  0.117  0.152  0.152
 0.750  1.485  0.359  0.173  0.118  0.154  0.154
 0.752  1.488  0.360  0.173  0.120  0.156  0.156
 0.754  1.489  0.360  0.173  0.120  0.158  0.158
 0.756  1.493  0.360  0.173  0.122  0.160  0.160
 0.758  1.496  0.362  0.173  0.123  0.164  0.164
 0.760  1.500  0.362  0.173  0.125  0.166  0.166
 0.762  1.503  0.363  0.173  0.127  0.169  0.169
 0.764  1.508  0.365  0.173  0.129  0.173  0.173
 0.766  1.513  0.366  0.173  0.131  0.176  0.176
 0.768  1.517  0.368  0.173  0.133  0.179  0.179
 0.770  1.523  0.369  0.173  0.136  0.183  0.183
 0.772  1.530  0.371  0.173  0.139  0.187  0.187
 0.774  1.534  0.374  0.173  0.141  0.191  0.191
 0.776  1.542  0.375  0.173  0.144  0.196  0.196
 0.778  1.548  0.378  0.173  0.148  0.200  0.200
 0.780  1.556  0.380  0.172  0.150  0.205  0.205
 0.782  1.562  0.383  0.172  0.154  0.210  0.210
 0.784  1.570  0.386  0.172  0.158  0.215  0.215
 0.786  1.579  0.389  0.173  0.161  0.220  0.220
 0.788  1.587  0.390  0.173  0.165  0.225  0.225
 0.790  1.596  0.393  0.173  0.169  0.231  0.231
 0.792  1.604  0.396  0.173  0.172  0.237  0.237
 0.794  1.613  0.399  0.174  0.177  0.243  0.243
 0.796  1.622  0.404  0.175  0.180  0.249  0.249
 0.798  1.633  0.407  0.175  0.184  0.254  0.254
 0.800  1.641  0.410  0.177  0.188  0.260  0.260
 0.802  1.650  0.413  0.178  0.192  0.266  0.266
 0.804  1.659  0.416  0.180  0.196  0.271  0.271
 0.806  1.667  0.419  0.182  0.199  0.276  0.276
 0.808  1.674  0.422  0.183  0.203  0.281  0.281
