# IsPeriodic    : True
# Period        : 0.530589 days
# Normalization : <g_mag>=0
# 
# Phase u_mag  g_mag  r_mag  i_mag  z_mag  y_mag
 0.000  0.238 -0.869 -0.736 -0.606 -0.526 -0.526
 0.002  0.238 -0.869 -0.736 -0.606 -0.526 -0.526
 0.004  0.238 -0.868 -0.736 -0.606 -0.526 -0.526
 0.006  0.240 -0.867 -0.735 -0.605 -0.525 -0.525
 0.008  0.241 -0.864 -0.735 -0.605 -0.524 -0.524
 0.010  0.243 -0.862 -0.733 -0.604 -0.523 -0.523
 0.012  0.245 -0.858 -0.731 -0.603 -0.522 -0.522
 0.014  0.247 -0.854 -0.729 -0.602 -0.520 -0.520
 0.016  0.250 -0.850 -0.727 -0.600 -0.518 -0.518
 0.018  0.254 -0.845 -0.725 -0.598 -0.517 -0.517
 0.020  0.257 -0.840 -0.722 -0.597 -0.515 -0.515
 0.022  0.260 -0.835 -0.720 -0.595 -0.513 -0.513
 0.024  0.264 -0.830 -0.717 -0.593 -0.511 -0.511
 0.026  0.269 -0.825 -0.714 -0.592 -0.509 -0.509
 0.028  0.272 -0.819 -0.711 -0.589 -0.506 -0.506
 0.030  0.276 -0.813 -0.709 -0.587 -0.505 -0.505
 0.032  0.281 -0.808 -0.705 -0.585 -0.503 -0.503
 0.034  0.286 -0.803 -0.702 -0.582 -0.501 -0.501
 0.036  0.291 -0.796 -0.698 -0.580 -0.499 -0.499
 0.038  0.297 -0.791 -0.694 -0.577 -0.496 -0.496
 0.040  0.302 -0.785 -0.691 -0.575 -0.494 -0.494
 0.042  0.308 -0.779 -0.686 -0.572 -0.491 -0.491
 0.044  0.314 -0.772 -0.683 -0.569 -0.489 -0.489
 0.046  0.321 -0.766 -0.679 -0.566 -0.487 -0.487
 0.048  0.327 -0.760 -0.674 -0.562 -0.484 -0.484
 0.050  0.333 -0.753 -0.669 -0.559 -0.481 -0.481
 0.052  0.341 -0.745 -0.664 -0.556 -0.478 -0.478
 0.054  0.348 -0.738 -0.660 -0.552 -0.475 -0.475
 0.056  0.356 -0.730 -0.654 -0.548 -0.472 -0.472
 0.058  0.364 -0.723 -0.649 -0.544 -0.469 -0.469
 0.060  0.371 -0.715 -0.643 -0.540 -0.466 -0.466
 0.062  0.380 -0.706 -0.637 -0.536 -0.463 -0.463
 0.064  0.389 -0.698 -0.632 -0.532 -0.459 -0.459
 0.066  0.396 -0.689 -0.626 -0.527 -0.456 -0.456
 0.068  0.407 -0.680 -0.620 -0.523 -0.453 -0.453
 0.070  0.415 -0.672 -0.613 -0.518 -0.449 -0.449
 0.072  0.424 -0.663 -0.608 -0.513 -0.445 -0.445
 0.074  0.434 -0.654 -0.601 -0.509 -0.442 -0.442
 0.076  0.443 -0.645 -0.595 -0.504 -0.439 -0.439
 0.078  0.453 -0.636 -0.588 -0.500 -0.435 -0.435
 0.080  0.462 -0.627 -0.583 -0.495 -0.431 -0.431
 0.082  0.472 -0.618 -0.576 -0.491 -0.428 -0.428
 0.084  0.481 -0.609 -0.569 -0.486 -0.424 -0.424
 0.086  0.490 -0.600 -0.563 -0.481 -0.421 -0.421
 0.088  0.499 -0.591 -0.558 -0.477 -0.417 -0.417
 0.090  0.508 -0.582 -0.552 -0.472 -0.414 -0.414
 0.092  0.517 -0.573 -0.546 -0.468 -0.411 -0.411
 0.094  0.525 -0.564 -0.540 -0.464 -0.407 -0.407
 0.096  0.533 -0.557 -0.535 -0.460 -0.404 -0.404
 0.098  0.542 -0.548 -0.529 -0.456 -0.401 -0.401
 0.100  0.549 -0.540 -0.523 -0.451 -0.398 -0.398
 0.102  0.557 -0.531 -0.518 -0.448 -0.395 -0.395
 0.104  0.565 -0.524 -0.512 -0.444 -0.392 -0.392
 0.106  0.572 -0.516 -0.508 -0.441 -0.389 -0.389
 0.108  0.580 -0.508 -0.503 -0.437 -0.386 -0.386
 0.110  0.587 -0.501 -0.497 -0.433 -0.383 -0.383
 0.112  0.595 -0.493 -0.492 -0.429 -0.380 -0.380
 0.114  0.601 -0.487 -0.487 -0.426 -0.377 -0.377
 0.116  0.609 -0.479 -0.483 -0.422 -0.375 -0.375
 0.118  0.615 -0.473 -0.478 -0.419 -0.372 -0.372
 0.120  0.623 -0.465 -0.473 -0.415 -0.369 -0.369
 0.122  0.629 -0.459 -0.468 -0.412 -0.367 -0.367
 0.124  0.635 -0.452 -0.463 -0.409 -0.364 -0.364
 0.126  0.642 -0.446 -0.460 -0.406 -0.361 -0.361
 0.128  0.648 -0.439 -0.455 -0.403 -0.359 -0.359
 0.130  0.654 -0.433 -0.451 -0.400 -0.357 -0.357
 0.132  0.659 -0.427 -0.447 -0.398 -0.354 -0.354
 0.134  0.666 -0.420 -0.443 -0.395 -0.352 -0.352
 0.136  0.671 -0.415 -0.438 -0.392 -0.350 -0.350
 0.138  0.677 -0.409 -0.435 -0.389 -0.347 -0.347
 0.140  0.682 -0.404 -0.431 -0.387 -0.345 -0.345
 0.142  0.687 -0.399 -0.428 -0.384 -0.343 -0.343
 0.144  0.692 -0.392 -0.424 -0.382 -0.341 -0.341
 0.146  0.697 -0.387 -0.420 -0.380 -0.339 -0.339
 0.148  0.702 -0.382 -0.416 -0.377 -0.337 -0.337
 0.150  0.708 -0.377 -0.412 -0.374 -0.335 -0.335
 0.152  0.713 -0.372 -0.410 -0.372 -0.333 -0.333
 0.154  0.718 -0.367 -0.406 -0.370 -0.331 -0.331
 0.156  0.723 -0.362 -0.402 -0.367 -0.329 -0.329
 0.158  0.728 -0.357 -0.399 -0.365 -0.327 -0.327
 0.160  0.733 -0.353 -0.395 -0.363 -0.325 -0.325
 0.162  0.737 -0.348 -0.391 -0.360 -0.323 -0.323
 0.164  0.742 -0.343 -0.388 -0.358 -0.321 -0.321
 0.166  0.747 -0.337 -0.385 -0.356 -0.319 -0.319
 0.168  0.752 -0.332 -0.382 -0.353 -0.317 -0.317
 0.170  0.757 -0.327 -0.378 -0.351 -0.315 -0.315
 0.172  0.762 -0.322 -0.374 -0.349 -0.313 -0.313
 0.174  0.767 -0.317 -0.371 -0.347 -0.311 -0.311
 0.176  0.771 -0.312 -0.367 -0.344 -0.309 -0.309
 0.178  0.776 -0.307 -0.364 -0.342 -0.307 -0.307
 0.180  0.781 -0.302 -0.361 -0.340 -0.305 -0.305
 0.182  0.786 -0.297 -0.357 -0.337 -0.303 -0.303
 0.184  0.791 -0.292 -0.354 -0.335 -0.301 -0.301
 0.186  0.796 -0.286 -0.350 -0.333 -0.299 -0.299
 0.188  0.801 -0.280 -0.347 -0.331 -0.297 -0.297
 0.190  0.805 -0.275 -0.343 -0.329 -0.295 -0.295
 0.192  0.810 -0.270 -0.340 -0.327 -0.294 -0.294
 0.194  0.815 -0.265 -0.336 -0.324 -0.292 -0.292
 0.196  0.820 -0.260 -0.334 -0.322 -0.290 -0.290
 0.198  0.825 -0.255 -0.331 -0.320 -0.288 -0.288
 0.200  0.830 -0.249 -0.327 -0.318 -0.286 -0.286
 0.202  0.834 -0.244 -0.324 -0.316 -0.284 -0.284
 0.204  0.839 -0.239 -0.320 -0.314 -0.282 -0.282
 0.206  0.844 -0.233 -0.317 -0.311 -0.280 -0.280
 0.208  0.849 -0.228 -0.314 -0.309 -0.278 -0.278
 0.210  0.853 -0.223 -0.311 -0.307 -0.276 -0.276
 0.212  0.858 -0.218 -0.308 -0.305 -0.274 -0.274
 0.214  0.863 -0.211 -0.304 -0.303 -0.272 -0.272
 0.216  0.868 -0.206 -0.301 -0.301 -0.270 -0.270
 0.218  0.873 -0.201 -0.298 -0.298 -0.268 -0.268
 0.220  0.877 -0.196 -0.294 -0.296 -0.266 -0.266
 0.222  0.882 -0.190 -0.291 -0.295 -0.264 -0.264
 0.224  0.887 -0.184 -0.288 -0.292 -0.262 -0.262
 0.226  0.891 -0.179 -0.286 -0.290 -0.260 -0.260
 0.228  0.896 -0.174 -0.282 -0.288 -0.259 -0.259
 0.230  0.901 -0.169 -0.279 -0.286 -0.257 -0.257
 0.232  0.905 -0.164 -0.276 -0.284 -0.255 -0.255
 0.234  0.910 -0.159 -0.273 -0.282 -0.253 -0.253
 0.236  0.914 -0.154 -0.270 -0.280 -0.251 -0.251
 0.238  0.919 -0.149 -0.267 -0.278 -0.249 -0.249
 0.240  0.923 -0.144 -0.264 -0.276 -0.247 -0.247
 0.242  0.928 -0.139 -0.261 -0.274 -0.245 -0.245
 0.244  0.931 -0.133 -0.258 -0.272 -0.243 -0.243
 0.246  0.935 -0.128 -0.255 -0.270 -0.241 -0.241
 0.248  0.940 -0.124 -0.252 -0.268 -0.240 -0.240
 0.250  0.944 -0.119 -0.249 -0.266 -0.238 -0.238
 0.252  0.948 -0.114 -0.246 -0.264 -0.236 -0.236
 0.254  0.953 -0.110 -0.243 -0.262 -0.235 -0.235
 0.256  0.957 -0.105 -0.241 -0.260 -0.233 -0.233
 0.258  0.960 -0.100 -0.238 -0.258 -0.231 -0.231
 0.260  0.964 -0.096 -0.236 -0.256 -0.229 -0.229
 0.262  0.968 -0.091 -0.233 -0.254 -0.227 -0.227
 0.264  0.973 -0.087 -0.230 -0.252 -0.226 -0.226
 0.266  0.977 -0.084 -0.227 -0.250 -0.224 -0.224
 0.268  0.981 -0.079 -0.224 -0.249 -0.223 -0.223
 0.270  0.984 -0.075 -0.222 -0.246 -0.221 -0.221
 0.272  0.988 -0.071 -0.219 -0.245 -0.219 -0.219
 0.274  0.992 -0.066 -0.216 -0.243 -0.217 -0.217
 0.276  0.996 -0.062 -0.213 -0.241 -0.216 -0.216
 0.278  1.000 -0.058 -0.211 -0.239 -0.214 -0.214
 0.280  1.003 -0.054 -0.209 -0.237 -0.213 -0.213
 0.282  1.007 -0.051 -0.206 -0.236 -0.211 -0.211
 0.284  1.010 -0.047 -0.204 -0.233 -0.209 -0.209
 0.286  1.014 -0.043 -0.201 -0.232 -0.208 -0.208
 0.288  1.017 -0.039 -0.198 -0.230 -0.206 -0.206
 0.290  1.021 -0.035 -0.196 -0.228 -0.205 -0.205
 0.292  1.025 -0.031 -0.193 -0.226 -0.203 -0.203
 0.294  1.029 -0.028 -0.191 -0.224 -0.201 -0.201
 0.296  1.031 -0.024 -0.188 -0.223 -0.200 -0.200
 0.298  1.035 -0.020 -0.186 -0.221 -0.198 -0.198
 0.300  1.039 -0.016 -0.184 -0.219 -0.197 -0.197
 0.302  1.043 -0.012 -0.181 -0.217 -0.195 -0.195
 0.304  1.045 -0.010 -0.179 -0.215 -0.193 -0.193
 0.306  1.049 -0.006 -0.176 -0.213 -0.192 -0.192
 0.308  1.053 -0.002 -0.174 -0.212 -0.191 -0.191
 0.310  1.057  0.002 -0.171 -0.210 -0.189 -0.189
 0.312  1.059  0.006 -0.169 -0.208 -0.187 -0.187
 0.314  1.063  0.008 -0.166 -0.206 -0.186 -0.186
 0.316  1.067  0.012 -0.163 -0.204 -0.184 -0.184
 0.318  1.070  0.016 -0.161 -0.202 -0.183 -0.183
 0.320  1.073  0.020 -0.159 -0.200 -0.181 -0.181
 0.322  1.077  0.023 -0.157 -0.198 -0.179 -0.179
 0.324  1.081  0.027 -0.154 -0.197 -0.178 -0.178
 0.326  1.083  0.030 -0.151 -0.194 -0.177 -0.177
 0.328  1.087  0.034 -0.149 -0.193 -0.175 -0.175
 0.330  1.091  0.037 -0.146 -0.190 -0.173 -0.173
 0.332  1.095  0.041 -0.144 -0.189 -0.172 -0.172
 0.334  1.097  0.044 -0.141 -0.187 -0.171 -0.171
 0.336  1.101  0.048 -0.139 -0.185 -0.169 -0.169
 0.338  1.105  0.051 -0.136 -0.183 -0.167 -0.167
 0.340  1.107  0.055 -0.135 -0.181 -0.166 -0.166
 0.342  1.111  0.059 -0.132 -0.179 -0.164 -0.164
 0.344  1.113  0.062 -0.129 -0.177 -0.163 -0.163
 0.346  1.117  0.066 -0.127 -0.175 -0.161 -0.161
 0.348  1.121  0.069 -0.124 -0.173 -0.159 -0.159
 0.350  1.124  0.072 -0.122 -0.171 -0.158 -0.158
 0.352  1.127  0.076 -0.119 -0.169 -0.157 -0.157
 0.354  1.131  0.080 -0.117 -0.167 -0.155 -0.155
 0.356  1.134  0.083 -0.114 -0.165 -0.153 -0.153
 0.358  1.138  0.086 -0.111 -0.163 -0.152 -0.152
 0.360  1.140  0.090 -0.110 -0.161 -0.151 -0.151
 0.362  1.144  0.094 -0.107 -0.159 -0.149 -0.149
 0.364  1.148  0.096 -0.105 -0.158 -0.147 -0.147
 0.366  1.150  0.100 -0.102 -0.155 -0.146 -0.146
 0.368  1.154  0.104 -0.100 -0.153 -0.144 -0.144
 0.370  1.156  0.108 -0.097 -0.151 -0.143 -0.143
 0.372  1.160  0.110 -0.095 -0.149 -0.141 -0.141
 0.374  1.163  0.114 -0.092 -0.148 -0.139 -0.139
 0.376  1.167  0.118 -0.090 -0.145 -0.138 -0.138
 0.378  1.169  0.120 -0.087 -0.144 -0.136 -0.136
 0.380  1.173  0.124 -0.086 -0.141 -0.135 -0.135
 0.382  1.175  0.128 -0.083 -0.140 -0.133 -0.133
 0.384  1.179  0.132 -0.081 -0.138 -0.131 -0.131
 0.386  1.182  0.134 -0.078 -0.136 -0.130 -0.130
 0.388  1.186  0.138 -0.076 -0.134 -0.128 -0.128
 0.390  1.188  0.142 -0.073 -0.132 -0.127 -0.127
 0.392  1.192  0.146 -0.071 -0.130 -0.125 -0.125
 0.394  1.194  0.148 -0.068 -0.128 -0.123 -0.123
 0.396  1.198  0.152 -0.066 -0.127 -0.121 -0.121
 0.398  1.201  0.156 -0.063 -0.125 -0.120 -0.120
 0.400  1.205  0.159 -0.062 -0.123 -0.118 -0.118
 0.402  1.207  0.162 -0.059 -0.121 -0.117 -0.117
 0.404  1.211  0.166 -0.057 -0.119 -0.115 -0.115
 0.406  1.213  0.170 -0.054 -0.118 -0.113 -0.113
 0.408  1.216  0.173 -0.052 -0.115 -0.111 -0.111
 0.410  1.220  0.176 -0.049 -0.114 -0.109 -0.109
 0.412  1.222  0.180 -0.047 -0.112 -0.108 -0.108
 0.414  1.225  0.184 -0.044 -0.110 -0.106 -0.106
 0.416  1.229  0.187 -0.042 -0.109 -0.105 -0.105
 0.418  1.231  0.190 -0.040 -0.107 -0.103 -0.103
 0.420  1.235  0.194 -0.037 -0.105 -0.101 -0.101
 0.422  1.237  0.198 -0.036 -0.103 -0.099 -0.099
 0.424  1.240  0.202 -0.033 -0.102 -0.097 -0.097
 0.426  1.244  0.205 -0.031 -0.100 -0.095 -0.095
 0.428  1.246  0.208 -0.028 -0.098 -0.094 -0.094
 0.430  1.249  0.212 -0.026 -0.096 -0.092 -0.092
 0.432  1.251  0.216 -0.024 -0.095 -0.090 -0.090
 0.434  1.255  0.219 -0.021 -0.093 -0.089 -0.089
 0.436  1.258  0.222 -0.019 -0.092 -0.087 -0.087
 0.438  1.260  0.226 -0.016 -0.089 -0.085 -0.085
 0.440  1.263  0.230 -0.014 -0.088 -0.083 -0.083
 0.442  1.267  0.233 -0.012 -0.086 -0.081 -0.081
 0.444  1.269  0.236 -0.010 -0.085 -0.079 -0.079
 0.446  1.272  0.239 -0.008 -0.082 -0.078 -0.078
 0.448  1.274  0.243 -0.006 -0.081 -0.076 -0.076
 0.450  1.277  0.245 -0.004 -0.079 -0.075 -0.075
 0.452  1.279  0.249 -0.001 -0.078 -0.073 -0.073
 0.454  1.282  0.252  0.001 -0.076 -0.071 -0.071
 0.456  1.284  0.254  0.003 -0.074 -0.069 -0.069
 0.458  1.287  0.258  0.005 -0.073 -0.068 -0.068
 0.460  1.289  0.261  0.008 -0.071 -0.066 -0.066
 0.462  1.292  0.263  0.010 -0.069 -0.065 -0.065
 0.464  1.294  0.266  0.012 -0.067 -0.063 -0.063
 0.466  1.297  0.268  0.013 -0.066 -0.061 -0.061
 0.468  1.299  0.271  0.015 -0.064 -0.060 -0.060
 0.470  1.302  0.273  0.017 -0.063 -0.059 -0.059
 0.472  1.304  0.276  0.020 -0.061 -0.057 -0.057
 0.474  1.307  0.278  0.022 -0.059 -0.055 -0.055
 0.476  1.310  0.281  0.024 -0.057 -0.054 -0.054
 0.478  1.311  0.284  0.026 -0.056 -0.053 -0.053
 0.480  1.313  0.285  0.028 -0.054 -0.051 -0.051
 0.482  1.316  0.287  0.030 -0.053 -0.049 -0.049
 0.484  1.318  0.290  0.032 -0.050 -0.048 -0.048
 0.486  1.320  0.291  0.034 -0.049 -0.047 -0.047
 0.488  1.322  0.294  0.036 -0.047 -0.045 -0.045
 0.490  1.325  0.295  0.038 -0.046 -0.044 -0.044
 0.492  1.326  0.298  0.039 -0.043 -0.043 -0.043
 0.494  1.328  0.299  0.041 -0.042 -0.041 -0.041
 0.496  1.331  0.300  0.043 -0.040 -0.040 -0.040
 0.498  1.332  0.303  0.045 -0.039 -0.039 -0.039
 0.500  1.335  0.304  0.047 -0.037 -0.038 -0.038
 0.502  1.336  0.305  0.049 -0.035 -0.036 -0.036
 0.504  1.339  0.307  0.051 -0.033 -0.035 -0.035
 0.506  1.340  0.308  0.053 -0.032 -0.034 -0.034
 0.508  1.342  0.309  0.054 -0.030 -0.032 -0.032
 0.510  1.344  0.310  0.056 -0.029 -0.032 -0.032
 0.512  1.346  0.312  0.058 -0.027 -0.030 -0.030
 0.514  1.347  0.313  0.060 -0.026 -0.029 -0.029
 0.516  1.349  0.314  0.061 -0.024 -0.028 -0.028
 0.518  1.350  0.315  0.063 -0.023 -0.026 -0.026
 0.520  1.353  0.317  0.064 -0.021 -0.026 -0.026
 0.522  1.354  0.318  0.065 -0.020 -0.024 -0.024
 0.524  1.355  0.319  0.067 -0.019 -0.023 -0.023
 0.526  1.356  0.321  0.068 -0.017 -0.022 -0.022
 0.528  1.358  0.322  0.070 -0.016 -0.021 -0.021
 0.530  1.359  0.322  0.071 -0.015 -0.020 -0.020
 0.532  1.360  0.323  0.073 -0.014 -0.019 -0.019
 0.534  1.361  0.324  0.074 -0.013 -0.018 -0.018
 0.536  1.363  0.326  0.076 -0.011 -0.017 -0.017
 0.538  1.364  0.326  0.077 -0.011 -0.016 -0.016
 0.540  1.365  0.327  0.078 -0.009 -0.015 -0.015
 0.542  1.366  0.328  0.080 -0.008 -0.014 -0.014
 0.544  1.368  0.328  0.081 -0.007 -0.013 -0.013
 0.546  1.369  0.329  0.082 -0.006 -0.012 -0.012
 0.548  1.370  0.329  0.083 -0.005 -0.011 -0.011
 0.550  1.370  0.331  0.084 -0.004 -0.010 -0.010
 0.552  1.371  0.331  0.086 -0.004 -0.009 -0.009
 0.554  1.373  0.332  0.087 -0.003 -0.008 -0.008
 0.556  1.373  0.332  0.088 -0.002 -0.008 -0.008
 0.558  1.374  0.333  0.088 -0.001 -0.007 -0.007
 0.560  1.374  0.333  0.089 -0.001 -0.006 -0.006
 0.562  1.375  0.333  0.090  0.000 -0.005 -0.005
 0.564  1.375  0.335  0.091  0.001 -0.004 -0.004
 0.566  1.377  0.335  0.092  0.002 -0.004 -0.004
 0.568  1.377  0.335  0.093  0.002 -0.003 -0.003
 0.570  1.378  0.336  0.093  0.002 -0.002 -0.002
 0.572  1.378  0.336  0.094  0.003 -0.001 -0.001
 0.574  1.378  0.336  0.095  0.004 -0.000 -0.000
 0.576  1.379  0.336  0.096  0.004  0.000  0.000
 0.578  1.379  0.336  0.096  0.005  0.001  0.001
 0.580  1.379  0.337  0.097  0.006  0.002  0.002
 0.582  1.379  0.337  0.098  0.006  0.002  0.002
 0.584  1.380  0.337  0.098  0.006  0.003  0.003
 0.586  1.380  0.337  0.099  0.006  0.004  0.004
 0.588  1.380  0.337  0.099  0.007  0.004  0.004
 0.590  1.380  0.337  0.100  0.007  0.005  0.005
 0.592  1.380  0.337  0.100  0.008  0.006  0.006
 0.594  1.382  0.337  0.101  0.008  0.006  0.006
 0.596  1.382  0.337  0.101  0.009  0.006  0.006
 0.598  1.382  0.337  0.102  0.009  0.007  0.007
 0.600  1.382  0.337  0.102  0.009  0.008  0.008
 0.602  1.382  0.337  0.102  0.009  0.008  0.008
 0.604  1.382  0.337  0.102  0.010  0.009  0.009
 0.606  1.382  0.337  0.103  0.010  0.010  0.010
 0.608  1.382  0.337  0.103  0.011  0.010  0.010
 0.610  1.382  0.337  0.103  0.011  0.010  0.010
 0.612  1.382  0.337  0.103  0.011  0.011  0.011
 0.614  1.382  0.337  0.103  0.012  0.012  0.012
 0.616  1.382  0.337  0.103  0.012  0.012  0.012
 0.618  1.382  0.337  0.103  0.012  0.012  0.012
 0.620  1.382  0.337  0.103  0.012  0.013  0.013
 0.622  1.382  0.337  0.103  0.012  0.014  0.014
 0.624  1.382  0.337  0.103  0.012  0.014  0.014
 0.626  1.380  0.337  0.103  0.013  0.014  0.014
 0.628  1.380  0.337  0.102  0.013  0.014  0.014
 0.630  1.380  0.337  0.102  0.013  0.015  0.015
 0.632  1.380  0.337  0.102  0.013  0.016  0.016
 0.634  1.380  0.336  0.101  0.014  0.016  0.016
 0.636  1.379  0.336  0.101  0.014  0.016  0.016
 0.638  1.379  0.336  0.101  0.014  0.016  0.016
 0.640  1.379  0.336  0.100  0.014  0.017  0.017
 0.642  1.379  0.336  0.100  0.014  0.017  0.017
 0.644  1.378  0.336  0.099  0.015  0.018  0.018
 0.646  1.378  0.335  0.099  0.015  0.018  0.018
 0.648  1.378  0.335  0.098  0.015  0.018  0.018
 0.650  1.377  0.335  0.098  0.015  0.018  0.018
 0.652  1.377  0.335  0.097  0.015  0.019  0.019
 0.654  1.377  0.333  0.097  0.015  0.019  0.019
 0.656  1.377  0.333  0.096  0.015  0.019  0.019
 0.658  1.375  0.333  0.096  0.015  0.020  0.020
 0.660  1.375  0.333  0.096  0.015  0.020  0.020
 0.662  1.375  0.332  0.095  0.015  0.020  0.020
 0.664  1.374  0.332  0.095  0.015  0.020  0.020
 0.666  1.374  0.332  0.094  0.016  0.021  0.021
 0.668  1.374  0.331  0.094  0.016  0.021  0.021
 0.670  1.373  0.331  0.093  0.016  0.021  0.021
 0.672  1.373  0.331  0.093  0.016  0.022  0.022
 0.674  1.373  0.329  0.093  0.016  0.022  0.022
 0.676  1.371  0.329  0.092  0.017  0.022  0.022
 0.678  1.371  0.329  0.092  0.017  0.022  0.022
 0.680  1.371  0.328  0.092  0.017  0.023  0.023
 0.682  1.371  0.328  0.091  0.017  0.023  0.023
 0.684  1.370  0.327  0.091  0.018  0.024  0.024
 0.686  1.370  0.327  0.091  0.018  0.024  0.024
 0.688  1.370  0.327  0.091  0.018  0.024  0.024
 0.690  1.369  0.326  0.090  0.018  0.024  0.024
 0.692  1.369  0.326  0.090  0.019  0.024  0.024
 0.694  1.369  0.324  0.090  0.019  0.025  0.025
 0.696  1.368  0.324  0.090  0.019  0.025  0.025
 0.698  1.368  0.323  0.090  0.019  0.026  0.026
 0.700  1.368  0.323  0.089  0.019  0.026  0.026
 0.702  1.366  0.322  0.089  0.019  0.026  0.026
 0.704  1.366  0.322  0.089  0.019  0.026  0.026
 0.706  1.366  0.321  0.089  0.020  0.026  0.026
 0.708  1.366  0.321  0.089  0.020  0.027  0.027
 0.710  1.365  0.319  0.089  0.020  0.027  0.027
 0.712  1.365  0.319  0.089  0.021  0.028  0.028
 0.714  1.365  0.318  0.088  0.021  0.028  0.028
 0.716  1.364  0.318  0.088  0.021  0.028  0.028
 0.718  1.364  0.317  0.088  0.022  0.028  0.028
 0.720  1.364  0.315  0.088  0.022  0.028  0.028
 0.722  1.364  0.315  0.088  0.022  0.029  0.029
 0.724  1.363  0.314  0.088  0.022  0.029  0.029
 0.726  1.363  0.314  0.088  0.022  0.030  0.030
 0.728  1.363  0.313  0.088  0.022  0.030  0.030
 0.730  1.363  0.313  0.088  0.023  0.030  0.030
 0.732  1.361  0.313  0.088  0.023  0.031  0.031
 0.734  1.361  0.313  0.088  0.023  0.032  0.032
 0.736  1.361  0.312  0.088  0.024  0.032  0.032
 0.738  1.361  0.312  0.088  0.024  0.033  0.033
 0.740  1.360  0.312  0.088  0.024  0.034  0.034
 0.742  1.360  0.312  0.088  0.024  0.034  0.034
 0.744  1.360  0.312  0.088  0.025  0.036  0.036
 0.746  1.360  0.312  0.088  0.025  0.036  0.036
 0.748  1.360  0.312  0.088  0.025  0.037  0.037
 0.750  1.360  0.313  0.088  0.025  0.038  0.038
 0.752  1.359  0.313  0.088  0.025  0.039  0.039
 0.754  1.359  0.313  0.088  0.025  0.040  0.040
 0.756  1.359  0.313  0.088  0.026  0.041  0.041
 0.758  1.359  0.314  0.088  0.026  0.042  0.042
 0.760  1.359  0.314  0.088  0.026  0.043  0.043
 0.762  1.359  0.315  0.088  0.027  0.044  0.044
 0.764  1.359  0.315  0.088  0.027  0.046  0.046
 0.766  1.359  0.317  0.088  0.027  0.047  0.047
 0.768  1.359  0.318  0.088  0.028  0.048  0.048
 0.770  1.359  0.318  0.088  0.028  0.050  0.050
 0.772  1.359  0.319  0.088  0.028  0.051  0.051
 0.774  1.359  0.321  0.088  0.028  0.052  0.052
 0.776  1.358  0.322  0.088  0.029  0.054  0.054
 0.778  1.358  0.323  0.088  0.029  0.056  0.056
 0.780  1.358  0.324  0.087  0.029  0.057  0.057
 0.782  1.358  0.326  0.087  0.029  0.059  0.059
 0.784  1.358  0.327  0.087  0.029  0.060  0.060
 0.786  1.358  0.329  0.088  0.029  0.062  0.062
 0.788  1.358  0.331  0.088  0.029  0.064  0.064
 0.790  1.359  0.332  0.088  0.030  0.066  0.066
 0.792  1.359  0.333  0.088  0.031  0.067  0.067
 0.794  1.360  0.336  0.088  0.032  0.069  0.069
 0.796  1.360  0.337  0.089  0.032  0.071  0.071
 0.798  1.361  0.338  0.089  0.033  0.072  0.072
 0.800  1.363  0.341  0.091  0.034  0.074  0.074
 0.802  1.364  0.342  0.092  0.035  0.076  0.076
 0.804  1.365  0.344  0.093  0.037  0.078  0.078
 0.806  1.366  0.346  0.095  0.038  0.080  0.080
 0.808  1.369  0.347  0.096  0.040  0.082  0.082
