# IsPeriodic    : True
# Period        : 0.640335 days
# Normalization : <g_mag>=0
# 
# Phase u_mag  g_mag  r_mag  i_mag  z_mag  y_mag
 0.000  0.864 -0.304 -0.432 -0.472 -0.439 -0.439
 0.002  0.864 -0.304 -0.432 -0.472 -0.439 -0.439
 0.004  0.865 -0.303 -0.432 -0.472 -0.439 -0.439
 0.006  0.865 -0.303 -0.432 -0.471 -0.439 -0.439
 0.008  0.866 -0.303 -0.432 -0.471 -0.439 -0.439
 0.010  0.867 -0.302 -0.432 -0.471 -0.438 -0.438
 0.012  0.868 -0.302 -0.431 -0.470 -0.437 -0.437
 0.014  0.869 -0.301 -0.431 -0.469 -0.437 -0.437
 0.016  0.871 -0.301 -0.431 -0.469 -0.436 -0.436
 0.018  0.873 -0.300 -0.430 -0.468 -0.435 -0.435
 0.020  0.874 -0.299 -0.430 -0.468 -0.435 -0.435
 0.022  0.876 -0.298 -0.430 -0.467 -0.434 -0.434
 0.024  0.878 -0.297 -0.429 -0.466 -0.433 -0.433
 0.026  0.880 -0.296 -0.428 -0.465 -0.432 -0.432
 0.028  0.882 -0.295 -0.428 -0.465 -0.431 -0.431
 0.030  0.884 -0.294 -0.427 -0.464 -0.430 -0.430
 0.032  0.886 -0.293 -0.426 -0.463 -0.429 -0.429
 0.034  0.888 -0.292 -0.426 -0.462 -0.428 -0.428
 0.036  0.890 -0.291 -0.425 -0.461 -0.427 -0.427
 0.038  0.892 -0.290 -0.424 -0.461 -0.426 -0.426
 0.040  0.894 -0.288 -0.423 -0.460 -0.425 -0.425
 0.042  0.897 -0.287 -0.422 -0.459 -0.424 -0.424
 0.044  0.899 -0.285 -0.421 -0.458 -0.423 -0.423
 0.046  0.901 -0.284 -0.420 -0.458 -0.422 -0.422
 0.048  0.903 -0.282 -0.419 -0.457 -0.421 -0.421
 0.050  0.906 -0.281 -0.418 -0.456 -0.420 -0.420
 0.052  0.908 -0.279 -0.417 -0.455 -0.419 -0.419
 0.054  0.911 -0.277 -0.416 -0.455 -0.418 -0.418
 0.056  0.913 -0.275 -0.415 -0.454 -0.417 -0.417
 0.058  0.916 -0.273 -0.413 -0.453 -0.416 -0.416
 0.060  0.918 -0.271 -0.412 -0.452 -0.416 -0.416
 0.062  0.921 -0.269 -0.411 -0.451 -0.415 -0.415
 0.064  0.923 -0.267 -0.409 -0.451 -0.414 -0.414
 0.066  0.926 -0.265 -0.408 -0.450 -0.413 -0.413
 0.068  0.929 -0.262 -0.406 -0.449 -0.412 -0.412
 0.070  0.932 -0.260 -0.404 -0.448 -0.411 -0.411
 0.072  0.934 -0.258 -0.403 -0.448 -0.411 -0.411
 0.074  0.937 -0.256 -0.401 -0.447 -0.410 -0.410
 0.076  0.941 -0.253 -0.400 -0.446 -0.409 -0.409
 0.078  0.943 -0.251 -0.398 -0.445 -0.408 -0.408
 0.080  0.946 -0.248 -0.396 -0.444 -0.407 -0.407
 0.082  0.949 -0.246 -0.395 -0.443 -0.406 -0.406
 0.084  0.952 -0.244 -0.393 -0.443 -0.405 -0.405
 0.086  0.956 -0.241 -0.391 -0.442 -0.404 -0.404
 0.088  0.958 -0.238 -0.390 -0.441 -0.404 -0.404
 0.090  0.962 -0.236 -0.388 -0.440 -0.403 -0.403
 0.092  0.964 -0.234 -0.387 -0.439 -0.402 -0.402
 0.094  0.968 -0.232 -0.385 -0.439 -0.401 -0.401
 0.096  0.971 -0.229 -0.384 -0.438 -0.400 -0.400
 0.098  0.974 -0.227 -0.382 -0.437 -0.399 -0.399
 0.100  0.977 -0.224 -0.381 -0.436 -0.399 -0.399
 0.102  0.980 -0.222 -0.380 -0.435 -0.398 -0.398
 0.104  0.983 -0.220 -0.378 -0.434 -0.397 -0.397
 0.106  0.986 -0.217 -0.377 -0.433 -0.396 -0.396
 0.108  0.989 -0.215 -0.375 -0.432 -0.396 -0.396
 0.110  0.992 -0.213 -0.374 -0.431 -0.395 -0.395
 0.112  0.995 -0.211 -0.373 -0.430 -0.394 -0.394
 0.114  0.997 -0.209 -0.371 -0.429 -0.393 -0.393
 0.116  1.000 -0.206 -0.370 -0.428 -0.392 -0.392
 0.118  1.003 -0.204 -0.369 -0.427 -0.391 -0.391
 0.120  1.006 -0.202 -0.368 -0.426 -0.391 -0.391
 0.122  1.008 -0.200 -0.367 -0.425 -0.390 -0.390
 0.124  1.011 -0.198 -0.366 -0.424 -0.389 -0.389
 0.126  1.013 -0.195 -0.365 -0.423 -0.388 -0.388
 0.128  1.016 -0.193 -0.363 -0.422 -0.388 -0.388
 0.130  1.018 -0.191 -0.362 -0.421 -0.387 -0.387
 0.132  1.021 -0.189 -0.361 -0.420 -0.386 -0.386
 0.134  1.024 -0.187 -0.360 -0.419 -0.386 -0.386
 0.136  1.026 -0.185 -0.359 -0.418 -0.385 -0.385
 0.138  1.029 -0.182 -0.358 -0.416 -0.384 -0.384
 0.140  1.031 -0.180 -0.357 -0.416 -0.383 -0.383
 0.142  1.033 -0.178 -0.356 -0.414 -0.382 -0.382
 0.144  1.036 -0.176 -0.355 -0.413 -0.382 -0.382
 0.146  1.038 -0.174 -0.354 -0.412 -0.381 -0.381
 0.148  1.041 -0.173 -0.353 -0.411 -0.380 -0.380
 0.150  1.043 -0.170 -0.353 -0.409 -0.380 -0.380
 0.152  1.045 -0.168 -0.351 -0.408 -0.379 -0.379
 0.154  1.047 -0.166 -0.351 -0.407 -0.378 -0.378
 0.156  1.050 -0.164 -0.350 -0.406 -0.377 -0.377
 0.158  1.052 -0.162 -0.349 -0.405 -0.377 -0.377
 0.160  1.054 -0.160 -0.348 -0.403 -0.376 -0.376
 0.162  1.056 -0.158 -0.347 -0.402 -0.375 -0.375
 0.164  1.059 -0.156 -0.346 -0.401 -0.375 -0.375
 0.166  1.061 -0.154 -0.345 -0.399 -0.374 -0.374
 0.168  1.063 -0.152 -0.344 -0.398 -0.373 -0.373
 0.170  1.065 -0.150 -0.343 -0.397 -0.372 -0.372
 0.172  1.067 -0.147 -0.342 -0.396 -0.372 -0.372
 0.174  1.070 -0.145 -0.341 -0.394 -0.371 -0.371
 0.176  1.072 -0.143 -0.339 -0.393 -0.371 -0.371
 0.178  1.074 -0.141 -0.338 -0.392 -0.370 -0.370
 0.180  1.076 -0.139 -0.337 -0.391 -0.369 -0.369
 0.182  1.079 -0.136 -0.336 -0.390 -0.368 -0.368
 0.184  1.081 -0.134 -0.335 -0.389 -0.368 -0.368
 0.186  1.084 -0.132 -0.333 -0.388 -0.367 -0.367
 0.188  1.086 -0.130 -0.332 -0.387 -0.366 -0.366
 0.190  1.088 -0.127 -0.331 -0.386 -0.366 -0.366
 0.192  1.091 -0.125 -0.330 -0.385 -0.365 -0.365
 0.194  1.093 -0.123 -0.329 -0.383 -0.364 -0.364
 0.196  1.095 -0.120 -0.327 -0.382 -0.364 -0.364
 0.198  1.098 -0.118 -0.326 -0.382 -0.363 -0.363
 0.200  1.100 -0.116 -0.325 -0.381 -0.362 -0.362
 0.202  1.103 -0.113 -0.323 -0.380 -0.362 -0.362
 0.204  1.105 -0.111 -0.322 -0.379 -0.361 -0.361
 0.206  1.107 -0.109 -0.321 -0.378 -0.360 -0.360
 0.208  1.110 -0.107 -0.319 -0.377 -0.360 -0.360
 0.210  1.112 -0.104 -0.318 -0.376 -0.359 -0.359
 0.212  1.115 -0.102 -0.316 -0.375 -0.358 -0.358
 0.214  1.118 -0.099 -0.315 -0.374 -0.358 -0.358
 0.216  1.120 -0.097 -0.313 -0.373 -0.357 -0.357
 0.218  1.123 -0.095 -0.312 -0.373 -0.356 -0.356
 0.220  1.125 -0.092 -0.310 -0.372 -0.356 -0.356
 0.222  1.128 -0.090 -0.309 -0.371 -0.355 -0.355
 0.224  1.131 -0.087 -0.307 -0.370 -0.354 -0.354
 0.226  1.133 -0.085 -0.306 -0.369 -0.354 -0.354
 0.228  1.136 -0.083 -0.304 -0.369 -0.353 -0.353
 0.230  1.139 -0.080 -0.303 -0.368 -0.352 -0.352
 0.232  1.141 -0.078 -0.301 -0.367 -0.352 -0.352
 0.234  1.144 -0.075 -0.300 -0.366 -0.351 -0.351
 0.236  1.146 -0.073 -0.298 -0.366 -0.350 -0.350
 0.238  1.149 -0.071 -0.297 -0.365 -0.350 -0.350
 0.240  1.151 -0.069 -0.295 -0.364 -0.349 -0.349
 0.242  1.154 -0.066 -0.294 -0.363 -0.348 -0.348
 0.244  1.156 -0.064 -0.292 -0.363 -0.348 -0.348
 0.246  1.159 -0.061 -0.291 -0.362 -0.347 -0.347
 0.248  1.161 -0.059 -0.289 -0.361 -0.346 -0.346
 0.250  1.164 -0.057 -0.288 -0.360 -0.346 -0.346
 0.252  1.166 -0.054 -0.286 -0.359 -0.345 -0.345
 0.254  1.169 -0.052 -0.285 -0.358 -0.344 -0.344
 0.256  1.171 -0.050 -0.283 -0.357 -0.343 -0.343
 0.258  1.173 -0.047 -0.282 -0.356 -0.343 -0.343
 0.260  1.175 -0.045 -0.280 -0.356 -0.342 -0.342
 0.262  1.178 -0.042 -0.279 -0.355 -0.341 -0.341
 0.264  1.180 -0.040 -0.277 -0.354 -0.340 -0.340
 0.266  1.182 -0.038 -0.276 -0.353 -0.340 -0.340
 0.268  1.184 -0.036 -0.274 -0.352 -0.339 -0.339
 0.270  1.186 -0.033 -0.273 -0.351 -0.338 -0.338
 0.272  1.189 -0.031 -0.271 -0.350 -0.337 -0.337
 0.274  1.191 -0.029 -0.270 -0.349 -0.337 -0.337
 0.276  1.193 -0.026 -0.268 -0.348 -0.336 -0.336
 0.278  1.195 -0.024 -0.267 -0.347 -0.335 -0.335
 0.280  1.197 -0.022 -0.265 -0.346 -0.334 -0.334
 0.282  1.199 -0.019 -0.264 -0.345 -0.333 -0.333
 0.284  1.201 -0.017 -0.262 -0.344 -0.332 -0.332
 0.286  1.203 -0.015 -0.261 -0.343 -0.332 -0.332
 0.288  1.205 -0.013 -0.259 -0.341 -0.331 -0.331
 0.290  1.207 -0.010 -0.258 -0.341 -0.330 -0.330
 0.292  1.209 -0.008 -0.256 -0.339 -0.329 -0.329
 0.294  1.210 -0.006 -0.255 -0.338 -0.328 -0.328
 0.296  1.212 -0.004 -0.253 -0.337 -0.327 -0.327
 0.298  1.214 -0.001 -0.252 -0.336 -0.326 -0.326
 0.300  1.216  0.001 -0.250 -0.335 -0.325 -0.325
 0.302  1.218  0.003 -0.249 -0.333 -0.324 -0.324
 0.304  1.219  0.005 -0.248 -0.332 -0.324 -0.324
 0.306  1.221  0.007 -0.246 -0.331 -0.323 -0.323
 0.308  1.223  0.009 -0.245 -0.330 -0.322 -0.322
 0.310  1.224  0.011 -0.244 -0.329 -0.321 -0.321
 0.312  1.227  0.013 -0.242 -0.327 -0.320 -0.320
 0.314  1.228  0.015 -0.241 -0.326 -0.319 -0.319
 0.316  1.230  0.017 -0.240 -0.325 -0.318 -0.318
 0.318  1.232  0.019 -0.238 -0.324 -0.317 -0.317
 0.320  1.233  0.021 -0.237 -0.323 -0.316 -0.316
 0.322  1.235  0.023 -0.236 -0.322 -0.315 -0.315
 0.324  1.237  0.024 -0.234 -0.320 -0.314 -0.314
 0.326  1.238  0.027 -0.233 -0.319 -0.313 -0.313
 0.328  1.240  0.028 -0.232 -0.318 -0.312 -0.312
 0.330  1.242  0.030 -0.231 -0.317 -0.312 -0.312
 0.332  1.244  0.032 -0.230 -0.316 -0.311 -0.311
 0.334  1.245  0.033 -0.229 -0.315 -0.310 -0.310
 0.336  1.247  0.035 -0.228 -0.314 -0.309 -0.309
 0.338  1.249  0.037 -0.227 -0.312 -0.308 -0.308
 0.340  1.250  0.039 -0.225 -0.311 -0.307 -0.307
 0.342  1.252  0.040 -0.224 -0.310 -0.306 -0.306
 0.344  1.254  0.042 -0.223 -0.309 -0.306 -0.306
 0.346  1.256  0.043 -0.222 -0.308 -0.305 -0.305
 0.348  1.258  0.045 -0.221 -0.307 -0.304 -0.304
 0.350  1.259  0.046 -0.220 -0.306 -0.303 -0.303
 0.352  1.261  0.048 -0.219 -0.305 -0.302 -0.302
 0.354  1.263  0.049 -0.218 -0.304 -0.302 -0.302
 0.356  1.264  0.051 -0.217 -0.303 -0.301 -0.301
 0.358  1.266  0.052 -0.216 -0.302 -0.300 -0.300
 0.360  1.268  0.053 -0.216 -0.300 -0.299 -0.299
 0.362  1.269  0.055 -0.215 -0.299 -0.299 -0.299
 0.364  1.272  0.056 -0.214 -0.298 -0.298 -0.298
 0.366  1.273  0.057 -0.213 -0.297 -0.297 -0.297
 0.368  1.275  0.059 -0.212 -0.296 -0.296 -0.296
 0.370  1.277  0.061 -0.211 -0.295 -0.295 -0.295
 0.372  1.278  0.062 -0.210 -0.294 -0.295 -0.295
 0.374  1.280  0.063 -0.209 -0.293 -0.294 -0.294
 0.376  1.282  0.065 -0.208 -0.292 -0.293 -0.293
 0.378  1.283  0.066 -0.208 -0.291 -0.293 -0.293
 0.380  1.285  0.067 -0.207 -0.290 -0.292 -0.292
 0.382  1.287  0.069 -0.206 -0.289 -0.291 -0.291
 0.384  1.289  0.070 -0.205 -0.288 -0.290 -0.290
 0.386  1.291  0.072 -0.204 -0.287 -0.290 -0.290
 0.388  1.292  0.074 -0.203 -0.286 -0.289 -0.289
 0.390  1.294  0.075 -0.202 -0.285 -0.288 -0.288
 0.392  1.296  0.076 -0.201 -0.284 -0.288 -0.288
 0.394  1.297  0.078 -0.200 -0.283 -0.287 -0.287
 0.396  1.298  0.079 -0.200 -0.282 -0.286 -0.286
 0.398  1.300  0.081 -0.199 -0.281 -0.285 -0.285
 0.400  1.302  0.082 -0.198 -0.280 -0.285 -0.285
 0.402  1.303  0.084 -0.197 -0.279 -0.284 -0.284
 0.404  1.305  0.086 -0.196 -0.278 -0.283 -0.283
 0.406  1.307  0.087 -0.195 -0.277 -0.282 -0.282
 0.408  1.308  0.089 -0.195 -0.277 -0.281 -0.281
 0.410  1.310  0.090 -0.193 -0.276 -0.280 -0.280
 0.412  1.311  0.092 -0.193 -0.275 -0.280 -0.280
 0.414  1.313  0.093 -0.192 -0.274 -0.279 -0.279
 0.416  1.314  0.096 -0.191 -0.273 -0.278 -0.278
 0.418  1.316  0.097 -0.190 -0.272 -0.277 -0.277
 0.420  1.317  0.099 -0.189 -0.271 -0.276 -0.276
 0.422  1.319  0.100 -0.188 -0.270 -0.275 -0.275
 0.424  1.321  0.102 -0.187 -0.269 -0.274 -0.274
 0.426  1.322  0.104 -0.187 -0.268 -0.274 -0.274
 0.428  1.323  0.105 -0.185 -0.267 -0.273 -0.273
 0.430  1.325  0.107 -0.185 -0.266 -0.272 -0.272
 0.432  1.327  0.109 -0.184 -0.265 -0.271 -0.271
 0.434  1.328  0.111 -0.183 -0.265 -0.270 -0.270
 0.436  1.329  0.112 -0.182 -0.264 -0.269 -0.269
 0.438  1.331  0.114 -0.181 -0.263 -0.268 -0.268
 0.440  1.332  0.115 -0.180 -0.262 -0.267 -0.267
 0.442  1.334  0.117 -0.180 -0.261 -0.266 -0.266
 0.444  1.335  0.119 -0.179 -0.260 -0.265 -0.265
 0.446  1.337  0.120 -0.178 -0.259 -0.264 -0.264
 0.448  1.338  0.122 -0.177 -0.258 -0.263 -0.263
 0.450  1.339  0.123 -0.176 -0.258 -0.262 -0.262
 0.452  1.341  0.125 -0.175 -0.257 -0.261 -0.261
 0.454  1.342  0.126 -0.175 -0.256 -0.260 -0.260
 0.456  1.343  0.128 -0.174 -0.255 -0.259 -0.259
 0.458  1.345  0.129 -0.173 -0.254 -0.258 -0.258
 0.460  1.346  0.131 -0.172 -0.254 -0.257 -0.257
 0.462  1.347  0.132 -0.171 -0.253 -0.256 -0.256
 0.464  1.348  0.133 -0.171 -0.252 -0.255 -0.255
 0.466  1.349  0.135 -0.170 -0.251 -0.254 -0.254
 0.468  1.350  0.136 -0.169 -0.250 -0.253 -0.253
 0.470  1.351  0.137 -0.168 -0.249 -0.252 -0.252
 0.472  1.352  0.138 -0.167 -0.248 -0.252 -0.252
 0.474  1.353  0.139 -0.167 -0.248 -0.251 -0.251
 0.476  1.355  0.140 -0.166 -0.247 -0.250 -0.250
 0.478  1.356  0.142 -0.165 -0.246 -0.249 -0.249
 0.480  1.357  0.143 -0.164 -0.245 -0.248 -0.248
 0.482  1.357  0.144 -0.164 -0.244 -0.248 -0.248
 0.484  1.358  0.145 -0.163 -0.243 -0.247 -0.247
 0.486  1.360  0.146 -0.162 -0.243 -0.246 -0.246
 0.488  1.360  0.147 -0.161 -0.242 -0.246 -0.246
 0.490  1.361  0.148 -0.161 -0.241 -0.245 -0.245
 0.492  1.362  0.149 -0.160 -0.240 -0.244 -0.244
 0.494  1.362  0.150 -0.159 -0.239 -0.243 -0.243
 0.496  1.363  0.151 -0.159 -0.239 -0.243 -0.243
 0.498  1.364  0.152 -0.158 -0.238 -0.242 -0.242
 0.500  1.365  0.153 -0.157 -0.237 -0.242 -0.242
 0.502  1.366  0.154 -0.156 -0.236 -0.241 -0.241
 0.504  1.366  0.155 -0.156 -0.235 -0.240 -0.240
 0.506  1.367  0.155 -0.155 -0.234 -0.240 -0.240
 0.508  1.367  0.156 -0.155 -0.234 -0.239 -0.239
 0.510  1.368  0.157 -0.154 -0.233 -0.238 -0.238
 0.512  1.368  0.158 -0.153 -0.232 -0.238 -0.238
 0.514  1.369  0.158 -0.152 -0.231 -0.237 -0.237
 0.516  1.370  0.159 -0.152 -0.230 -0.237 -0.237
 0.518  1.370  0.160 -0.151 -0.230 -0.237 -0.237
 0.520  1.371  0.161 -0.151 -0.229 -0.236 -0.236
 0.522  1.371  0.161 -0.150 -0.228 -0.236 -0.236
 0.524  1.372  0.162 -0.150 -0.227 -0.235 -0.235
 0.526  1.372  0.163 -0.149 -0.226 -0.235 -0.235
 0.528  1.372  0.163 -0.148 -0.226 -0.234 -0.234
 0.530  1.373  0.164 -0.148 -0.225 -0.234 -0.234
 0.532  1.373  0.165 -0.147 -0.224 -0.233 -0.233
 0.534  1.374  0.166 -0.147 -0.223 -0.233 -0.233
 0.536  1.375  0.167 -0.146 -0.223 -0.232 -0.232
 0.538  1.375  0.167 -0.146 -0.222 -0.232 -0.232
 0.540  1.376  0.168 -0.145 -0.221 -0.232 -0.232
 0.542  1.376  0.169 -0.144 -0.220 -0.231 -0.231
 0.544  1.376  0.169 -0.144 -0.220 -0.231 -0.231
 0.546  1.377  0.170 -0.143 -0.219 -0.230 -0.230
 0.548  1.377  0.170 -0.143 -0.218 -0.230 -0.230
 0.550  1.378  0.171 -0.142 -0.218 -0.229 -0.229
 0.552  1.378  0.172 -0.142 -0.217 -0.229 -0.229
 0.554  1.378  0.172 -0.141 -0.216 -0.228 -0.228
 0.556  1.379  0.173 -0.140 -0.216 -0.228 -0.228
 0.558  1.380  0.173 -0.140 -0.215 -0.227 -0.227
 0.560  1.380  0.174 -0.140 -0.214 -0.227 -0.227
 0.562  1.380  0.175 -0.139 -0.214 -0.227 -0.227
 0.564  1.381  0.175 -0.139 -0.213 -0.226 -0.226
 0.566  1.381  0.176 -0.138 -0.213 -0.226 -0.226
 0.568  1.381  0.177 -0.138 -0.212 -0.225 -0.225
 0.570  1.382  0.177 -0.137 -0.211 -0.225 -0.225
 0.572  1.382  0.178 -0.137 -0.210 -0.224 -0.224
 0.574  1.383  0.178 -0.136 -0.210 -0.224 -0.224
 0.576  1.383  0.179 -0.136 -0.209 -0.223 -0.223
 0.578  1.383  0.179 -0.135 -0.209 -0.223 -0.223
 0.580  1.384  0.180 -0.135 -0.208 -0.222 -0.222
 0.582  1.384  0.180 -0.135 -0.208 -0.222 -0.222
 0.584  1.385  0.181 -0.134 -0.207 -0.221 -0.221
 0.586  1.385  0.181 -0.134 -0.206 -0.221 -0.221
 0.588  1.385  0.182 -0.133 -0.206 -0.220 -0.220
 0.590  1.386  0.182 -0.133 -0.205 -0.220 -0.220
 0.592  1.386  0.183 -0.132 -0.205 -0.219 -0.219
 0.594  1.386  0.183 -0.132 -0.204 -0.219 -0.219
 0.596  1.387  0.183 -0.131 -0.204 -0.218 -0.218
 0.598  1.387  0.184 -0.131 -0.203 -0.218 -0.218
 0.600  1.387  0.184 -0.130 -0.203 -0.218 -0.218
 0.602  1.388  0.185 -0.130 -0.202 -0.217 -0.217
 0.604  1.388  0.185 -0.129 -0.202 -0.217 -0.217
 0.606  1.388  0.185 -0.129 -0.201 -0.216 -0.216
 0.608  1.388  0.185 -0.128 -0.201 -0.215 -0.215
 0.610  1.389  0.186 -0.128 -0.200 -0.215 -0.215
 0.612  1.389  0.186 -0.127 -0.200 -0.214 -0.214
 0.614  1.390  0.186 -0.127 -0.199 -0.214 -0.214
 0.616  1.390  0.186 -0.126 -0.199 -0.213 -0.213
 0.618  1.390  0.187 -0.126 -0.198 -0.213 -0.213
 0.620  1.390  0.187 -0.125 -0.198 -0.212 -0.212
 0.622  1.390  0.187 -0.124 -0.198 -0.212 -0.212
 0.624  1.391  0.187 -0.124 -0.197 -0.211 -0.211
 0.626  1.391  0.187 -0.123 -0.197 -0.210 -0.210
 0.628  1.391  0.188 -0.123 -0.196 -0.210 -0.210
 0.630  1.391  0.188 -0.122 -0.196 -0.209 -0.209
 0.632  1.391  0.188 -0.121 -0.195 -0.208 -0.208
 0.634  1.391  0.188 -0.121 -0.195 -0.208 -0.208
 0.636  1.391  0.188 -0.120 -0.194 -0.207 -0.207
 0.638  1.392  0.188 -0.119 -0.194 -0.206 -0.206
 0.640  1.392  0.189 -0.119 -0.194 -0.206 -0.206
 0.642  1.392  0.189 -0.118 -0.193 -0.205 -0.205
 0.644  1.392  0.189 -0.118 -0.193 -0.204 -0.204
 0.646  1.392  0.189 -0.117 -0.192 -0.204 -0.204
 0.648  1.392  0.189 -0.116 -0.192 -0.203 -0.203
 0.650  1.392  0.189 -0.115 -0.192 -0.202 -0.202
 0.652  1.392  0.189 -0.115 -0.191 -0.202 -0.202
 0.654  1.392  0.189 -0.114 -0.191 -0.201 -0.201
 0.656  1.392  0.189 -0.113 -0.190 -0.200 -0.200
 0.658  1.392  0.189 -0.112 -0.190 -0.199 -0.199
 0.660  1.392  0.189 -0.112 -0.190 -0.198 -0.198
 0.662  1.392  0.190 -0.111 -0.190 -0.198 -0.198
 0.664  1.393  0.190 -0.110 -0.189 -0.197 -0.197
 0.666  1.393  0.190 -0.109 -0.189 -0.196 -0.196
 0.668  1.393  0.191 -0.108 -0.188 -0.195 -0.195
 0.670  1.393  0.191 -0.107 -0.188 -0.194 -0.194
 0.672  1.393  0.191 -0.106 -0.187 -0.194 -0.194
 0.674  1.393  0.192 -0.105 -0.187 -0.193 -0.193
 0.676  1.393  0.192 -0.104 -0.186 -0.192 -0.192
 0.678  1.394  0.193 -0.103 -0.186 -0.191 -0.191
 0.680  1.394  0.193 -0.102 -0.186 -0.190 -0.190
 0.682  1.395  0.194 -0.101 -0.185 -0.189 -0.189
 0.684  1.395  0.195 -0.100 -0.184 -0.188 -0.188
 0.686  1.395  0.195 -0.099 -0.184 -0.187 -0.187
 0.688  1.395  0.196 -0.097 -0.183 -0.186 -0.186
 0.690  1.396  0.197 -0.096 -0.183 -0.184 -0.184
 0.692  1.396  0.197 -0.095 -0.182 -0.184 -0.184
 0.694  1.396  0.198 -0.094 -0.182 -0.182 -0.182
 0.696  1.397  0.199 -0.092 -0.181 -0.181 -0.181
 0.698  1.397  0.200 -0.091 -0.181 -0.180 -0.180
 0.700  1.398  0.201 -0.090 -0.180 -0.179 -0.179
 0.702  1.398  0.202 -0.088 -0.179 -0.177 -0.177
 0.704  1.398  0.203 -0.087 -0.179 -0.176 -0.176
 0.706  1.399  0.204 -0.085 -0.178 -0.174 -0.174
 0.708  1.400  0.205 -0.084 -0.178 -0.173 -0.173
 0.710  1.400  0.206 -0.082 -0.177 -0.172 -0.172
 0.712  1.401  0.208 -0.081 -0.176 -0.170 -0.170
 0.714  1.402  0.209 -0.079 -0.175 -0.169 -0.169
 0.716  1.402  0.210 -0.078 -0.175 -0.167 -0.167
 0.718  1.403  0.212 -0.076 -0.174 -0.166 -0.166
 0.720  1.403  0.213 -0.075 -0.173 -0.164 -0.164
 0.722  1.405  0.214 -0.073 -0.172 -0.163 -0.163
 0.724  1.405  0.215 -0.072 -0.171 -0.161 -0.161
 0.726  1.406  0.216 -0.071 -0.171 -0.159 -0.159
 0.728  1.407  0.216 -0.070 -0.170 -0.158 -0.158
 0.730  1.407  0.217 -0.070 -0.169 -0.156 -0.156
 0.732  1.408  0.218 -0.069 -0.168 -0.154 -0.154
 0.734  1.409  0.218 -0.069 -0.168 -0.152 -0.152
 0.736  1.410  0.218 -0.069 -0.167 -0.151 -0.151
 0.738  1.410  0.219 -0.069 -0.167 -0.149 -0.149
 0.740  1.411  0.219 -0.070 -0.166 -0.147 -0.147
 0.742  1.412  0.219 -0.070 -0.166 -0.146 -0.146
 0.744  1.412  0.219 -0.071 -0.166 -0.144 -0.144
 0.746  1.413  0.218 -0.072 -0.165 -0.143 -0.143
 0.748  1.414  0.218 -0.073 -0.165 -0.141 -0.141
 0.750  1.414  0.217 -0.074 -0.165 -0.140 -0.140
 0.752  1.415  0.217 -0.076 -0.166 -0.138 -0.138
 0.754  1.415  0.216 -0.078 -0.166 -0.137 -0.137
 0.756  1.416  0.215 -0.079 -0.166 -0.136 -0.136
 0.758  1.416  0.214 -0.082 -0.167 -0.135 -0.135
 0.760  1.417  0.213 -0.084 -0.168 -0.134 -0.134
 0.762  1.417  0.212 -0.086 -0.168 -0.133 -0.133
 0.764  1.417  0.211 -0.089 -0.169 -0.132 -0.132
 0.766  1.418  0.209 -0.091 -0.170 -0.131 -0.131
 0.768  1.419  0.208 -0.095 -0.171 -0.131 -0.131
 0.770  1.419  0.206 -0.098 -0.172 -0.130 -0.130
 0.772  1.419  0.205 -0.102 -0.173 -0.130 -0.130
 0.774  1.419  0.203 -0.105 -0.175 -0.129 -0.129
 0.776  1.419  0.201 -0.109 -0.176 -0.129 -0.129
 0.778  1.420  0.199 -0.113 -0.178 -0.128 -0.128
 0.780  1.420  0.197 -0.118 -0.179 -0.128 -0.128
 0.782  1.420  0.194 -0.122 -0.181 -0.128 -0.128
 0.784  1.420  0.192 -0.127 -0.183 -0.127 -0.127
 0.786  1.420  0.190 -0.131 -0.185 -0.127 -0.127
 0.788  1.420  0.187 -0.136 -0.186 -0.127 -0.127
 0.790  1.420  0.184 -0.141 -0.189 -0.127 -0.127
 0.792  1.421  0.181 -0.146 -0.191 -0.127 -0.127
 0.794  1.421  0.178 -0.151 -0.193 -0.128 -0.128
 0.796  1.421  0.175 -0.156 -0.196 -0.128 -0.128
 0.798  1.421  0.171 -0.161 -0.198 -0.128 -0.128
 0.800  1.421  0.168 -0.166 -0.201 -0.129 -0.129
 0.802  1.420  0.164 -0.171 -0.204 -0.129 -0.129
 0.804  1.420  0.160 -0.176 -0.206 -0.130 -0.130
 0.806  1.420  0.157 -0.181 -0.209 -0.130 -0.130
 0.808  1.419  0.152 -0.187 -0.212 -0.131 -0.131
