# IsPeriodic    : True
# Period        : 0.614430 days
# Normalization : <g_mag>=0
# 
# Phase u_mag  g_mag  r_mag  i_mag  z_mag  y_mag
 0.000  0.678 -0.449 -0.482 -0.479 -0.484 -0.484
 0.002  0.679 -0.449 -0.482 -0.479 -0.484 -0.484
 0.004  0.679 -0.449 -0.482 -0.479 -0.483 -0.483
 0.006  0.680 -0.448 -0.482 -0.478 -0.483 -0.483
 0.008  0.682 -0.447 -0.481 -0.478 -0.483 -0.483
 0.010  0.684 -0.446 -0.480 -0.478 -0.483 -0.483
 0.012  0.685 -0.444 -0.480 -0.477 -0.482 -0.482
 0.014  0.688 -0.443 -0.479 -0.476 -0.482 -0.482
 0.016  0.690 -0.441 -0.478 -0.475 -0.481 -0.481
 0.018  0.693 -0.440 -0.477 -0.475 -0.481 -0.481
 0.020  0.695 -0.437 -0.476 -0.474 -0.480 -0.480
 0.022  0.698 -0.435 -0.475 -0.473 -0.479 -0.479
 0.024  0.701 -0.433 -0.474 -0.472 -0.479 -0.479
 0.026  0.704 -0.431 -0.473 -0.471 -0.478 -0.478
 0.028  0.707 -0.429 -0.472 -0.470 -0.477 -0.477
 0.030  0.710 -0.426 -0.470 -0.469 -0.476 -0.476
 0.032  0.712 -0.424 -0.469 -0.468 -0.476 -0.476
 0.034  0.715 -0.422 -0.468 -0.467 -0.475 -0.475
 0.036  0.719 -0.420 -0.466 -0.466 -0.474 -0.474
 0.038  0.722 -0.417 -0.465 -0.465 -0.473 -0.473
 0.040  0.724 -0.414 -0.463 -0.464 -0.472 -0.472
 0.042  0.727 -0.411 -0.462 -0.463 -0.471 -0.471
 0.044  0.731 -0.408 -0.460 -0.462 -0.471 -0.471
 0.046  0.734 -0.406 -0.459 -0.461 -0.469 -0.469
 0.048  0.738 -0.403 -0.457 -0.460 -0.469 -0.469
 0.050  0.741 -0.399 -0.455 -0.459 -0.468 -0.468
 0.052  0.745 -0.396 -0.454 -0.458 -0.467 -0.467
 0.054  0.749 -0.392 -0.452 -0.456 -0.466 -0.466
 0.056  0.753 -0.388 -0.450 -0.455 -0.464 -0.464
 0.058  0.757 -0.385 -0.448 -0.454 -0.463 -0.463
 0.060  0.761 -0.381 -0.446 -0.453 -0.462 -0.462
 0.062  0.765 -0.377 -0.444 -0.452 -0.461 -0.461
 0.064  0.770 -0.374 -0.441 -0.451 -0.459 -0.459
 0.066  0.773 -0.370 -0.439 -0.449 -0.458 -0.458
 0.068  0.778 -0.365 -0.437 -0.448 -0.457 -0.457
 0.070  0.783 -0.361 -0.435 -0.447 -0.455 -0.455
 0.072  0.787 -0.357 -0.433 -0.446 -0.454 -0.454
 0.074  0.792 -0.353 -0.430 -0.444 -0.452 -0.452
 0.076  0.796 -0.348 -0.428 -0.443 -0.451 -0.451
 0.078  0.801 -0.344 -0.425 -0.442 -0.450 -0.450
 0.080  0.806 -0.339 -0.422 -0.440 -0.449 -0.449
 0.082  0.810 -0.335 -0.420 -0.439 -0.447 -0.447
 0.084  0.815 -0.331 -0.417 -0.438 -0.446 -0.446
 0.086  0.819 -0.327 -0.415 -0.437 -0.444 -0.444
 0.088  0.823 -0.322 -0.412 -0.435 -0.443 -0.443
 0.090  0.828 -0.318 -0.410 -0.434 -0.442 -0.442
 0.092  0.832 -0.314 -0.407 -0.433 -0.440 -0.440
 0.094  0.837 -0.310 -0.405 -0.431 -0.439 -0.439
 0.096  0.841 -0.306 -0.402 -0.430 -0.438 -0.438
 0.098  0.845 -0.302 -0.400 -0.429 -0.436 -0.436
 0.100  0.849 -0.298 -0.397 -0.427 -0.435 -0.435
 0.102  0.853 -0.294 -0.395 -0.426 -0.434 -0.434
 0.104  0.857 -0.291 -0.393 -0.425 -0.433 -0.433
 0.106  0.861 -0.287 -0.390 -0.423 -0.432 -0.432
 0.108  0.865 -0.283 -0.388 -0.422 -0.430 -0.430
 0.110  0.869 -0.279 -0.386 -0.421 -0.429 -0.429
 0.112  0.873 -0.276 -0.384 -0.420 -0.428 -0.428
 0.114  0.877 -0.272 -0.382 -0.418 -0.427 -0.427
 0.116  0.880 -0.269 -0.380 -0.417 -0.426 -0.426
 0.118  0.883 -0.265 -0.378 -0.416 -0.424 -0.424
 0.120  0.887 -0.262 -0.375 -0.414 -0.423 -0.423
 0.122  0.891 -0.259 -0.373 -0.413 -0.422 -0.422
 0.124  0.894 -0.256 -0.371 -0.412 -0.421 -0.421
 0.126  0.897 -0.252 -0.369 -0.410 -0.420 -0.420
 0.128  0.900 -0.249 -0.367 -0.409 -0.419 -0.419
 0.130  0.904 -0.246 -0.366 -0.408 -0.418 -0.418
 0.132  0.907 -0.243 -0.364 -0.406 -0.417 -0.417
 0.134  0.910 -0.240 -0.362 -0.405 -0.416 -0.416
 0.136  0.913 -0.237 -0.360 -0.404 -0.415 -0.415
 0.138  0.916 -0.234 -0.359 -0.403 -0.414 -0.414
 0.140  0.919 -0.231 -0.357 -0.402 -0.413 -0.413
 0.142  0.922 -0.228 -0.355 -0.400 -0.412 -0.412
 0.144  0.924 -0.225 -0.353 -0.399 -0.411 -0.411
 0.146  0.927 -0.223 -0.352 -0.398 -0.410 -0.410
 0.148  0.930 -0.220 -0.350 -0.397 -0.409 -0.409
 0.150  0.932 -0.217 -0.349 -0.395 -0.408 -0.408
 0.152  0.935 -0.214 -0.347 -0.394 -0.407 -0.407
 0.154  0.938 -0.212 -0.345 -0.393 -0.406 -0.406
 0.156  0.940 -0.209 -0.344 -0.391 -0.405 -0.405
 0.158  0.943 -0.207 -0.342 -0.390 -0.404 -0.404
 0.160  0.945 -0.204 -0.341 -0.389 -0.403 -0.403
 0.162  0.948 -0.201 -0.339 -0.388 -0.402 -0.402
 0.164  0.950 -0.198 -0.338 -0.387 -0.401 -0.401
 0.166  0.953 -0.196 -0.336 -0.385 -0.400 -0.400
 0.168  0.956 -0.193 -0.335 -0.384 -0.399 -0.399
 0.170  0.958 -0.190 -0.334 -0.383 -0.399 -0.399
 0.172  0.961 -0.187 -0.332 -0.382 -0.398 -0.398
 0.174  0.964 -0.184 -0.331 -0.381 -0.397 -0.397
 0.176  0.967 -0.181 -0.329 -0.380 -0.396 -0.396
 0.178  0.969 -0.178 -0.328 -0.378 -0.395 -0.395
 0.180  0.972 -0.175 -0.326 -0.377 -0.394 -0.394
 0.182  0.975 -0.173 -0.325 -0.376 -0.393 -0.393
 0.184  0.977 -0.170 -0.323 -0.375 -0.392 -0.392
 0.186  0.980 -0.167 -0.321 -0.374 -0.391 -0.391
 0.188  0.983 -0.164 -0.320 -0.372 -0.390 -0.390
 0.190  0.985 -0.161 -0.318 -0.371 -0.389 -0.389
 0.192  0.988 -0.158 -0.316 -0.370 -0.388 -0.388
 0.194  0.991 -0.155 -0.315 -0.369 -0.387 -0.387
 0.196  0.993 -0.153 -0.313 -0.368 -0.386 -0.386
 0.198  0.996 -0.150 -0.312 -0.366 -0.385 -0.385
 0.200  0.999 -0.147 -0.310 -0.365 -0.384 -0.384
 0.202  1.001 -0.144 -0.309 -0.364 -0.383 -0.383
 0.204  1.004 -0.141 -0.307 -0.363 -0.382 -0.382
 0.206  1.007 -0.138 -0.306 -0.362 -0.381 -0.381
 0.208  1.010 -0.135 -0.304 -0.361 -0.381 -0.381
 0.210  1.012 -0.132 -0.302 -0.359 -0.379 -0.379
 0.212  1.015 -0.129 -0.300 -0.359 -0.379 -0.379
 0.214  1.018 -0.127 -0.299 -0.357 -0.378 -0.378
 0.216  1.021 -0.124 -0.297 -0.356 -0.377 -0.377
 0.218  1.024 -0.121 -0.295 -0.355 -0.376 -0.376
 0.220  1.026 -0.118 -0.294 -0.354 -0.375 -0.375
 0.222  1.029 -0.115 -0.292 -0.353 -0.374 -0.374
 0.224  1.032 -0.112 -0.290 -0.352 -0.373 -0.373
 0.226  1.035 -0.109 -0.288 -0.351 -0.372 -0.372
 0.228  1.037 -0.106 -0.287 -0.349 -0.371 -0.371
 0.230  1.040 -0.103 -0.285 -0.348 -0.370 -0.370
 0.232  1.043 -0.101 -0.284 -0.347 -0.369 -0.369
 0.234  1.046 -0.098 -0.282 -0.346 -0.368 -0.368
 0.236  1.049 -0.095 -0.280 -0.345 -0.367 -0.367
 0.238  1.051 -0.092 -0.279 -0.344 -0.366 -0.366
 0.240  1.054 -0.089 -0.277 -0.343 -0.365 -0.365
 0.242  1.057 -0.086 -0.275 -0.342 -0.364 -0.364
 0.244  1.060 -0.084 -0.273 -0.341 -0.363 -0.363
 0.246  1.062 -0.081 -0.272 -0.340 -0.362 -0.362
 0.248  1.065 -0.078 -0.270 -0.339 -0.361 -0.361
 0.250  1.068 -0.076 -0.268 -0.338 -0.360 -0.360
 0.252  1.070 -0.073 -0.266 -0.336 -0.360 -0.360
 0.254  1.073 -0.071 -0.265 -0.336 -0.358 -0.358
 0.256  1.075 -0.069 -0.263 -0.334 -0.358 -0.358
 0.258  1.078 -0.066 -0.261 -0.333 -0.356 -0.356
 0.260  1.080 -0.063 -0.260 -0.332 -0.356 -0.356
 0.262  1.082 -0.061 -0.258 -0.331 -0.354 -0.354
 0.264  1.085 -0.058 -0.257 -0.330 -0.354 -0.354
 0.266  1.088 -0.056 -0.255 -0.329 -0.353 -0.353
 0.268  1.091 -0.054 -0.253 -0.328 -0.352 -0.352
 0.270  1.093 -0.052 -0.252 -0.327 -0.351 -0.351
 0.272  1.095 -0.049 -0.250 -0.326 -0.350 -0.350
 0.274  1.098 -0.047 -0.248 -0.325 -0.349 -0.349
 0.276  1.100 -0.045 -0.247 -0.324 -0.348 -0.348
 0.278  1.102 -0.043 -0.245 -0.322 -0.347 -0.347
 0.280  1.105 -0.040 -0.243 -0.322 -0.346 -0.346
 0.282  1.108 -0.038 -0.241 -0.321 -0.345 -0.345
 0.284  1.110 -0.036 -0.240 -0.319 -0.344 -0.344
 0.286  1.112 -0.034 -0.238 -0.319 -0.343 -0.343
 0.288  1.115 -0.032 -0.236 -0.317 -0.342 -0.342
 0.290  1.117 -0.029 -0.235 -0.316 -0.341 -0.341
 0.292  1.119 -0.028 -0.233 -0.315 -0.340 -0.340
 0.294  1.122 -0.026 -0.232 -0.314 -0.339 -0.339
 0.296  1.124 -0.023 -0.230 -0.313 -0.338 -0.338
 0.298  1.126 -0.021 -0.228 -0.312 -0.337 -0.337
 0.300  1.129 -0.019 -0.227 -0.311 -0.336 -0.336
 0.302  1.131 -0.017 -0.225 -0.310 -0.335 -0.335
 0.304  1.133 -0.015 -0.223 -0.309 -0.334 -0.334
 0.306  1.136 -0.013 -0.222 -0.308 -0.333 -0.333
 0.308  1.138 -0.011 -0.220 -0.307 -0.332 -0.332
 0.310  1.140 -0.009 -0.219 -0.306 -0.331 -0.331
 0.312  1.142 -0.006 -0.217 -0.305 -0.330 -0.330
 0.314  1.144 -0.004 -0.215 -0.304 -0.329 -0.329
 0.316  1.147 -0.003 -0.214 -0.303 -0.328 -0.328
 0.318  1.148 -0.000 -0.212 -0.302 -0.327 -0.327
 0.320  1.150  0.002 -0.211 -0.300 -0.326 -0.326
 0.322  1.153  0.004 -0.209 -0.299 -0.325 -0.325
 0.324  1.155  0.006 -0.208 -0.298 -0.324 -0.324
 0.326  1.157  0.009 -0.206 -0.297 -0.323 -0.323
 0.328  1.159  0.011 -0.205 -0.296 -0.322 -0.322
 0.330  1.161  0.013 -0.203 -0.295 -0.321 -0.321
 0.332  1.163  0.015 -0.202 -0.294 -0.320 -0.320
 0.334  1.165  0.017 -0.200 -0.292 -0.319 -0.319
 0.336  1.167  0.020 -0.199 -0.291 -0.318 -0.318
 0.338  1.169  0.022 -0.197 -0.290 -0.317 -0.317
 0.340  1.171  0.024 -0.196 -0.289 -0.316 -0.316
 0.342  1.173  0.026 -0.194 -0.288 -0.315 -0.315
 0.344  1.175  0.029 -0.193 -0.286 -0.314 -0.314
 0.346  1.177  0.031 -0.191 -0.285 -0.313 -0.313
 0.348  1.179  0.033 -0.190 -0.284 -0.312 -0.312
 0.350  1.181  0.035 -0.188 -0.283 -0.311 -0.311
 0.352  1.183  0.037 -0.187 -0.282 -0.310 -0.310
 0.354  1.184  0.040 -0.185 -0.281 -0.309 -0.309
 0.356  1.187  0.042 -0.184 -0.279 -0.308 -0.308
 0.358  1.188  0.044 -0.183 -0.278 -0.307 -0.307
 0.360  1.190  0.046 -0.182 -0.277 -0.306 -0.306
 0.362  1.192  0.049 -0.180 -0.275 -0.305 -0.305
 0.364  1.194  0.051 -0.179 -0.274 -0.304 -0.304
 0.366  1.195  0.053 -0.177 -0.273 -0.303 -0.303
 0.368  1.198  0.055 -0.176 -0.272 -0.302 -0.302
 0.370  1.199  0.058 -0.175 -0.271 -0.301 -0.301
 0.372  1.201  0.060 -0.173 -0.269 -0.300 -0.300
 0.374  1.203  0.062 -0.172 -0.268 -0.299 -0.299
 0.376  1.204  0.064 -0.171 -0.267 -0.298 -0.298
 0.378  1.206  0.066 -0.169 -0.265 -0.297 -0.297
 0.380  1.208  0.068 -0.168 -0.264 -0.295 -0.295
 0.382  1.210  0.070 -0.167 -0.263 -0.295 -0.295
 0.384  1.212  0.072 -0.165 -0.262 -0.293 -0.293
 0.386  1.214  0.075 -0.164 -0.260 -0.293 -0.293
 0.388  1.215  0.076 -0.163 -0.259 -0.292 -0.292
 0.390  1.218  0.078 -0.161 -0.258 -0.291 -0.291
 0.392  1.219  0.081 -0.160 -0.257 -0.290 -0.290
 0.394  1.221  0.082 -0.159 -0.256 -0.288 -0.288
 0.396  1.223  0.084 -0.157 -0.254 -0.288 -0.288
 0.398  1.225  0.086 -0.157 -0.253 -0.286 -0.286
 0.400  1.226  0.088 -0.155 -0.252 -0.286 -0.286
 0.402  1.229  0.090 -0.154 -0.251 -0.284 -0.284
 0.404  1.230  0.092 -0.153 -0.250 -0.284 -0.284
 0.406  1.232  0.094 -0.152 -0.249 -0.282 -0.282
 0.408  1.234  0.095 -0.151 -0.248 -0.282 -0.282
 0.410  1.236  0.098 -0.149 -0.246 -0.280 -0.280
 0.412  1.237  0.099 -0.148 -0.245 -0.279 -0.279
 0.414  1.240  0.101 -0.147 -0.244 -0.278 -0.278
 0.416  1.241  0.103 -0.146 -0.243 -0.277 -0.277
 0.418  1.243  0.104 -0.145 -0.242 -0.276 -0.276
 0.420  1.245  0.106 -0.143 -0.241 -0.275 -0.275
 0.422  1.247  0.108 -0.142 -0.240 -0.275 -0.275
 0.424  1.249  0.109 -0.141 -0.239 -0.273 -0.273
 0.426  1.251  0.111 -0.140 -0.238 -0.273 -0.273
 0.428  1.252  0.112 -0.139 -0.237 -0.271 -0.271
 0.430  1.254  0.115 -0.138 -0.236 -0.271 -0.271
 0.432  1.256  0.116 -0.137 -0.235 -0.269 -0.269
 0.434  1.258  0.118 -0.136 -0.234 -0.269 -0.269
 0.436  1.260  0.119 -0.134 -0.233 -0.267 -0.267
 0.438  1.262  0.121 -0.133 -0.232 -0.267 -0.267
 0.440  1.263  0.122 -0.132 -0.231 -0.265 -0.265
 0.442  1.265  0.124 -0.132 -0.231 -0.265 -0.265
 0.444  1.267  0.125 -0.131 -0.229 -0.263 -0.263
 0.446  1.268  0.127 -0.130 -0.229 -0.263 -0.263
 0.448  1.271  0.128 -0.129 -0.228 -0.262 -0.262
 0.450  1.272  0.129 -0.128 -0.227 -0.261 -0.261
 0.452  1.274  0.131 -0.127 -0.226 -0.260 -0.260
 0.454  1.275  0.132 -0.125 -0.225 -0.259 -0.259
 0.456  1.277  0.134 -0.124 -0.224 -0.258 -0.258
 0.458  1.278  0.135 -0.123 -0.223 -0.257 -0.257
 0.460  1.280  0.136 -0.122 -0.222 -0.256 -0.256
 0.462  1.281  0.138 -0.121 -0.222 -0.256 -0.256
 0.464  1.282  0.139 -0.120 -0.220 -0.255 -0.255
 0.466  1.284  0.141 -0.119 -0.220 -0.254 -0.254
 0.468  1.285  0.142 -0.118 -0.219 -0.253 -0.253
 0.470  1.287  0.143 -0.117 -0.218 -0.252 -0.252
 0.472  1.288  0.144 -0.117 -0.217 -0.251 -0.251
 0.474  1.289  0.146 -0.116 -0.216 -0.250 -0.250
 0.476  1.291  0.147 -0.115 -0.215 -0.250 -0.250
 0.478  1.291  0.148 -0.114 -0.214 -0.249 -0.249
 0.480  1.293  0.150 -0.113 -0.214 -0.248 -0.248
 0.482  1.294  0.150 -0.112 -0.212 -0.247 -0.247
 0.484  1.295  0.152 -0.111 -0.212 -0.246 -0.246
 0.486  1.296  0.152 -0.110 -0.211 -0.246 -0.246
 0.488  1.297  0.154 -0.109 -0.210 -0.245 -0.245
 0.490  1.298  0.155 -0.108 -0.209 -0.244 -0.244
 0.492  1.299  0.156 -0.107 -0.208 -0.243 -0.243
 0.494  1.300  0.157 -0.106 -0.207 -0.243 -0.243
 0.496  1.301  0.158 -0.106 -0.206 -0.242 -0.242
 0.498  1.302  0.159 -0.105 -0.206 -0.241 -0.241
 0.500  1.302  0.160 -0.104 -0.205 -0.240 -0.240
 0.502  1.303  0.161 -0.103 -0.204 -0.240 -0.240
 0.504  1.304  0.162 -0.102 -0.203 -0.239 -0.239
 0.506  1.305  0.163 -0.101 -0.202 -0.239 -0.239
 0.508  1.305  0.164 -0.101 -0.201 -0.238 -0.238
 0.510  1.306  0.165 -0.100 -0.201 -0.237 -0.237
 0.512  1.307  0.166 -0.099 -0.200 -0.237 -0.237
 0.514  1.308  0.167 -0.098 -0.199 -0.236 -0.236
 0.516  1.308  0.168 -0.097 -0.198 -0.235 -0.235
 0.518  1.309  0.169 -0.096 -0.197 -0.234 -0.234
 0.520  1.310  0.170 -0.096 -0.197 -0.233 -0.233
 0.522  1.311  0.170 -0.095 -0.196 -0.233 -0.233
 0.524  1.311  0.171 -0.094 -0.195 -0.232 -0.232
 0.526  1.311  0.172 -0.093 -0.194 -0.231 -0.231
 0.528  1.312  0.173 -0.093 -0.193 -0.231 -0.231
 0.530  1.313  0.173 -0.092 -0.193 -0.230 -0.230
 0.532  1.313  0.174 -0.091 -0.192 -0.229 -0.229
 0.534  1.313  0.175 -0.091 -0.191 -0.229 -0.229
 0.536  1.314  0.176 -0.090 -0.191 -0.228 -0.228
 0.538  1.315  0.176 -0.089 -0.190 -0.227 -0.227
 0.540  1.316  0.177 -0.089 -0.189 -0.226 -0.226
 0.542  1.316  0.178 -0.088 -0.189 -0.225 -0.225
 0.544  1.316  0.178 -0.088 -0.188 -0.225 -0.225
 0.546  1.317  0.179 -0.087 -0.187 -0.224 -0.224
 0.548  1.318  0.180 -0.087 -0.187 -0.223 -0.223
 0.550  1.318  0.181 -0.086 -0.186 -0.223 -0.223
 0.552  1.319  0.181 -0.086 -0.186 -0.222 -0.222
 0.554  1.319  0.182 -0.085 -0.185 -0.221 -0.221
 0.556  1.319  0.182 -0.085 -0.185 -0.220 -0.220
 0.558  1.320  0.183 -0.084 -0.184 -0.220 -0.220
 0.560  1.320  0.184 -0.084 -0.184 -0.219 -0.219
 0.562  1.321  0.184 -0.083 -0.183 -0.218 -0.218
 0.564  1.322  0.184 -0.083 -0.183 -0.218 -0.218
 0.566  1.322  0.185 -0.082 -0.182 -0.217 -0.217
 0.568  1.322  0.186 -0.082 -0.182 -0.216 -0.216
 0.570  1.322  0.186 -0.082 -0.181 -0.215 -0.215
 0.572  1.323  0.187 -0.081 -0.181 -0.214 -0.214
 0.574  1.323  0.187 -0.081 -0.180 -0.214 -0.214
 0.576  1.324  0.187 -0.081 -0.180 -0.213 -0.213
 0.578  1.324  0.188 -0.081 -0.180 -0.212 -0.212
 0.580  1.325  0.188 -0.081 -0.180 -0.211 -0.211
 0.582  1.325  0.189 -0.081 -0.179 -0.211 -0.211
 0.584  1.325  0.189 -0.080 -0.179 -0.210 -0.210
 0.586  1.325  0.190 -0.080 -0.178 -0.209 -0.209
 0.588  1.326  0.190 -0.080 -0.178 -0.208 -0.208
 0.590  1.326  0.190 -0.080 -0.178 -0.208 -0.208
 0.592  1.326  0.190 -0.079 -0.178 -0.207 -0.207
 0.594  1.327  0.190 -0.079 -0.177 -0.206 -0.206
 0.596  1.327  0.191 -0.079 -0.177 -0.206 -0.206
 0.598  1.327  0.191 -0.079 -0.176 -0.205 -0.205
 0.600  1.327  0.191 -0.078 -0.176 -0.205 -0.205
 0.602  1.327  0.192 -0.078 -0.176 -0.204 -0.204
 0.604  1.327  0.192 -0.078 -0.176 -0.203 -0.203
 0.606  1.328  0.192 -0.078 -0.175 -0.203 -0.203
 0.608  1.328  0.192 -0.077 -0.175 -0.202 -0.202
 0.610  1.328  0.193 -0.077 -0.175 -0.202 -0.202
 0.612  1.328  0.193 -0.077 -0.174 -0.201 -0.201
 0.614  1.329  0.193 -0.077 -0.174 -0.201 -0.201
 0.616  1.329  0.193 -0.076 -0.174 -0.200 -0.200
 0.618  1.329  0.193 -0.076 -0.173 -0.199 -0.199
 0.620  1.329  0.193 -0.076 -0.173 -0.199 -0.199
 0.622  1.329  0.193 -0.075 -0.173 -0.199 -0.199
 0.624  1.329  0.193 -0.075 -0.172 -0.198 -0.198
 0.626  1.330  0.193 -0.075 -0.172 -0.197 -0.197
 0.628  1.330  0.193 -0.074 -0.172 -0.197 -0.197
 0.630  1.330  0.193 -0.074 -0.172 -0.197 -0.197
 0.632  1.330  0.193 -0.074 -0.171 -0.196 -0.196
 0.634  1.330  0.193 -0.073 -0.171 -0.196 -0.196
 0.636  1.330  0.193 -0.073 -0.171 -0.195 -0.195
 0.638  1.330  0.193 -0.073 -0.170 -0.195 -0.195
 0.640  1.330  0.193 -0.073 -0.170 -0.195 -0.195
 0.642  1.330  0.193 -0.072 -0.170 -0.194 -0.194
 0.644  1.330  0.192 -0.072 -0.170 -0.194 -0.194
 0.646  1.330  0.192 -0.071 -0.169 -0.193 -0.193
 0.648  1.330  0.192 -0.071 -0.169 -0.193 -0.193
 0.650  1.330  0.192 -0.071 -0.168 -0.193 -0.193
 0.652  1.330  0.192 -0.070 -0.168 -0.192 -0.192
 0.654  1.330  0.192 -0.070 -0.168 -0.191 -0.191
 0.656  1.329  0.192 -0.070 -0.168 -0.191 -0.191
 0.658  1.329  0.192 -0.069 -0.167 -0.191 -0.191
 0.660  1.329  0.192 -0.069 -0.167 -0.190 -0.190
 0.662  1.329  0.192 -0.068 -0.166 -0.189 -0.189
 0.664  1.329  0.192 -0.068 -0.166 -0.189 -0.189
 0.666  1.329  0.192 -0.067 -0.166 -0.189 -0.189
 0.668  1.328  0.192 -0.066 -0.165 -0.188 -0.188
 0.670  1.328  0.192 -0.065 -0.165 -0.187 -0.187
 0.672  1.328  0.193 -0.064 -0.164 -0.187 -0.187
 0.674  1.328  0.193 -0.064 -0.163 -0.186 -0.186
 0.676  1.327  0.193 -0.062 -0.163 -0.186 -0.186
 0.678  1.327  0.193 -0.061 -0.162 -0.185 -0.185
 0.680  1.327  0.193 -0.060 -0.161 -0.184 -0.184
 0.682  1.327  0.194 -0.059 -0.160 -0.184 -0.184
 0.684  1.327  0.194 -0.058 -0.159 -0.183 -0.183
 0.686  1.327  0.195 -0.056 -0.158 -0.182 -0.182
 0.688  1.326  0.195 -0.055 -0.157 -0.181 -0.181
 0.690  1.326  0.196 -0.054 -0.156 -0.180 -0.180
 0.692  1.326  0.196 -0.052 -0.155 -0.180 -0.180
 0.694  1.325  0.196 -0.051 -0.153 -0.179 -0.179
 0.696  1.325  0.197 -0.049 -0.152 -0.178 -0.178
 0.698  1.325  0.198 -0.048 -0.151 -0.177 -0.177
 0.700  1.325  0.198 -0.046 -0.149 -0.176 -0.176
 0.702  1.325  0.199 -0.044 -0.148 -0.175 -0.175
 0.704  1.324  0.200 -0.042 -0.147 -0.174 -0.174
 0.706  1.324  0.201 -0.040 -0.145 -0.173 -0.173
 0.708  1.323  0.201 -0.038 -0.144 -0.172 -0.172
 0.710  1.323  0.202 -0.036 -0.142 -0.171 -0.171
 0.712  1.322  0.203 -0.034 -0.140 -0.170 -0.170
 0.714  1.322  0.204 -0.031 -0.138 -0.169 -0.169
 0.716  1.322  0.204 -0.029 -0.136 -0.169 -0.169
 0.718  1.321  0.205 -0.027 -0.134 -0.167 -0.167
 0.720  1.321  0.206 -0.024 -0.132 -0.166 -0.166
 0.722  1.320  0.207 -0.022 -0.130 -0.165 -0.165
 0.724  1.320  0.208 -0.019 -0.128 -0.164 -0.164
 0.726  1.320  0.210 -0.017 -0.127 -0.163 -0.163
 0.728  1.320  0.210 -0.014 -0.125 -0.161 -0.161
 0.730  1.320  0.212 -0.012 -0.123 -0.160 -0.160
 0.732  1.320  0.213 -0.010 -0.121 -0.159 -0.159
 0.734  1.320  0.215 -0.008 -0.119 -0.158 -0.158
 0.736  1.321  0.216 -0.005 -0.117 -0.156 -0.156
 0.738  1.322  0.218 -0.004 -0.115 -0.155 -0.155
 0.740  1.322  0.219 -0.002 -0.113 -0.153 -0.153
 0.742  1.323  0.221 -0.001 -0.111 -0.152 -0.152
 0.744  1.325  0.222  0.001 -0.109 -0.150 -0.150
 0.746  1.325  0.224  0.002 -0.108 -0.149 -0.149
 0.748  1.327  0.226  0.004 -0.106 -0.148 -0.148
 0.750  1.327  0.228  0.005 -0.104 -0.146 -0.146
 0.752  1.329  0.230  0.006 -0.103 -0.144 -0.144
 0.754  1.330  0.232  0.007 -0.101 -0.143 -0.143
 0.756  1.333  0.233  0.007 -0.100 -0.141 -0.141
 0.758  1.334  0.236  0.008 -0.098 -0.139 -0.139
 0.760  1.336  0.238  0.008 -0.097 -0.138 -0.138
 0.762  1.338  0.239  0.008 -0.096 -0.136 -0.136
 0.764  1.340  0.242  0.008 -0.095 -0.134 -0.134
 0.766  1.342  0.244  0.008 -0.094 -0.132 -0.132
 0.768  1.344  0.247  0.008 -0.093 -0.131 -0.131
 0.770  1.347  0.249  0.008 -0.092 -0.129 -0.129
 0.772  1.350  0.252  0.007 -0.091 -0.127 -0.127
 0.774  1.353  0.254  0.006 -0.090 -0.124 -0.124
 0.776  1.356  0.257  0.006 -0.089 -0.122 -0.122
 0.778  1.360  0.260  0.005 -0.089 -0.120 -0.120
 0.780  1.363  0.263  0.004 -0.088 -0.118 -0.118
 0.782  1.367  0.266  0.002 -0.087 -0.116 -0.116
 0.784  1.370  0.269  0.001 -0.087 -0.114 -0.114
 0.786  1.373  0.272 -0.000 -0.086 -0.112 -0.112
 0.788  1.377  0.274 -0.002 -0.085 -0.110 -0.110
 0.790  1.381  0.277 -0.004 -0.085 -0.108 -0.108
 0.792  1.384  0.279 -0.005 -0.084 -0.106 -0.106
 0.794  1.387  0.282 -0.007 -0.084 -0.104 -0.104
 0.796  1.391  0.284 -0.009 -0.084 -0.102 -0.102
 0.798  1.394  0.286 -0.012 -0.083 -0.100 -0.100
 0.800  1.397  0.288 -0.014 -0.083 -0.099 -0.099
 0.802  1.400  0.289 -0.017 -0.083 -0.097 -0.097
 0.804  1.403  0.290 -0.020 -0.084 -0.096 -0.096
 0.806  1.406  0.291 -0.023 -0.084 -0.095 -0.095
 0.808  1.408  0.292 -0.026 -0.085 -0.093 -0.093
