# IsPeriodic    : True
# Period        : 0.715330 days
# Normalization : <g_mag>=0
# 
# Phase u_mag  g_mag  r_mag  i_mag  z_mag  y_mag
 0.000  0.699 -0.451 -0.480 -0.491 -0.475 -0.475
 0.002  0.699 -0.451 -0.480 -0.491 -0.475 -0.475
 0.004  0.699 -0.450 -0.480 -0.491 -0.475 -0.475
 0.006  0.699 -0.450 -0.480 -0.491 -0.474 -0.474
 0.008  0.700 -0.450 -0.479 -0.490 -0.474 -0.474
 0.010  0.702 -0.449 -0.479 -0.490 -0.474 -0.474
 0.012  0.703 -0.448 -0.478 -0.490 -0.474 -0.474
 0.014  0.705 -0.447 -0.478 -0.490 -0.473 -0.473
 0.016  0.706 -0.446 -0.477 -0.490 -0.473 -0.473
 0.018  0.709 -0.444 -0.476 -0.489 -0.472 -0.472
 0.020  0.711 -0.443 -0.475 -0.488 -0.472 -0.472
 0.022  0.713 -0.441 -0.474 -0.488 -0.471 -0.471
 0.024  0.715 -0.440 -0.473 -0.487 -0.471 -0.471
 0.026  0.718 -0.438 -0.472 -0.487 -0.470 -0.470
 0.028  0.720 -0.435 -0.471 -0.486 -0.470 -0.470
 0.030  0.723 -0.433 -0.470 -0.485 -0.469 -0.469
 0.032  0.725 -0.431 -0.468 -0.484 -0.468 -0.468
 0.034  0.728 -0.428 -0.467 -0.484 -0.468 -0.468
 0.036  0.731 -0.425 -0.466 -0.483 -0.467 -0.467
 0.038  0.733 -0.422 -0.464 -0.482 -0.466 -0.466
 0.040  0.736 -0.419 -0.463 -0.481 -0.465 -0.465
 0.042  0.738 -0.416 -0.461 -0.480 -0.464 -0.464
 0.044  0.742 -0.412 -0.460 -0.478 -0.464 -0.464
 0.046  0.745 -0.408 -0.458 -0.477 -0.463 -0.463
 0.048  0.748 -0.404 -0.456 -0.476 -0.462 -0.462
 0.050  0.752 -0.400 -0.454 -0.475 -0.461 -0.461
 0.052  0.755 -0.397 -0.453 -0.473 -0.460 -0.460
 0.054  0.758 -0.392 -0.451 -0.472 -0.458 -0.458
 0.056  0.761 -0.388 -0.449 -0.470 -0.458 -0.458
 0.058  0.765 -0.384 -0.447 -0.469 -0.456 -0.456
 0.060  0.768 -0.379 -0.444 -0.467 -0.455 -0.455
 0.062  0.772 -0.375 -0.442 -0.465 -0.454 -0.454
 0.064  0.776 -0.370 -0.440 -0.464 -0.453 -0.453
 0.066  0.781 -0.366 -0.438 -0.462 -0.452 -0.452
 0.068  0.785 -0.362 -0.435 -0.460 -0.450 -0.450
 0.070  0.788 -0.357 -0.433 -0.459 -0.449 -0.449
 0.072  0.793 -0.353 -0.430 -0.457 -0.448 -0.448
 0.074  0.798 -0.349 -0.428 -0.455 -0.446 -0.446
 0.076  0.801 -0.345 -0.425 -0.453 -0.445 -0.445
 0.078  0.806 -0.341 -0.422 -0.451 -0.444 -0.444
 0.080  0.811 -0.337 -0.420 -0.450 -0.442 -0.442
 0.082  0.815 -0.332 -0.417 -0.448 -0.441 -0.441
 0.084  0.819 -0.328 -0.414 -0.446 -0.439 -0.439
 0.086  0.824 -0.325 -0.412 -0.444 -0.438 -0.438
 0.088  0.828 -0.321 -0.409 -0.443 -0.437 -0.437
 0.090  0.833 -0.316 -0.407 -0.441 -0.435 -0.435
 0.092  0.837 -0.313 -0.405 -0.439 -0.434 -0.434
 0.094  0.841 -0.309 -0.402 -0.437 -0.433 -0.433
 0.096  0.845 -0.305 -0.400 -0.436 -0.432 -0.432
 0.098  0.850 -0.301 -0.398 -0.434 -0.430 -0.430
 0.100  0.854 -0.297 -0.395 -0.433 -0.429 -0.429
 0.102  0.858 -0.294 -0.393 -0.431 -0.428 -0.428
 0.104  0.862 -0.290 -0.391 -0.430 -0.427 -0.427
 0.106  0.866 -0.286 -0.389 -0.429 -0.426 -0.426
 0.108  0.870 -0.283 -0.387 -0.428 -0.424 -0.424
 0.110  0.874 -0.279 -0.385 -0.426 -0.423 -0.423
 0.112  0.877 -0.275 -0.383 -0.425 -0.422 -0.422
 0.114  0.881 -0.272 -0.381 -0.423 -0.421 -0.421
 0.116  0.885 -0.269 -0.380 -0.422 -0.420 -0.420
 0.118  0.889 -0.265 -0.378 -0.421 -0.419 -0.419
 0.120  0.892 -0.262 -0.376 -0.420 -0.418 -0.418
 0.122  0.896 -0.258 -0.374 -0.418 -0.416 -0.416
 0.124  0.899 -0.255 -0.373 -0.417 -0.416 -0.416
 0.126  0.903 -0.251 -0.371 -0.416 -0.414 -0.414
 0.128  0.906 -0.248 -0.370 -0.415 -0.414 -0.414
 0.130  0.909 -0.244 -0.368 -0.414 -0.412 -0.412
 0.132  0.913 -0.241 -0.367 -0.413 -0.412 -0.412
 0.134  0.916 -0.238 -0.366 -0.412 -0.410 -0.410
 0.136  0.919 -0.234 -0.364 -0.412 -0.410 -0.410
 0.138  0.922 -0.231 -0.363 -0.410 -0.408 -0.408
 0.140  0.925 -0.228 -0.362 -0.409 -0.408 -0.408
 0.142  0.927 -0.225 -0.361 -0.409 -0.407 -0.407
 0.144  0.930 -0.222 -0.359 -0.408 -0.406 -0.406
 0.146  0.933 -0.219 -0.358 -0.407 -0.405 -0.405
 0.148  0.937 -0.216 -0.357 -0.406 -0.404 -0.404
 0.150  0.939 -0.212 -0.356 -0.406 -0.403 -0.403
 0.152  0.942 -0.209 -0.355 -0.405 -0.402 -0.402
 0.154  0.944 -0.206 -0.354 -0.404 -0.401 -0.401
 0.156  0.947 -0.203 -0.353 -0.403 -0.400 -0.400
 0.158  0.950 -0.200 -0.352 -0.402 -0.399 -0.399
 0.160  0.953 -0.196 -0.351 -0.401 -0.398 -0.398
 0.162  0.955 -0.193 -0.350 -0.400 -0.397 -0.397
 0.164  0.957 -0.190 -0.348 -0.399 -0.396 -0.396
 0.166  0.960 -0.187 -0.347 -0.398 -0.396 -0.396
 0.168  0.963 -0.184 -0.346 -0.397 -0.394 -0.394
 0.170  0.966 -0.181 -0.345 -0.397 -0.394 -0.394
 0.172  0.968 -0.178 -0.343 -0.396 -0.393 -0.393
 0.174  0.971 -0.175 -0.342 -0.394 -0.392 -0.392
 0.176  0.973 -0.172 -0.341 -0.393 -0.391 -0.391
 0.178  0.976 -0.168 -0.339 -0.393 -0.390 -0.390
 0.180  0.979 -0.165 -0.338 -0.391 -0.389 -0.389
 0.182  0.982 -0.162 -0.336 -0.390 -0.388 -0.388
 0.184  0.985 -0.159 -0.335 -0.390 -0.387 -0.387
 0.186  0.987 -0.156 -0.333 -0.388 -0.386 -0.386
 0.188  0.990 -0.153 -0.332 -0.387 -0.385 -0.385
 0.190  0.993 -0.150 -0.330 -0.386 -0.384 -0.384
 0.192  0.996 -0.147 -0.328 -0.385 -0.383 -0.383
 0.194  0.999 -0.144 -0.327 -0.384 -0.382 -0.382
 0.196  1.001 -0.141 -0.325 -0.383 -0.381 -0.381
 0.198  1.004 -0.138 -0.324 -0.382 -0.380 -0.380
 0.200  1.006 -0.135 -0.322 -0.381 -0.379 -0.379
 0.202  1.009 -0.132 -0.320 -0.380 -0.378 -0.378
 0.204  1.013 -0.129 -0.318 -0.378 -0.377 -0.377
 0.206  1.015 -0.126 -0.317 -0.378 -0.376 -0.376
 0.208  1.018 -0.123 -0.315 -0.376 -0.375 -0.375
 0.210  1.021 -0.120 -0.313 -0.375 -0.374 -0.374
 0.212  1.023 -0.118 -0.311 -0.374 -0.373 -0.373
 0.214  1.026 -0.115 -0.309 -0.373 -0.372 -0.372
 0.216  1.029 -0.112 -0.307 -0.372 -0.371 -0.371
 0.218  1.032 -0.109 -0.305 -0.371 -0.370 -0.370
 0.220  1.035 -0.106 -0.303 -0.369 -0.369 -0.369
 0.222  1.038 -0.103 -0.301 -0.368 -0.368 -0.368
 0.224  1.041 -0.100 -0.299 -0.367 -0.367 -0.367
 0.226  1.044 -0.098 -0.297 -0.365 -0.366 -0.366
 0.228  1.046 -0.095 -0.295 -0.365 -0.365 -0.365
 0.230  1.049 -0.092 -0.293 -0.363 -0.364 -0.364
 0.232  1.052 -0.090 -0.291 -0.362 -0.363 -0.363
 0.234  1.055 -0.087 -0.289 -0.361 -0.362 -0.362
 0.236  1.058 -0.084 -0.287 -0.360 -0.361 -0.361
 0.238  1.061 -0.081 -0.285 -0.359 -0.360 -0.360
 0.240  1.063 -0.079 -0.284 -0.357 -0.359 -0.359
 0.242  1.066 -0.076 -0.282 -0.356 -0.358 -0.358
 0.244  1.069 -0.074 -0.280 -0.355 -0.357 -0.357
 0.246  1.072 -0.071 -0.278 -0.354 -0.356 -0.356
 0.248  1.074 -0.069 -0.276 -0.353 -0.355 -0.355
 0.250  1.077 -0.066 -0.275 -0.352 -0.354 -0.354
 0.252  1.079 -0.063 -0.273 -0.350 -0.353 -0.353
 0.254  1.082 -0.060 -0.271 -0.349 -0.352 -0.352
 0.256  1.085 -0.058 -0.270 -0.348 -0.351 -0.351
 0.258  1.088 -0.056 -0.268 -0.347 -0.350 -0.350
 0.260  1.090 -0.053 -0.266 -0.346 -0.349 -0.349
 0.262  1.093 -0.050 -0.265 -0.344 -0.348 -0.348
 0.264  1.095 -0.048 -0.263 -0.343 -0.347 -0.347
 0.266  1.098 -0.045 -0.261 -0.342 -0.346 -0.346
 0.268  1.101 -0.043 -0.260 -0.341 -0.345 -0.345
 0.270  1.103 -0.041 -0.258 -0.340 -0.344 -0.344
 0.272  1.105 -0.038 -0.257 -0.339 -0.343 -0.343
 0.274  1.108 -0.035 -0.255 -0.337 -0.343 -0.343
 0.276  1.111 -0.033 -0.254 -0.336 -0.341 -0.341
 0.278  1.113 -0.031 -0.252 -0.335 -0.341 -0.341
 0.280  1.115 -0.028 -0.251 -0.334 -0.340 -0.340
 0.282  1.118 -0.025 -0.250 -0.333 -0.339 -0.339
 0.284  1.121 -0.023 -0.248 -0.332 -0.338 -0.338
 0.286  1.123 -0.021 -0.247 -0.331 -0.337 -0.337
 0.288  1.125 -0.019 -0.245 -0.329 -0.336 -0.336
 0.290  1.128 -0.016 -0.244 -0.328 -0.335 -0.335
 0.292  1.130 -0.014 -0.243 -0.327 -0.334 -0.334
 0.294  1.132 -0.011 -0.241 -0.326 -0.333 -0.333
 0.296  1.135 -0.009 -0.240 -0.325 -0.333 -0.333
 0.298  1.137 -0.006 -0.239 -0.323 -0.332 -0.332
 0.300  1.139 -0.004 -0.237 -0.322 -0.331 -0.331
 0.302  1.141 -0.002 -0.236 -0.321 -0.330 -0.330
 0.304  1.144  0.000 -0.235 -0.320 -0.329 -0.329
 0.306  1.146  0.003 -0.233 -0.318 -0.328 -0.328
 0.308  1.148  0.006 -0.232 -0.317 -0.327 -0.327
 0.310  1.151  0.008 -0.231 -0.316 -0.326 -0.326
 0.312  1.153  0.010 -0.229 -0.315 -0.325 -0.325
 0.314  1.155  0.013 -0.228 -0.313 -0.324 -0.324
 0.316  1.158  0.015 -0.226 -0.312 -0.323 -0.323
 0.318  1.160  0.017 -0.225 -0.311 -0.322 -0.322
 0.320  1.162  0.019 -0.223 -0.309 -0.321 -0.321
 0.322  1.164  0.022 -0.222 -0.308 -0.320 -0.320
 0.324  1.166  0.025 -0.220 -0.307 -0.319 -0.319
 0.326  1.168  0.027 -0.219 -0.306 -0.318 -0.318
 0.328  1.171  0.029 -0.217 -0.304 -0.317 -0.317
 0.330  1.173  0.031 -0.216 -0.303 -0.316 -0.316
 0.332  1.174  0.034 -0.215 -0.301 -0.315 -0.315
 0.334  1.177  0.036 -0.213 -0.300 -0.314 -0.314
 0.336  1.179  0.038 -0.212 -0.299 -0.313 -0.313
 0.338  1.181  0.041 -0.210 -0.297 -0.312 -0.312
 0.340  1.183  0.043 -0.209 -0.296 -0.311 -0.311
 0.342  1.185  0.045 -0.207 -0.294 -0.310 -0.310
 0.344  1.187  0.047 -0.206 -0.293 -0.309 -0.309
 0.346  1.189  0.050 -0.204 -0.292 -0.308 -0.308
 0.348  1.191  0.052 -0.202 -0.290 -0.307 -0.307
 0.350  1.193  0.054 -0.201 -0.289 -0.306 -0.306
 0.352  1.195  0.056 -0.199 -0.287 -0.305 -0.305
 0.354  1.197  0.059 -0.198 -0.286 -0.304 -0.304
 0.356  1.199  0.061 -0.196 -0.284 -0.303 -0.303
 0.358  1.201  0.063 -0.194 -0.283 -0.301 -0.301
 0.360  1.203  0.066 -0.193 -0.281 -0.301 -0.301
 0.362  1.204  0.068 -0.191 -0.280 -0.299 -0.299
 0.364  1.207  0.070 -0.189 -0.278 -0.298 -0.298
 0.366  1.208  0.072 -0.187 -0.277 -0.297 -0.297
 0.368  1.211  0.075 -0.186 -0.275 -0.296 -0.296
 0.370  1.212  0.077 -0.184 -0.274 -0.295 -0.295
 0.372  1.214  0.079 -0.183 -0.272 -0.294 -0.294
 0.374  1.216  0.081 -0.181 -0.271 -0.293 -0.293
 0.376  1.218  0.083 -0.179 -0.270 -0.292 -0.292
 0.378  1.220  0.085 -0.178 -0.268 -0.291 -0.291
 0.380  1.222  0.088 -0.176 -0.267 -0.290 -0.290
 0.382  1.224  0.090 -0.174 -0.265 -0.289 -0.289
 0.384  1.226  0.091 -0.173 -0.264 -0.288 -0.288
 0.386  1.227  0.094 -0.171 -0.263 -0.287 -0.287
 0.388  1.230  0.096 -0.170 -0.262 -0.286 -0.286
 0.390  1.231  0.098 -0.168 -0.260 -0.285 -0.285
 0.392  1.234  0.100 -0.167 -0.259 -0.284 -0.284
 0.394  1.235  0.102 -0.165 -0.258 -0.283 -0.283
 0.396  1.237  0.104 -0.164 -0.256 -0.282 -0.282
 0.398  1.239  0.106 -0.162 -0.255 -0.281 -0.281
 0.400  1.241  0.108 -0.161 -0.254 -0.280 -0.280
 0.402  1.244  0.110 -0.159 -0.253 -0.279 -0.279
 0.404  1.245  0.113 -0.158 -0.252 -0.278 -0.278
 0.406  1.247  0.114 -0.156 -0.250 -0.277 -0.277
 0.408  1.249  0.116 -0.155 -0.249 -0.276 -0.276
 0.410  1.251  0.119 -0.154 -0.248 -0.275 -0.275
 0.412  1.254  0.120 -0.152 -0.247 -0.274 -0.274
 0.414  1.255  0.122 -0.151 -0.246 -0.273 -0.273
 0.416  1.257  0.124 -0.149 -0.245 -0.272 -0.272
 0.418  1.260  0.126 -0.148 -0.243 -0.271 -0.271
 0.420  1.261  0.128 -0.147 -0.242 -0.270 -0.270
 0.422  1.264  0.130 -0.145 -0.241 -0.269 -0.269
 0.424  1.266  0.131 -0.144 -0.240 -0.268 -0.268
 0.426  1.267  0.134 -0.143 -0.239 -0.267 -0.267
 0.428  1.270  0.135 -0.141 -0.238 -0.267 -0.267
 0.430  1.272  0.138 -0.140 -0.237 -0.265 -0.265
 0.432  1.274  0.139 -0.139 -0.236 -0.265 -0.265
 0.434  1.276  0.141 -0.138 -0.235 -0.264 -0.264
 0.436  1.278  0.142 -0.136 -0.234 -0.263 -0.263
 0.438  1.280  0.144 -0.135 -0.233 -0.262 -0.262
 0.440  1.282  0.146 -0.134 -0.232 -0.261 -0.261
 0.442  1.284  0.147 -0.133 -0.231 -0.260 -0.260
 0.444  1.287  0.149 -0.131 -0.230 -0.259 -0.259
 0.446  1.288  0.150 -0.130 -0.229 -0.258 -0.258
 0.448  1.290  0.152 -0.129 -0.228 -0.257 -0.257
 0.450  1.293  0.153 -0.128 -0.227 -0.257 -0.257
 0.452  1.294  0.155 -0.127 -0.226 -0.256 -0.256
 0.454  1.296  0.156 -0.126 -0.225 -0.255 -0.255
 0.456  1.298  0.158 -0.125 -0.224 -0.254 -0.254
 0.458  1.300  0.160 -0.124 -0.223 -0.253 -0.253
 0.460  1.301  0.161 -0.123 -0.222 -0.252 -0.252
 0.462  1.303  0.163 -0.122 -0.221 -0.251 -0.251
 0.464  1.305  0.163 -0.121 -0.220 -0.250 -0.250
 0.466  1.307  0.165 -0.120 -0.219 -0.249 -0.249
 0.468  1.308  0.166 -0.119 -0.218 -0.249 -0.249
 0.470  1.310  0.168 -0.118 -0.218 -0.248 -0.248
 0.472  1.311  0.169 -0.117 -0.217 -0.247 -0.247
 0.474  1.313  0.170 -0.116 -0.216 -0.246 -0.246
 0.476  1.314  0.171 -0.115 -0.215 -0.245 -0.245
 0.478  1.316  0.172 -0.114 -0.214 -0.244 -0.244
 0.480  1.317  0.173 -0.113 -0.213 -0.243 -0.243
 0.482  1.319  0.175 -0.112 -0.212 -0.242 -0.242
 0.484  1.320  0.175 -0.111 -0.212 -0.241 -0.241
 0.486  1.321  0.177 -0.111 -0.211 -0.241 -0.241
 0.488  1.323  0.178 -0.110 -0.210 -0.240 -0.240
 0.490  1.323  0.179 -0.109 -0.209 -0.239 -0.239
 0.492  1.325  0.180 -0.108 -0.209 -0.238 -0.238
 0.494  1.326  0.181 -0.108 -0.208 -0.237 -0.237
 0.496  1.327  0.182 -0.107 -0.207 -0.236 -0.236
 0.498  1.328  0.183 -0.106 -0.206 -0.235 -0.235
 0.500  1.330  0.184 -0.106 -0.205 -0.235 -0.235
 0.502  1.330  0.185 -0.105 -0.205 -0.234 -0.234
 0.504  1.331  0.185 -0.104 -0.204 -0.233 -0.233
 0.506  1.332  0.187 -0.104 -0.203 -0.232 -0.232
 0.508  1.333  0.188 -0.103 -0.202 -0.231 -0.231
 0.510  1.334  0.188 -0.102 -0.202 -0.230 -0.230
 0.512  1.335  0.189 -0.102 -0.201 -0.229 -0.229
 0.514  1.336  0.190 -0.101 -0.200 -0.229 -0.229
 0.516  1.336  0.191 -0.100 -0.200 -0.228 -0.228
 0.518  1.337  0.191 -0.100 -0.199 -0.227 -0.227
 0.520  1.338  0.192 -0.099 -0.198 -0.226 -0.226
 0.522  1.339  0.193 -0.099 -0.197 -0.225 -0.225
 0.524  1.340  0.194 -0.098 -0.197 -0.225 -0.225
 0.526  1.340  0.194 -0.097 -0.196 -0.224 -0.224
 0.528  1.341  0.195 -0.097 -0.195 -0.223 -0.223
 0.530  1.342  0.196 -0.096 -0.194 -0.223 -0.223
 0.532  1.343  0.197 -0.096 -0.194 -0.222 -0.222
 0.534  1.343  0.197 -0.095 -0.193 -0.221 -0.221
 0.536  1.344  0.198 -0.095 -0.192 -0.220 -0.220
 0.538  1.345  0.198 -0.094 -0.191 -0.219 -0.219
 0.540  1.345  0.199 -0.093 -0.190 -0.219 -0.219
 0.542  1.346  0.200 -0.093 -0.190 -0.218 -0.218
 0.544  1.346  0.200 -0.092 -0.189 -0.217 -0.217
 0.546  1.347  0.200 -0.092 -0.188 -0.217 -0.217
 0.548  1.347  0.201 -0.091 -0.188 -0.216 -0.216
 0.550  1.348  0.202 -0.091 -0.187 -0.215 -0.215
 0.552  1.349  0.202 -0.090 -0.187 -0.215 -0.215
 0.554  1.349  0.203 -0.090 -0.186 -0.214 -0.214
 0.556  1.349  0.203 -0.089 -0.185 -0.214 -0.214
 0.558  1.350  0.203 -0.089 -0.184 -0.213 -0.213
 0.560  1.350  0.204 -0.088 -0.184 -0.213 -0.213
 0.562  1.351  0.204 -0.088 -0.183 -0.212 -0.212
 0.564  1.352  0.205 -0.087 -0.182 -0.211 -0.211
 0.566  1.352  0.205 -0.087 -0.181 -0.211 -0.211
 0.568  1.353  0.206 -0.086 -0.181 -0.210 -0.210
 0.570  1.353  0.206 -0.086 -0.180 -0.209 -0.209
 0.572  1.353  0.206 -0.085 -0.180 -0.209 -0.209
 0.574  1.353  0.206 -0.085 -0.179 -0.209 -0.209
 0.576  1.354  0.206 -0.084 -0.178 -0.208 -0.208
 0.578  1.354  0.207 -0.084 -0.178 -0.207 -0.207
 0.580  1.354  0.207 -0.083 -0.177 -0.207 -0.207
 0.582  1.355  0.208 -0.083 -0.176 -0.206 -0.206
 0.584  1.355  0.208 -0.082 -0.175 -0.206 -0.206
 0.586  1.356  0.208 -0.082 -0.175 -0.205 -0.205
 0.588  1.356  0.209 -0.081 -0.174 -0.205 -0.205
 0.590  1.356  0.209 -0.081 -0.173 -0.204 -0.204
 0.592  1.356  0.209 -0.080 -0.172 -0.204 -0.204
 0.594  1.356  0.209 -0.079 -0.172 -0.203 -0.203
 0.596  1.357  0.210 -0.079 -0.171 -0.203 -0.203
 0.598  1.357  0.210 -0.078 -0.170 -0.202 -0.202
 0.600  1.357  0.210 -0.078 -0.169 -0.201 -0.201
 0.602  1.358  0.210 -0.077 -0.168 -0.201 -0.201
 0.604  1.358  0.210 -0.077 -0.167 -0.200 -0.200
 0.606  1.359  0.210 -0.076 -0.166 -0.200 -0.200
 0.608  1.359  0.210 -0.076 -0.165 -0.199 -0.199
 0.610  1.359  0.210 -0.075 -0.164 -0.199 -0.199
 0.612  1.359  0.210 -0.074 -0.163 -0.198 -0.198
 0.614  1.359  0.210 -0.074 -0.162 -0.197 -0.197
 0.616  1.360  0.210 -0.073 -0.162 -0.197 -0.197
 0.618  1.360  0.210 -0.073 -0.160 -0.197 -0.197
 0.620  1.361  0.210 -0.072 -0.159 -0.196 -0.196
 0.622  1.361  0.210 -0.071 -0.159 -0.195 -0.195
 0.624  1.362  0.210 -0.071 -0.157 -0.195 -0.195
 0.626  1.362  0.210 -0.070 -0.156 -0.194 -0.194
 0.628  1.362  0.210 -0.069 -0.156 -0.194 -0.194
 0.630  1.363  0.210 -0.069 -0.154 -0.193 -0.193
 0.632  1.363  0.210 -0.068 -0.153 -0.193 -0.193
 0.634  1.363  0.210 -0.068 -0.152 -0.192 -0.192
 0.636  1.363  0.210 -0.067 -0.151 -0.191 -0.191
 0.638  1.364  0.211 -0.066 -0.150 -0.191 -0.191
 0.640  1.364  0.211 -0.066 -0.149 -0.190 -0.190
 0.642  1.365  0.211 -0.065 -0.148 -0.190 -0.190
 0.644  1.365  0.211 -0.064 -0.147 -0.189 -0.189
 0.646  1.366  0.212 -0.064 -0.146 -0.189 -0.189
 0.648  1.366  0.212 -0.063 -0.144 -0.188 -0.188
 0.650  1.366  0.213 -0.062 -0.143 -0.187 -0.187
 0.652  1.366  0.213 -0.061 -0.142 -0.187 -0.187
 0.654  1.366  0.213 -0.061 -0.140 -0.186 -0.186
 0.656  1.367  0.213 -0.060 -0.139 -0.186 -0.186
 0.658  1.367  0.214 -0.059 -0.138 -0.185 -0.185
 0.660  1.368  0.215 -0.058 -0.137 -0.185 -0.185
 0.662  1.369  0.215 -0.057 -0.135 -0.184 -0.184
 0.664  1.369  0.216 -0.056 -0.134 -0.183 -0.183
 0.666  1.369  0.216 -0.055 -0.133 -0.183 -0.183
 0.668  1.369  0.217 -0.054 -0.131 -0.182 -0.182
 0.670  1.370  0.218 -0.053 -0.130 -0.181 -0.181
 0.672  1.370  0.219 -0.052 -0.129 -0.181 -0.181
 0.674  1.371  0.219 -0.050 -0.128 -0.180 -0.180
 0.676  1.372  0.220 -0.049 -0.126 -0.179 -0.179
 0.678  1.372  0.221 -0.048 -0.125 -0.179 -0.179
 0.680  1.373  0.222 -0.046 -0.123 -0.178 -0.178
 0.682  1.373  0.222 -0.045 -0.122 -0.177 -0.177
 0.684  1.373  0.224 -0.044 -0.120 -0.176 -0.176
 0.686  1.374  0.225 -0.042 -0.119 -0.176 -0.176
 0.688  1.375  0.225 -0.041 -0.117 -0.175 -0.175
 0.690  1.375  0.227 -0.039 -0.115 -0.174 -0.174
 0.692  1.376  0.228 -0.037 -0.114 -0.173 -0.173
 0.694  1.376  0.229 -0.036 -0.112 -0.173 -0.173
 0.696  1.376  0.230 -0.034 -0.111 -0.172 -0.172
 0.698  1.377  0.232 -0.032 -0.109 -0.171 -0.171
 0.700  1.378  0.232 -0.031 -0.107 -0.170 -0.170
 0.702  1.379  0.234 -0.029 -0.106 -0.169 -0.169
 0.704  1.379  0.235 -0.027 -0.104 -0.168 -0.168
 0.706  1.379  0.236 -0.025 -0.102 -0.168 -0.168
 0.708  1.380  0.238 -0.023 -0.101 -0.167 -0.167
 0.710  1.381  0.239 -0.021 -0.099 -0.166 -0.166
 0.712  1.382  0.241 -0.019 -0.097 -0.165 -0.165
 0.714  1.383  0.242 -0.017 -0.096 -0.164 -0.164
 0.716  1.383  0.244 -0.015 -0.094 -0.164 -0.164
 0.718  1.383  0.245 -0.013 -0.092 -0.162 -0.162
 0.720  1.384  0.247 -0.011 -0.090 -0.162 -0.162
 0.722  1.385  0.248 -0.009 -0.089 -0.161 -0.161
 0.724  1.386  0.250 -0.006 -0.087 -0.160 -0.160
 0.726  1.386  0.252 -0.004 -0.086 -0.158 -0.158
 0.728  1.387  0.253 -0.002 -0.084 -0.157 -0.157
 0.730  1.388  0.255 -0.001 -0.083 -0.156 -0.156
 0.732  1.389  0.257  0.001 -0.081 -0.155 -0.155
 0.734  1.390  0.259  0.003 -0.080 -0.154 -0.154
 0.736  1.391  0.260  0.005 -0.078 -0.152 -0.152
 0.738  1.392  0.263  0.006 -0.077 -0.150 -0.150
 0.740  1.393  0.264  0.008 -0.076 -0.149 -0.149
 0.742  1.395  0.266  0.009 -0.075 -0.147 -0.147
 0.744  1.396  0.268  0.010 -0.074 -0.146 -0.146
 0.746  1.398  0.270  0.011 -0.072 -0.144 -0.144
 0.748  1.399  0.272  0.013 -0.072 -0.142 -0.142
 0.750  1.401  0.274  0.014 -0.071 -0.140 -0.140
 0.752  1.402  0.276  0.014 -0.069 -0.138 -0.138
 0.754  1.404  0.279  0.015 -0.069 -0.136 -0.136
 0.756  1.406  0.282  0.016 -0.068 -0.135 -0.135
 0.758  1.407  0.284  0.017 -0.067 -0.133 -0.133
 0.760  1.409  0.286  0.017 -0.066 -0.131 -0.131
 0.762  1.411  0.288  0.018 -0.065 -0.128 -0.128
 0.764  1.413  0.291  0.018 -0.065 -0.126 -0.126
 0.766  1.416  0.294  0.019 -0.064 -0.124 -0.124
 0.768  1.417  0.295  0.019 -0.064 -0.122 -0.122
 0.770  1.419  0.297  0.019 -0.063 -0.119 -0.119
 0.772  1.422  0.300  0.019 -0.062 -0.117 -0.117
 0.774  1.425  0.301  0.019 -0.062 -0.114 -0.114
 0.776  1.427  0.303  0.019 -0.061 -0.111 -0.111
 0.778  1.429  0.304  0.019 -0.061 -0.108 -0.108
 0.780  1.432  0.305  0.019 -0.060 -0.106 -0.106
 0.782  1.435  0.306  0.019 -0.060 -0.103 -0.103
 0.784  1.438  0.307  0.018 -0.060 -0.100 -0.100
 0.786  1.441  0.307  0.018 -0.060 -0.097 -0.097
 0.788  1.443  0.307  0.017 -0.060 -0.095 -0.095
 0.790  1.446  0.306  0.016 -0.060 -0.092 -0.092
 0.792  1.449  0.305  0.016 -0.061 -0.090 -0.090
 0.794  1.452  0.303  0.015 -0.061 -0.087 -0.087
 0.796  1.455  0.302  0.013 -0.062 -0.085 -0.085
 0.798  1.457  0.300  0.012 -0.063 -0.083 -0.083
 0.800  1.459  0.298  0.010 -0.065 -0.081 -0.081
 0.802  1.462  0.295  0.009 -0.066 -0.080 -0.080
 0.804  1.463  0.292  0.007 -0.068 -0.078 -0.078
 0.806  1.465  0.289  0.004 -0.070 -0.077 -0.077
 0.808  1.465  0.285  0.002 -0.072 -0.076 -0.076
