# IsPeriodic    : True
# Period        : 0.630761 days
# Normalization : <g_mag>=0
# 
# Phase u_mag  g_mag  r_mag  i_mag  z_mag  y_mag
 0.000  0.818 -0.294 -0.409 -0.424 -0.412 -0.412
 0.002  0.818 -0.294 -0.409 -0.424 -0.412 -0.412
 0.004  0.819 -0.293 -0.409 -0.424 -0.412 -0.412
 0.006  0.819 -0.293 -0.408 -0.423 -0.411 -0.411
 0.008  0.820 -0.293 -0.408 -0.423 -0.411 -0.411
 0.010  0.821 -0.292 -0.408 -0.423 -0.411 -0.411
 0.012  0.822 -0.292 -0.408 -0.422 -0.410 -0.410
 0.014  0.823 -0.291 -0.407 -0.422 -0.409 -0.409
 0.016  0.824 -0.291 -0.407 -0.421 -0.409 -0.409
 0.018  0.826 -0.290 -0.406 -0.420 -0.408 -0.408
 0.020  0.827 -0.289 -0.405 -0.420 -0.408 -0.408
 0.022  0.829 -0.289 -0.405 -0.419 -0.407 -0.407
 0.024  0.830 -0.288 -0.404 -0.419 -0.406 -0.406
 0.026  0.832 -0.287 -0.404 -0.418 -0.405 -0.405
 0.028  0.833 -0.286 -0.402 -0.417 -0.404 -0.404
 0.030  0.835 -0.285 -0.402 -0.416 -0.403 -0.403
 0.032  0.837 -0.284 -0.401 -0.416 -0.403 -0.403
 0.034  0.839 -0.283 -0.400 -0.415 -0.402 -0.402
 0.036  0.841 -0.281 -0.398 -0.414 -0.401 -0.401
 0.038  0.843 -0.280 -0.397 -0.414 -0.400 -0.400
 0.040  0.845 -0.279 -0.396 -0.413 -0.399 -0.399
 0.042  0.846 -0.278 -0.395 -0.412 -0.398 -0.398
 0.044  0.848 -0.276 -0.393 -0.411 -0.397 -0.397
 0.046  0.850 -0.275 -0.392 -0.411 -0.397 -0.397
 0.048  0.852 -0.273 -0.390 -0.410 -0.396 -0.396
 0.050  0.854 -0.272 -0.388 -0.410 -0.395 -0.395
 0.052  0.856 -0.270 -0.387 -0.409 -0.394 -0.394
 0.054  0.859 -0.268 -0.385 -0.408 -0.393 -0.393
 0.056  0.861 -0.266 -0.383 -0.407 -0.393 -0.393
 0.058  0.863 -0.265 -0.382 -0.407 -0.392 -0.392
 0.060  0.865 -0.263 -0.380 -0.406 -0.391 -0.391
 0.062  0.867 -0.261 -0.377 -0.405 -0.390 -0.390
 0.064  0.870 -0.259 -0.376 -0.404 -0.390 -0.390
 0.066  0.872 -0.257 -0.374 -0.404 -0.389 -0.389
 0.068  0.875 -0.254 -0.372 -0.403 -0.388 -0.388
 0.070  0.877 -0.252 -0.370 -0.402 -0.387 -0.387
 0.072  0.879 -0.249 -0.368 -0.402 -0.387 -0.387
 0.074  0.882 -0.247 -0.366 -0.401 -0.386 -0.386
 0.076  0.885 -0.245 -0.365 -0.400 -0.385 -0.385
 0.078  0.887 -0.243 -0.363 -0.399 -0.384 -0.384
 0.080  0.890 -0.240 -0.361 -0.399 -0.383 -0.383
 0.082  0.893 -0.238 -0.360 -0.398 -0.383 -0.383
 0.084  0.895 -0.236 -0.358 -0.397 -0.382 -0.382
 0.086  0.898 -0.233 -0.356 -0.396 -0.381 -0.381
 0.088  0.900 -0.231 -0.354 -0.395 -0.381 -0.381
 0.090  0.903 -0.229 -0.353 -0.395 -0.380 -0.380
 0.092  0.906 -0.226 -0.351 -0.394 -0.379 -0.379
 0.094  0.909 -0.224 -0.350 -0.393 -0.378 -0.378
 0.096  0.911 -0.222 -0.348 -0.392 -0.378 -0.378
 0.098  0.914 -0.220 -0.347 -0.392 -0.377 -0.377
 0.100  0.916 -0.217 -0.346 -0.391 -0.376 -0.376
 0.102  0.919 -0.215 -0.344 -0.390 -0.375 -0.375
 0.104  0.922 -0.213 -0.343 -0.389 -0.375 -0.375
 0.106  0.925 -0.211 -0.341 -0.388 -0.374 -0.374
 0.108  0.927 -0.209 -0.340 -0.388 -0.374 -0.374
 0.110  0.929 -0.206 -0.339 -0.387 -0.373 -0.373
 0.112  0.932 -0.204 -0.338 -0.386 -0.372 -0.372
 0.114  0.934 -0.202 -0.336 -0.385 -0.371 -0.371
 0.116  0.937 -0.199 -0.335 -0.384 -0.371 -0.371
 0.118  0.939 -0.197 -0.334 -0.383 -0.370 -0.370
 0.120  0.941 -0.195 -0.333 -0.382 -0.369 -0.369
 0.122  0.944 -0.193 -0.332 -0.381 -0.369 -0.369
 0.124  0.946 -0.191 -0.331 -0.380 -0.368 -0.368
 0.126  0.948 -0.189 -0.329 -0.379 -0.367 -0.367
 0.128  0.951 -0.187 -0.328 -0.378 -0.367 -0.367
 0.130  0.953 -0.185 -0.327 -0.377 -0.366 -0.366
 0.132  0.955 -0.183 -0.327 -0.376 -0.365 -0.365
 0.134  0.957 -0.181 -0.325 -0.375 -0.365 -0.365
 0.136  0.959 -0.179 -0.324 -0.374 -0.364 -0.364
 0.138  0.962 -0.177 -0.324 -0.373 -0.363 -0.363
 0.140  0.964 -0.175 -0.322 -0.372 -0.363 -0.363
 0.142  0.966 -0.173 -0.321 -0.371 -0.362 -0.362
 0.144  0.968 -0.171 -0.321 -0.370 -0.362 -0.362
 0.146  0.970 -0.169 -0.320 -0.369 -0.361 -0.361
 0.148  0.972 -0.167 -0.318 -0.368 -0.360 -0.360
 0.150  0.974 -0.165 -0.317 -0.366 -0.360 -0.360
 0.152  0.976 -0.163 -0.317 -0.365 -0.359 -0.359
 0.154  0.978 -0.161 -0.316 -0.364 -0.358 -0.358
 0.156  0.980 -0.159 -0.314 -0.363 -0.358 -0.358
 0.158  0.982 -0.157 -0.313 -0.362 -0.357 -0.357
 0.160  0.984 -0.155 -0.312 -0.361 -0.356 -0.356
 0.162  0.986 -0.153 -0.311 -0.359 -0.356 -0.356
 0.164  0.988 -0.151 -0.310 -0.358 -0.355 -0.355
 0.166  0.989 -0.149 -0.309 -0.357 -0.355 -0.355
 0.168  0.991 -0.147 -0.308 -0.356 -0.354 -0.354
 0.170  0.993 -0.145 -0.307 -0.355 -0.353 -0.353
 0.172  0.995 -0.142 -0.306 -0.354 -0.353 -0.353
 0.174  0.997 -0.140 -0.305 -0.353 -0.352 -0.352
 0.176  0.999 -0.138 -0.303 -0.352 -0.352 -0.352
 0.178  1.001 -0.136 -0.302 -0.351 -0.351 -0.351
 0.180  1.003 -0.134 -0.301 -0.350 -0.350 -0.350
 0.182  1.005 -0.132 -0.300 -0.349 -0.350 -0.350
 0.184  1.007 -0.130 -0.299 -0.348 -0.349 -0.349
 0.186  1.009 -0.128 -0.298 -0.347 -0.349 -0.349
 0.188  1.011 -0.126 -0.296 -0.346 -0.348 -0.348
 0.190  1.013 -0.123 -0.295 -0.345 -0.347 -0.347
 0.192  1.016 -0.121 -0.294 -0.344 -0.347 -0.347
 0.194  1.018 -0.119 -0.293 -0.343 -0.346 -0.346
 0.196  1.020 -0.116 -0.292 -0.342 -0.346 -0.346
 0.198  1.022 -0.114 -0.290 -0.341 -0.345 -0.345
 0.200  1.024 -0.112 -0.289 -0.340 -0.344 -0.344
 0.202  1.026 -0.110 -0.288 -0.339 -0.344 -0.344
 0.204  1.028 -0.108 -0.287 -0.338 -0.343 -0.343
 0.206  1.030 -0.105 -0.285 -0.338 -0.343 -0.343
 0.208  1.033 -0.103 -0.284 -0.337 -0.342 -0.342
 0.210  1.035 -0.101 -0.283 -0.336 -0.342 -0.342
 0.212  1.037 -0.099 -0.282 -0.335 -0.341 -0.341
 0.214  1.039 -0.096 -0.280 -0.334 -0.340 -0.340
 0.216  1.041 -0.094 -0.279 -0.333 -0.340 -0.340
 0.218  1.044 -0.092 -0.278 -0.333 -0.339 -0.339
 0.220  1.046 -0.089 -0.277 -0.332 -0.339 -0.339
 0.222  1.048 -0.087 -0.276 -0.331 -0.338 -0.338
 0.224  1.051 -0.085 -0.274 -0.331 -0.338 -0.338
 0.226  1.052 -0.083 -0.273 -0.330 -0.337 -0.337
 0.228  1.055 -0.080 -0.271 -0.329 -0.336 -0.336
 0.230  1.057 -0.077 -0.270 -0.328 -0.336 -0.336
 0.232  1.060 -0.075 -0.269 -0.328 -0.335 -0.335
 0.234  1.062 -0.073 -0.268 -0.327 -0.335 -0.335
 0.236  1.064 -0.071 -0.267 -0.326 -0.334 -0.334
 0.238  1.067 -0.068 -0.266 -0.325 -0.334 -0.334
 0.240  1.068 -0.066 -0.264 -0.325 -0.333 -0.333
 0.242  1.071 -0.064 -0.263 -0.324 -0.332 -0.332
 0.244  1.073 -0.062 -0.262 -0.323 -0.332 -0.332
 0.246  1.075 -0.059 -0.260 -0.323 -0.331 -0.331
 0.248  1.077 -0.057 -0.259 -0.322 -0.331 -0.331
 0.250  1.080 -0.055 -0.258 -0.321 -0.330 -0.330
 0.252  1.082 -0.053 -0.257 -0.320 -0.329 -0.329
 0.254  1.084 -0.050 -0.256 -0.320 -0.329 -0.329
 0.256  1.085 -0.048 -0.255 -0.319 -0.328 -0.328
 0.258  1.087 -0.046 -0.254 -0.318 -0.327 -0.327
 0.260  1.089 -0.044 -0.252 -0.317 -0.327 -0.327
 0.262  1.091 -0.041 -0.251 -0.316 -0.326 -0.326
 0.264  1.093 -0.039 -0.250 -0.315 -0.325 -0.325
 0.266  1.095 -0.037 -0.248 -0.314 -0.325 -0.325
 0.268  1.097 -0.034 -0.247 -0.314 -0.324 -0.324
 0.270  1.099 -0.032 -0.246 -0.313 -0.324 -0.324
 0.272  1.101 -0.030 -0.245 -0.312 -0.323 -0.323
 0.274  1.103 -0.028 -0.244 -0.311 -0.322 -0.322
 0.276  1.105 -0.025 -0.243 -0.310 -0.321 -0.321
 0.278  1.106 -0.023 -0.241 -0.309 -0.321 -0.321
 0.280  1.108 -0.021 -0.240 -0.308 -0.320 -0.320
 0.282  1.110 -0.019 -0.239 -0.307 -0.319 -0.319
 0.284  1.112 -0.016 -0.238 -0.306 -0.318 -0.318
 0.286  1.114 -0.014 -0.236 -0.305 -0.318 -0.318
 0.288  1.115 -0.012 -0.235 -0.304 -0.317 -0.317
 0.290  1.117 -0.010 -0.234 -0.303 -0.316 -0.316
 0.292  1.118 -0.008 -0.233 -0.302 -0.315 -0.315
 0.294  1.120 -0.006 -0.231 -0.301 -0.315 -0.315
 0.296  1.121 -0.004 -0.230 -0.300 -0.314 -0.314
 0.298  1.123 -0.001 -0.229 -0.299 -0.313 -0.313
 0.300  1.125  0.001 -0.227 -0.298 -0.312 -0.312
 0.302  1.126  0.003 -0.226 -0.297 -0.312 -0.312
 0.304  1.128  0.005 -0.225 -0.296 -0.311 -0.311
 0.306  1.129  0.007 -0.223 -0.295 -0.310 -0.310
 0.308  1.131  0.009 -0.222 -0.293 -0.309 -0.309
 0.310  1.132  0.011 -0.220 -0.292 -0.308 -0.308
 0.312  1.134  0.013 -0.219 -0.291 -0.307 -0.307
 0.314  1.135  0.015 -0.218 -0.290 -0.307 -0.307
 0.316  1.137  0.017 -0.216 -0.289 -0.306 -0.306
 0.318  1.138  0.019 -0.215 -0.288 -0.305 -0.305
 0.320  1.140  0.020 -0.213 -0.287 -0.304 -0.304
 0.322  1.141  0.022 -0.212 -0.286 -0.303 -0.303
 0.324  1.143  0.024 -0.210 -0.285 -0.303 -0.303
 0.326  1.144  0.026 -0.208 -0.284 -0.302 -0.302
 0.328  1.146  0.027 -0.207 -0.283 -0.301 -0.301
 0.330  1.147  0.029 -0.205 -0.282 -0.300 -0.300
 0.332  1.149  0.031 -0.204 -0.280 -0.300 -0.300
 0.334  1.150  0.032 -0.202 -0.280 -0.299 -0.299
 0.336  1.152  0.034 -0.201 -0.278 -0.298 -0.298
 0.338  1.153  0.036 -0.199 -0.277 -0.297 -0.297
 0.340  1.155  0.037 -0.197 -0.277 -0.297 -0.297
 0.342  1.156  0.039 -0.196 -0.275 -0.296 -0.296
 0.344  1.158  0.040 -0.194 -0.275 -0.295 -0.295
 0.346  1.160  0.042 -0.193 -0.273 -0.294 -0.294
 0.348  1.161  0.043 -0.191 -0.272 -0.294 -0.294
 0.350  1.163  0.045 -0.189 -0.271 -0.293 -0.293
 0.352  1.164  0.046 -0.188 -0.270 -0.292 -0.292
 0.354  1.165  0.047 -0.186 -0.269 -0.292 -0.292
 0.356  1.167  0.049 -0.185 -0.268 -0.291 -0.291
 0.358  1.168  0.051 -0.183 -0.268 -0.290 -0.290
 0.360  1.170  0.052 -0.182 -0.266 -0.290 -0.290
 0.362  1.171  0.053 -0.180 -0.266 -0.289 -0.289
 0.364  1.173  0.055 -0.179 -0.264 -0.288 -0.288
 0.366  1.175  0.056 -0.177 -0.264 -0.288 -0.288
 0.368  1.176  0.057 -0.176 -0.263 -0.287 -0.287
 0.370  1.178  0.059 -0.174 -0.262 -0.286 -0.286
 0.372  1.179  0.060 -0.173 -0.261 -0.286 -0.286
 0.374  1.180  0.061 -0.171 -0.260 -0.285 -0.285
 0.376  1.182  0.063 -0.170 -0.259 -0.284 -0.284
 0.378  1.183  0.064 -0.169 -0.258 -0.284 -0.284
 0.380  1.185  0.065 -0.168 -0.257 -0.283 -0.283
 0.382  1.186  0.067 -0.166 -0.256 -0.283 -0.283
 0.384  1.188  0.068 -0.165 -0.255 -0.282 -0.282
 0.386  1.190  0.070 -0.164 -0.254 -0.281 -0.281
 0.388  1.191  0.071 -0.163 -0.253 -0.281 -0.281
 0.390  1.193  0.072 -0.161 -0.252 -0.280 -0.280
 0.392  1.194  0.074 -0.160 -0.252 -0.279 -0.279
 0.394  1.195  0.075 -0.159 -0.251 -0.279 -0.279
 0.396  1.196  0.077 -0.158 -0.250 -0.278 -0.278
 0.398  1.198  0.078 -0.157 -0.249 -0.277 -0.277
 0.400  1.199  0.080 -0.156 -0.248 -0.277 -0.277
 0.402  1.201  0.081 -0.155 -0.247 -0.276 -0.276
 0.404  1.202  0.083 -0.154 -0.246 -0.275 -0.275
 0.406  1.204  0.084 -0.153 -0.245 -0.275 -0.275
 0.408  1.205  0.086 -0.152 -0.244 -0.274 -0.274
 0.410  1.207  0.087 -0.151 -0.244 -0.273 -0.273
 0.412  1.208  0.089 -0.150 -0.243 -0.272 -0.272
 0.414  1.209  0.090 -0.149 -0.242 -0.272 -0.272
 0.416  1.211  0.092 -0.148 -0.241 -0.271 -0.271
 0.418  1.212  0.094 -0.147 -0.240 -0.270 -0.270
 0.420  1.213  0.096 -0.146 -0.239 -0.269 -0.269
 0.422  1.214  0.097 -0.146 -0.238 -0.269 -0.269
 0.424  1.216  0.099 -0.145 -0.238 -0.268 -0.268
 0.426  1.217  0.101 -0.144 -0.237 -0.267 -0.267
 0.428  1.218  0.102 -0.143 -0.236 -0.266 -0.266
 0.430  1.220  0.104 -0.142 -0.235 -0.266 -0.266
 0.432  1.221  0.105 -0.141 -0.234 -0.265 -0.265
 0.434  1.222  0.107 -0.141 -0.234 -0.264 -0.264
 0.436  1.224  0.109 -0.140 -0.233 -0.263 -0.263
 0.438  1.225  0.110 -0.139 -0.232 -0.262 -0.262
 0.440  1.226  0.112 -0.138 -0.231 -0.261 -0.261
 0.442  1.227  0.113 -0.137 -0.230 -0.260 -0.260
 0.444  1.228  0.115 -0.136 -0.230 -0.260 -0.260
 0.446  1.230  0.116 -0.135 -0.229 -0.259 -0.259
 0.448  1.231  0.118 -0.135 -0.228 -0.258 -0.258
 0.450  1.232  0.119 -0.134 -0.227 -0.257 -0.257
 0.452  1.233  0.121 -0.133 -0.226 -0.256 -0.256
 0.454  1.234  0.122 -0.132 -0.226 -0.255 -0.255
 0.456  1.235  0.124 -0.131 -0.225 -0.254 -0.254
 0.458  1.237  0.125 -0.130 -0.224 -0.254 -0.254
 0.460  1.238  0.126 -0.130 -0.223 -0.253 -0.253
 0.462  1.239  0.128 -0.129 -0.223 -0.252 -0.252
 0.464  1.240  0.129 -0.128 -0.222 -0.251 -0.251
 0.466  1.241  0.130 -0.127 -0.221 -0.250 -0.250
 0.468  1.242  0.131 -0.126 -0.220 -0.250 -0.250
 0.470  1.243  0.132 -0.126 -0.219 -0.249 -0.249
 0.472  1.243  0.134 -0.124 -0.219 -0.248 -0.248
 0.474  1.244  0.135 -0.124 -0.218 -0.247 -0.247
 0.476  1.245  0.136 -0.123 -0.217 -0.247 -0.247
 0.478  1.246  0.138 -0.122 -0.216 -0.246 -0.246
 0.480  1.247  0.139 -0.121 -0.216 -0.245 -0.245
 0.482  1.248  0.140 -0.120 -0.215 -0.245 -0.245
 0.484  1.249  0.141 -0.120 -0.214 -0.244 -0.244
 0.486  1.250  0.142 -0.119 -0.213 -0.243 -0.243
 0.488  1.250  0.143 -0.118 -0.213 -0.243 -0.243
 0.490  1.251  0.144 -0.117 -0.212 -0.242 -0.242
 0.492  1.252  0.145 -0.116 -0.211 -0.241 -0.241
 0.494  1.252  0.145 -0.116 -0.210 -0.241 -0.241
 0.496  1.253  0.146 -0.115 -0.210 -0.240 -0.240
 0.498  1.254  0.147 -0.114 -0.209 -0.240 -0.240
 0.500  1.254  0.148 -0.113 -0.208 -0.239 -0.239
 0.502  1.255  0.149 -0.113 -0.207 -0.239 -0.239
 0.504  1.256  0.150 -0.112 -0.207 -0.238 -0.238
 0.506  1.256  0.150 -0.111 -0.206 -0.238 -0.238
 0.508  1.257  0.151 -0.110 -0.205 -0.237 -0.237
 0.510  1.257  0.152 -0.110 -0.204 -0.237 -0.237
 0.512  1.258  0.153 -0.109 -0.203 -0.236 -0.236
 0.514  1.258  0.153 -0.109 -0.203 -0.236 -0.236
 0.516  1.259  0.154 -0.108 -0.202 -0.235 -0.235
 0.518  1.259  0.155 -0.107 -0.201 -0.235 -0.235
 0.520  1.259  0.156 -0.107 -0.201 -0.234 -0.234
 0.522  1.260  0.156 -0.106 -0.200 -0.234 -0.234
 0.524  1.260  0.157 -0.106 -0.199 -0.234 -0.234
 0.526  1.261  0.158 -0.105 -0.198 -0.233 -0.233
 0.528  1.261  0.158 -0.105 -0.198 -0.233 -0.233
 0.530  1.261  0.159 -0.104 -0.197 -0.232 -0.232
 0.532  1.262  0.160 -0.104 -0.196 -0.232 -0.232
 0.534  1.262  0.160 -0.103 -0.196 -0.232 -0.232
 0.536  1.263  0.161 -0.103 -0.195 -0.231 -0.231
 0.538  1.263  0.162 -0.102 -0.194 -0.231 -0.231
 0.540  1.264  0.162 -0.102 -0.194 -0.231 -0.231
 0.542  1.264  0.163 -0.102 -0.193 -0.230 -0.230
 0.544  1.264  0.164 -0.101 -0.192 -0.230 -0.230
 0.546  1.265  0.164 -0.101 -0.192 -0.229 -0.229
 0.548  1.265  0.165 -0.101 -0.191 -0.229 -0.229
 0.550  1.266  0.166 -0.100 -0.190 -0.229 -0.229
 0.552  1.266  0.166 -0.100 -0.190 -0.228 -0.228
 0.554  1.266  0.167 -0.099 -0.189 -0.228 -0.228
 0.556  1.267  0.167 -0.099 -0.189 -0.227 -0.227
 0.558  1.267  0.168 -0.099 -0.188 -0.227 -0.227
 0.560  1.267  0.169 -0.099 -0.187 -0.226 -0.226
 0.562  1.268  0.169 -0.099 -0.187 -0.226 -0.226
 0.564  1.268  0.170 -0.098 -0.186 -0.226 -0.226
 0.566  1.269  0.170 -0.098 -0.186 -0.225 -0.225
 0.568  1.269  0.171 -0.098 -0.185 -0.225 -0.225
 0.570  1.269  0.171 -0.098 -0.184 -0.225 -0.225
 0.572  1.270  0.172 -0.097 -0.184 -0.224 -0.224
 0.574  1.270  0.172 -0.097 -0.183 -0.224 -0.224
 0.576  1.270  0.173 -0.097 -0.183 -0.223 -0.223
 0.578  1.271  0.173 -0.097 -0.182 -0.223 -0.223
 0.580  1.271  0.174 -0.097 -0.182 -0.222 -0.222
 0.582  1.271  0.174 -0.096 -0.181 -0.222 -0.222
 0.584  1.272  0.175 -0.096 -0.181 -0.222 -0.222
 0.586  1.272  0.175 -0.095 -0.180 -0.221 -0.221
 0.588  1.272  0.176 -0.095 -0.180 -0.221 -0.221
 0.590  1.273  0.176 -0.095 -0.179 -0.220 -0.220
 0.592  1.273  0.177 -0.095 -0.179 -0.220 -0.220
 0.594  1.273  0.177 -0.094 -0.178 -0.220 -0.220
 0.596  1.274  0.177 -0.094 -0.178 -0.219 -0.219
 0.598  1.274  0.178 -0.094 -0.177 -0.219 -0.219
 0.600  1.274  0.178 -0.093 -0.177 -0.218 -0.218
 0.602  1.274  0.179 -0.093 -0.176 -0.218 -0.218
 0.604  1.274  0.179 -0.092 -0.176 -0.217 -0.217
 0.606  1.275  0.180 -0.092 -0.175 -0.217 -0.217
 0.608  1.275  0.180 -0.092 -0.175 -0.216 -0.216
 0.610  1.275  0.180 -0.091 -0.174 -0.216 -0.216
 0.612  1.275  0.180 -0.091 -0.174 -0.216 -0.216
 0.614  1.276  0.181 -0.091 -0.174 -0.215 -0.215
 0.616  1.276  0.181 -0.090 -0.173 -0.215 -0.215
 0.618  1.276  0.181 -0.090 -0.173 -0.214 -0.214
 0.620  1.276  0.181 -0.090 -0.172 -0.214 -0.214
 0.622  1.276  0.182 -0.089 -0.172 -0.213 -0.213
 0.624  1.277  0.182 -0.088 -0.171 -0.213 -0.213
 0.626  1.277  0.182 -0.088 -0.171 -0.212 -0.212
 0.628  1.277  0.182 -0.088 -0.171 -0.212 -0.212
 0.630  1.277  0.182 -0.087 -0.170 -0.211 -0.211
 0.632  1.277  0.182 -0.087 -0.170 -0.210 -0.210
 0.634  1.277  0.182 -0.086 -0.169 -0.210 -0.210
 0.636  1.277  0.182 -0.086 -0.169 -0.209 -0.209
 0.638  1.278  0.182 -0.086 -0.169 -0.209 -0.209
 0.640  1.278  0.183 -0.085 -0.168 -0.208 -0.208
 0.642  1.278  0.183 -0.084 -0.168 -0.207 -0.207
 0.644  1.278  0.183 -0.084 -0.167 -0.207 -0.207
 0.646  1.278  0.183 -0.083 -0.167 -0.206 -0.206
 0.648  1.278  0.183 -0.083 -0.167 -0.206 -0.206
 0.650  1.278  0.183 -0.082 -0.167 -0.205 -0.205
 0.652  1.278  0.183 -0.081 -0.166 -0.204 -0.204
 0.654  1.278  0.183 -0.081 -0.166 -0.204 -0.204
 0.656  1.278  0.183 -0.080 -0.165 -0.203 -0.203
 0.658  1.278  0.183 -0.079 -0.165 -0.203 -0.203
 0.660  1.278  0.183 -0.079 -0.165 -0.202 -0.202
 0.662  1.278  0.184 -0.078 -0.165 -0.201 -0.201
 0.664  1.279  0.184 -0.077 -0.164 -0.200 -0.200
 0.666  1.279  0.184 -0.077 -0.164 -0.200 -0.200
 0.668  1.279  0.185 -0.076 -0.163 -0.199 -0.199
 0.670  1.279  0.185 -0.075 -0.163 -0.198 -0.198
 0.672  1.279  0.185 -0.074 -0.163 -0.198 -0.198
 0.674  1.279  0.186 -0.073 -0.162 -0.197 -0.197
 0.676  1.279  0.186 -0.073 -0.162 -0.196 -0.196
 0.678  1.280  0.187 -0.072 -0.161 -0.195 -0.195
 0.680  1.280  0.187 -0.071 -0.161 -0.194 -0.194
 0.682  1.280  0.188 -0.070 -0.160 -0.193 -0.193
 0.684  1.280  0.189 -0.069 -0.160 -0.192 -0.192
 0.686  1.281  0.189 -0.068 -0.160 -0.191 -0.191
 0.688  1.281  0.190 -0.067 -0.159 -0.191 -0.191
 0.690  1.281  0.191 -0.066 -0.158 -0.189 -0.189
 0.692  1.282  0.191 -0.065 -0.158 -0.189 -0.189
 0.694  1.282  0.192 -0.064 -0.158 -0.188 -0.188
 0.696  1.282  0.193 -0.063 -0.157 -0.186 -0.186
 0.698  1.283  0.194 -0.062 -0.156 -0.185 -0.185
 0.700  1.283  0.195 -0.061 -0.156 -0.184 -0.184
 0.702  1.283  0.196 -0.060 -0.155 -0.183 -0.183
 0.704  1.284  0.197 -0.059 -0.155 -0.182 -0.182
 0.706  1.284  0.198 -0.058 -0.154 -0.181 -0.181
 0.708  1.285  0.199 -0.057 -0.154 -0.180 -0.180
 0.710  1.285  0.200 -0.056 -0.153 -0.178 -0.178
 0.712  1.286  0.201 -0.055 -0.152 -0.177 -0.177
 0.714  1.287  0.202 -0.054 -0.151 -0.176 -0.176
 0.716  1.287  0.203 -0.053 -0.151 -0.175 -0.175
 0.718  1.288  0.205 -0.053 -0.150 -0.173 -0.173
 0.720  1.288  0.206 -0.052 -0.149 -0.172 -0.172
 0.722  1.289  0.207 -0.051 -0.149 -0.170 -0.170
 0.724  1.290  0.208 -0.050 -0.148 -0.169 -0.169
 0.726  1.290  0.209 -0.049 -0.147 -0.167 -0.167
 0.728  1.291  0.209 -0.048 -0.146 -0.166 -0.166
 0.730  1.291  0.210 -0.048 -0.146 -0.164 -0.164
 0.732  1.292  0.211 -0.047 -0.145 -0.163 -0.163
 0.734  1.293  0.211 -0.047 -0.145 -0.161 -0.161
 0.736  1.293  0.211 -0.046 -0.144 -0.160 -0.160
 0.738  1.294  0.212 -0.046 -0.144 -0.158 -0.158
 0.740  1.294  0.212 -0.045 -0.143 -0.157 -0.157
 0.742  1.295  0.212 -0.045 -0.143 -0.156 -0.156
 0.744  1.296  0.212 -0.044 -0.143 -0.154 -0.154
 0.746  1.296  0.211 -0.044 -0.142 -0.153 -0.153
 0.748  1.297  0.211 -0.044 -0.142 -0.152 -0.152
 0.750  1.297  0.210 -0.043 -0.142 -0.150 -0.150
 0.752  1.298  0.210 -0.043 -0.143 -0.149 -0.149
 0.754  1.298  0.209 -0.043 -0.143 -0.148 -0.148
 0.756  1.299  0.208 -0.043 -0.143 -0.147 -0.147
 0.758  1.299  0.207 -0.042 -0.144 -0.146 -0.146
 0.760  1.300  0.206 -0.042 -0.144 -0.145 -0.145
 0.762  1.300  0.205 -0.042 -0.145 -0.145 -0.145
 0.764  1.300  0.204 -0.042 -0.146 -0.144 -0.144
 0.766  1.301  0.203 -0.042 -0.147 -0.143 -0.143
 0.768  1.301  0.201 -0.042 -0.147 -0.142 -0.142
 0.770  1.301  0.200 -0.042 -0.149 -0.142 -0.142
 0.772  1.302  0.198 -0.042 -0.150 -0.142 -0.142
 0.774  1.302  0.197 -0.042 -0.151 -0.141 -0.141
 0.776  1.302  0.195 -0.043 -0.152 -0.141 -0.141
 0.778  1.302  0.193 -0.043 -0.154 -0.141 -0.141
 0.780  1.302  0.191 -0.043 -0.155 -0.140 -0.140
 0.782  1.302  0.188 -0.044 -0.156 -0.140 -0.140
 0.784  1.303  0.186 -0.045 -0.158 -0.140 -0.140
 0.786  1.303  0.184 -0.046 -0.160 -0.140 -0.140
 0.788  1.303  0.181 -0.047 -0.162 -0.140 -0.140
 0.790  1.303  0.178 -0.048 -0.164 -0.140 -0.140
 0.792  1.303  0.175 -0.050 -0.166 -0.140 -0.140
 0.794  1.303  0.172 -0.052 -0.168 -0.140 -0.140
 0.796  1.303  0.169 -0.054 -0.170 -0.140 -0.140
 0.798  1.303  0.166 -0.056 -0.172 -0.140 -0.140
 0.800  1.303  0.162 -0.058 -0.175 -0.141 -0.141
 0.802  1.303  0.159 -0.061 -0.178 -0.141 -0.141
 0.804  1.303  0.155 -0.064 -0.180 -0.142 -0.142
 0.806  1.302  0.152 -0.067 -0.183 -0.142 -0.142
 0.808  1.301  0.148 -0.070 -0.185 -0.143 -0.143
