# IsPeriodic    : True
# Period        : 0.553683 days
# Normalization : <g_mag>=0
# 
# Phase u_mag  g_mag  r_mag  i_mag  z_mag  y_mag
 0.000  0.331 -0.817 -0.746 -0.414 -0.506 -0.506
 0.002  0.331 -0.817 -0.746 -0.414 -0.506 -0.506
 0.004  0.332 -0.817 -0.744 -0.413 -0.505 -0.505
 0.006  0.333 -0.816 -0.742 -0.413 -0.503 -0.503
 0.008  0.335 -0.814 -0.739 -0.412 -0.502 -0.502
 0.010  0.337 -0.812 -0.735 -0.411 -0.500 -0.500
 0.012  0.340 -0.810 -0.731 -0.410 -0.497 -0.497
 0.014  0.342 -0.808 -0.726 -0.409 -0.494 -0.494
 0.016  0.346 -0.805 -0.721 -0.408 -0.491 -0.491
 0.018  0.348 -0.803 -0.716 -0.406 -0.488 -0.488
 0.020  0.352 -0.799 -0.712 -0.405 -0.485 -0.485
 0.022  0.356 -0.796 -0.706 -0.404 -0.481 -0.481
 0.024  0.361 -0.792 -0.700 -0.402 -0.478 -0.478
 0.026  0.365 -0.788 -0.695 -0.401 -0.474 -0.474
 0.028  0.368 -0.784 -0.690 -0.399 -0.471 -0.471
 0.030  0.373 -0.781 -0.685 -0.398 -0.467 -0.467
 0.032  0.378 -0.777 -0.680 -0.396 -0.464 -0.464
 0.034  0.383 -0.773 -0.675 -0.395 -0.461 -0.461
 0.036  0.388 -0.769 -0.670 -0.393 -0.458 -0.458
 0.038  0.394 -0.764 -0.665 -0.392 -0.455 -0.455
 0.040  0.399 -0.760 -0.660 -0.390 -0.452 -0.452
 0.042  0.406 -0.755 -0.657 -0.389 -0.449 -0.449
 0.044  0.412 -0.749 -0.652 -0.387 -0.447 -0.447
 0.046  0.418 -0.744 -0.647 -0.385 -0.444 -0.444
 0.048  0.424 -0.739 -0.642 -0.384 -0.441 -0.441
 0.050  0.432 -0.732 -0.637 -0.382 -0.438 -0.438
 0.052  0.439 -0.727 -0.632 -0.380 -0.435 -0.435
 0.054  0.447 -0.721 -0.626 -0.378 -0.432 -0.432
 0.056  0.454 -0.714 -0.621 -0.376 -0.429 -0.429
 0.058  0.462 -0.708 -0.616 -0.375 -0.426 -0.426
 0.060  0.470 -0.700 -0.610 -0.373 -0.423 -0.423
 0.062  0.478 -0.693 -0.606 -0.371 -0.420 -0.420
 0.064  0.487 -0.687 -0.601 -0.369 -0.417 -0.417
 0.066  0.495 -0.679 -0.595 -0.367 -0.414 -0.414
 0.068  0.505 -0.671 -0.590 -0.365 -0.411 -0.411
 0.070  0.514 -0.664 -0.585 -0.363 -0.408 -0.408
 0.072  0.524 -0.656 -0.580 -0.361 -0.405 -0.405
 0.074  0.533 -0.648 -0.575 -0.360 -0.402 -0.402
 0.076  0.543 -0.640 -0.569 -0.358 -0.400 -0.400
 0.078  0.551 -0.632 -0.564 -0.355 -0.397 -0.397
 0.080  0.561 -0.625 -0.559 -0.353 -0.394 -0.394
 0.082  0.571 -0.617 -0.554 -0.352 -0.392 -0.392
 0.084  0.580 -0.609 -0.550 -0.350 -0.389 -0.389
 0.086  0.589 -0.601 -0.545 -0.347 -0.386 -0.386
 0.088  0.598 -0.593 -0.540 -0.345 -0.384 -0.384
 0.090  0.606 -0.586 -0.534 -0.344 -0.381 -0.381
 0.092  0.615 -0.578 -0.529 -0.341 -0.379 -0.379
 0.094  0.624 -0.570 -0.524 -0.339 -0.376 -0.376
 0.096  0.631 -0.564 -0.519 -0.337 -0.373 -0.373
 0.098  0.640 -0.556 -0.514 -0.335 -0.370 -0.370
 0.100  0.647 -0.549 -0.509 -0.333 -0.368 -0.368
 0.102  0.655 -0.541 -0.504 -0.331 -0.365 -0.365
 0.104  0.662 -0.535 -0.500 -0.329 -0.363 -0.363
 0.106  0.670 -0.527 -0.495 -0.327 -0.360 -0.360
 0.108  0.677 -0.521 -0.490 -0.324 -0.358 -0.358
 0.110  0.684 -0.514 -0.485 -0.323 -0.355 -0.355
 0.112  0.691 -0.506 -0.481 -0.321 -0.353 -0.353
 0.114  0.697 -0.500 -0.476 -0.319 -0.350 -0.350
 0.116  0.705 -0.493 -0.471 -0.316 -0.348 -0.348
 0.118  0.711 -0.487 -0.466 -0.315 -0.346 -0.346
 0.120  0.717 -0.480 -0.462 -0.313 -0.343 -0.343
 0.122  0.723 -0.474 -0.457 -0.311 -0.341 -0.341
 0.124  0.730 -0.467 -0.452 -0.308 -0.339 -0.339
 0.126  0.736 -0.461 -0.448 -0.307 -0.337 -0.337
 0.128  0.741 -0.456 -0.444 -0.305 -0.334 -0.334
 0.130  0.747 -0.449 -0.440 -0.303 -0.333 -0.333
 0.132  0.752 -0.443 -0.435 -0.300 -0.331 -0.331
 0.134  0.757 -0.438 -0.431 -0.299 -0.328 -0.328
 0.136  0.762 -0.431 -0.426 -0.297 -0.326 -0.326
 0.138  0.767 -0.426 -0.422 -0.295 -0.324 -0.324
 0.140  0.772 -0.419 -0.418 -0.293 -0.323 -0.323
 0.142  0.777 -0.414 -0.413 -0.291 -0.320 -0.320
 0.144  0.781 -0.409 -0.409 -0.289 -0.318 -0.318
 0.146  0.786 -0.402 -0.404 -0.287 -0.317 -0.317
 0.148  0.791 -0.397 -0.400 -0.285 -0.314 -0.314
 0.150  0.794 -0.392 -0.396 -0.283 -0.313 -0.313
 0.152  0.799 -0.387 -0.393 -0.281 -0.311 -0.311
 0.154  0.803 -0.382 -0.389 -0.279 -0.309 -0.309
 0.156  0.808 -0.375 -0.384 -0.277 -0.307 -0.307
 0.158  0.812 -0.370 -0.380 -0.275 -0.305 -0.305
 0.160  0.817 -0.365 -0.376 -0.273 -0.303 -0.303
 0.162  0.821 -0.360 -0.372 -0.271 -0.302 -0.302
 0.164  0.826 -0.354 -0.368 -0.270 -0.299 -0.299
 0.166  0.829 -0.349 -0.364 -0.268 -0.298 -0.298
 0.168  0.834 -0.344 -0.360 -0.266 -0.296 -0.296
 0.170  0.839 -0.339 -0.356 -0.264 -0.294 -0.294
 0.172  0.843 -0.334 -0.352 -0.262 -0.293 -0.293
 0.174  0.848 -0.327 -0.348 -0.260 -0.290 -0.290
 0.176  0.853 -0.322 -0.345 -0.258 -0.289 -0.289
 0.178  0.857 -0.317 -0.342 -0.257 -0.287 -0.287
 0.180  0.862 -0.312 -0.338 -0.255 -0.285 -0.285
 0.182  0.867 -0.306 -0.334 -0.253 -0.283 -0.283
 0.184  0.870 -0.301 -0.330 -0.251 -0.281 -0.281
 0.186  0.875 -0.296 -0.327 -0.249 -0.279 -0.279
 0.188  0.880 -0.291 -0.323 -0.247 -0.277 -0.277
 0.190  0.885 -0.287 -0.319 -0.246 -0.275 -0.275
 0.192  0.889 -0.282 -0.316 -0.244 -0.273 -0.273
 0.194  0.894 -0.276 -0.312 -0.242 -0.272 -0.272
 0.196  0.899 -0.271 -0.308 -0.240 -0.269 -0.269
 0.198  0.904 -0.266 -0.305 -0.238 -0.267 -0.267
 0.200  0.908 -0.261 -0.301 -0.236 -0.266 -0.266
 0.202  0.913 -0.256 -0.298 -0.234 -0.263 -0.263
 0.204  0.918 -0.251 -0.294 -0.233 -0.262 -0.262
 0.206  0.923 -0.247 -0.291 -0.231 -0.260 -0.260
 0.208  0.928 -0.241 -0.289 -0.229 -0.258 -0.258
 0.210  0.932 -0.236 -0.285 -0.227 -0.256 -0.256
 0.212  0.937 -0.231 -0.282 -0.226 -0.254 -0.254
 0.214  0.941 -0.226 -0.278 -0.224 -0.252 -0.252
 0.216  0.946 -0.222 -0.275 -0.222 -0.249 -0.249
 0.218  0.951 -0.217 -0.272 -0.220 -0.248 -0.248
 0.220  0.956 -0.212 -0.269 -0.218 -0.246 -0.246
 0.222  0.961 -0.206 -0.265 -0.217 -0.243 -0.243
 0.224  0.965 -0.202 -0.262 -0.215 -0.242 -0.242
 0.226  0.970 -0.197 -0.259 -0.213 -0.240 -0.240
 0.228  0.975 -0.192 -0.256 -0.212 -0.237 -0.237
 0.230  0.980 -0.188 -0.253 -0.210 -0.236 -0.236
 0.232  0.984 -0.183 -0.250 -0.209 -0.234 -0.234
 0.234  0.989 -0.179 -0.247 -0.207 -0.231 -0.231
 0.236  0.993 -0.174 -0.244 -0.205 -0.229 -0.229
 0.238  0.998 -0.170 -0.241 -0.203 -0.228 -0.228
 0.240  1.003 -0.165 -0.238 -0.202 -0.225 -0.225
 0.242  1.006 -0.161 -0.236 -0.200 -0.224 -0.224
 0.244  1.011 -0.156 -0.233 -0.198 -0.222 -0.222
 0.246  1.015 -0.152 -0.230 -0.196 -0.219 -0.219
 0.248  1.019 -0.147 -0.227 -0.195 -0.218 -0.218
 0.250  1.024 -0.143 -0.224 -0.193 -0.216 -0.216
 0.252  1.027 -0.138 -0.221 -0.191 -0.214 -0.214
 0.254  1.032 -0.134 -0.218 -0.190 -0.212 -0.212
 0.256  1.036 -0.130 -0.215 -0.188 -0.210 -0.210
 0.258  1.040 -0.125 -0.213 -0.186 -0.208 -0.208
 0.260  1.044 -0.121 -0.210 -0.184 -0.207 -0.207
 0.262  1.049 -0.117 -0.207 -0.183 -0.204 -0.204
 0.264  1.052 -0.113 -0.204 -0.181 -0.203 -0.203
 0.266  1.056 -0.108 -0.201 -0.180 -0.201 -0.201
 0.268  1.060 -0.104 -0.199 -0.178 -0.199 -0.199
 0.270  1.064 -0.100 -0.196 -0.176 -0.198 -0.198
 0.272  1.067 -0.096 -0.193 -0.175 -0.196 -0.196
 0.274  1.071 -0.092 -0.191 -0.173 -0.194 -0.194
 0.276  1.075 -0.087 -0.188 -0.172 -0.193 -0.193
 0.278  1.079 -0.083 -0.185 -0.170 -0.190 -0.190
 0.280  1.082 -0.079 -0.183 -0.168 -0.189 -0.189
 0.282  1.086 -0.075 -0.181 -0.167 -0.187 -0.187
 0.284  1.090 -0.071 -0.179 -0.165 -0.185 -0.185
 0.286  1.094 -0.067 -0.176 -0.163 -0.184 -0.184
 0.288  1.097 -0.063 -0.174 -0.162 -0.182 -0.182
 0.290  1.101 -0.060 -0.171 -0.160 -0.181 -0.181
 0.292  1.103 -0.056 -0.169 -0.159 -0.179 -0.179
 0.294  1.107 -0.052 -0.166 -0.157 -0.177 -0.177
 0.296  1.111 -0.048 -0.164 -0.155 -0.175 -0.175
 0.298  1.115 -0.044 -0.162 -0.154 -0.174 -0.174
 0.300  1.118 -0.040 -0.159 -0.152 -0.172 -0.172
 0.302  1.121 -0.036 -0.157 -0.151 -0.171 -0.171
 0.304  1.125 -0.032 -0.154 -0.149 -0.169 -0.169
 0.306  1.128 -0.028 -0.152 -0.147 -0.167 -0.167
 0.308  1.132 -0.024 -0.149 -0.146 -0.166 -0.166
 0.310  1.136 -0.021 -0.147 -0.144 -0.164 -0.164
 0.312  1.138 -0.017 -0.144 -0.142 -0.163 -0.163
 0.314  1.142 -0.013 -0.142 -0.141 -0.161 -0.161
 0.316  1.146 -0.009 -0.139 -0.139 -0.160 -0.160
 0.318  1.150 -0.005 -0.137 -0.137 -0.157 -0.157
 0.320  1.153  0.000 -0.134 -0.135 -0.156 -0.156
 0.322  1.156  0.004 -0.132 -0.133 -0.154 -0.154
 0.324  1.160  0.008 -0.130 -0.132 -0.153 -0.153
 0.326  1.163  0.012 -0.128 -0.130 -0.151 -0.151
 0.328  1.167  0.016 -0.125 -0.128 -0.149 -0.149
 0.330  1.170  0.020 -0.123 -0.126 -0.148 -0.148
 0.332  1.173  0.024 -0.120 -0.125 -0.146 -0.146
 0.334  1.177  0.027 -0.117 -0.123 -0.144 -0.144
 0.336  1.181  0.033 -0.115 -0.121 -0.142 -0.142
 0.338  1.183  0.037 -0.112 -0.119 -0.141 -0.141
 0.340  1.187  0.040 -0.110 -0.117 -0.140 -0.140
 0.342  1.191  0.044 -0.107 -0.115 -0.137 -0.137
 0.344  1.194  0.048 -0.104 -0.114 -0.136 -0.136
 0.346  1.198  0.052 -0.102 -0.112 -0.134 -0.134
 0.348  1.201  0.057 -0.099 -0.110 -0.132 -0.132
 0.350  1.204  0.061 -0.097 -0.108 -0.131 -0.131
 0.352  1.208  0.065 -0.094 -0.106 -0.129 -0.129
 0.354  1.212  0.069 -0.091 -0.104 -0.127 -0.127
 0.356  1.214  0.073 -0.088 -0.102 -0.125 -0.125
 0.358  1.218  0.078 -0.086 -0.101 -0.124 -0.124
 0.360  1.222  0.082 -0.083 -0.099 -0.122 -0.122
 0.362  1.224  0.086 -0.080 -0.096 -0.120 -0.120
 0.364  1.228  0.090 -0.078 -0.094 -0.118 -0.118
 0.366  1.232  0.094 -0.076 -0.093 -0.116 -0.116
 0.368  1.236  0.098 -0.073 -0.091 -0.115 -0.115
 0.370  1.238  0.102 -0.071 -0.089 -0.113 -0.113
 0.372  1.242  0.105 -0.068 -0.086 -0.111 -0.111
 0.374  1.246  0.109 -0.065 -0.085 -0.110 -0.110
 0.376  1.248  0.113 -0.062 -0.083 -0.107 -0.107
 0.378  1.252  0.117 -0.060 -0.081 -0.106 -0.106
 0.380  1.255  0.121 -0.057 -0.079 -0.104 -0.104
 0.382  1.258  0.125 -0.054 -0.077 -0.102 -0.102
 0.384  1.262  0.129 -0.052 -0.075 -0.101 -0.101
 0.386  1.264  0.131 -0.049 -0.073 -0.098 -0.098
 0.388  1.268  0.135 -0.046 -0.071 -0.097 -0.097
 0.390  1.272  0.139 -0.044 -0.069 -0.095 -0.095
 0.392  1.274  0.142 -0.041 -0.067 -0.093 -0.093
 0.394  1.278  0.146 -0.038 -0.065 -0.092 -0.092
 0.396  1.280  0.150 -0.036 -0.064 -0.090 -0.090
 0.398  1.284  0.152 -0.033 -0.062 -0.088 -0.088
 0.400  1.287  0.156 -0.030 -0.060 -0.086 -0.086
 0.402  1.290  0.159 -0.028 -0.058 -0.085 -0.085
 0.404  1.293  0.163 -0.025 -0.057 -0.083 -0.083
 0.406  1.297  0.165 -0.023 -0.055 -0.081 -0.081
 0.408  1.299  0.168 -0.021 -0.053 -0.080 -0.080
 0.410  1.303  0.172 -0.018 -0.051 -0.078 -0.078
 0.412  1.305  0.174 -0.016 -0.049 -0.076 -0.076
 0.414  1.309  0.177 -0.013 -0.048 -0.075 -0.075
 0.416  1.312  0.179 -0.010 -0.046 -0.072 -0.072
 0.418  1.315  0.182 -0.008 -0.044 -0.071 -0.071
 0.420  1.318  0.185 -0.005 -0.043 -0.069 -0.069
 0.422  1.322  0.189 -0.003 -0.041 -0.068 -0.068
 0.424  1.324  0.191  0.000 -0.040 -0.066 -0.066
 0.426  1.327  0.194  0.003 -0.038 -0.064 -0.064
 0.428  1.330  0.196  0.005 -0.036 -0.063 -0.063
 0.430  1.333  0.198  0.008 -0.035 -0.060 -0.060
 0.432  1.335  0.200  0.010 -0.033 -0.059 -0.059
 0.434  1.339  0.203  0.013 -0.032 -0.057 -0.057
 0.436  1.341  0.205  0.016 -0.031 -0.056 -0.056
 0.438  1.344  0.208  0.018 -0.029 -0.054 -0.054
 0.440  1.348  0.211  0.021 -0.028 -0.052 -0.052
 0.442  1.350  0.212  0.023 -0.027 -0.051 -0.051
 0.444  1.353  0.215  0.026 -0.025 -0.049 -0.049
 0.446  1.355  0.217  0.028 -0.023 -0.048 -0.048
 0.448  1.358  0.220  0.029 -0.022 -0.045 -0.045
 0.450  1.361  0.221  0.032 -0.020 -0.044 -0.044
 0.452  1.364  0.224  0.034 -0.019 -0.042 -0.042
 0.454  1.366  0.226  0.036 -0.018 -0.041 -0.041
 0.456  1.369  0.228  0.039 -0.016 -0.039 -0.039
 0.458  1.371  0.230  0.041 -0.015 -0.037 -0.037
 0.460  1.374  0.231  0.043 -0.014 -0.036 -0.036
 0.462  1.376  0.234  0.045 -0.012 -0.034 -0.034
 0.464  1.379  0.237  0.048 -0.011 -0.033 -0.033
 0.466  1.381  0.238  0.050 -0.009 -0.031 -0.031
 0.468  1.384  0.240  0.052 -0.008 -0.030 -0.030
 0.470  1.386  0.242  0.054 -0.007 -0.028 -0.028
 0.472  1.389  0.243  0.056 -0.005 -0.027 -0.027
 0.474  1.391  0.246  0.058 -0.004 -0.025 -0.025
 0.476  1.393  0.247  0.060 -0.003 -0.024 -0.024
 0.478  1.395  0.250  0.062 -0.001 -0.022 -0.022
 0.480  1.398  0.251  0.064 -0.000 -0.021 -0.021
 0.482  1.400  0.252  0.066  0.002 -0.019 -0.019
 0.484  1.401  0.255  0.067  0.003 -0.018 -0.018
 0.486  1.404  0.256  0.069  0.004 -0.016 -0.016
 0.488  1.406  0.257  0.071  0.005 -0.015 -0.015
 0.490  1.409  0.260  0.073  0.007 -0.013 -0.013
 0.492  1.410  0.261  0.075  0.009 -0.012 -0.012
 0.494  1.412  0.263  0.076  0.010 -0.010 -0.010
 0.496  1.415  0.264  0.078  0.011 -0.009 -0.009
 0.498  1.416  0.265  0.080  0.012 -0.007 -0.007
 0.500  1.419  0.266  0.081  0.014 -0.006 -0.006
 0.502  1.420  0.269  0.082  0.015 -0.004 -0.004
 0.504  1.422  0.270  0.083  0.017 -0.003 -0.003
 0.506  1.424  0.272  0.085  0.018 -0.001 -0.001
 0.508  1.426  0.273  0.086  0.019  0.000  0.000
 0.510  1.427  0.274  0.088  0.020  0.002  0.002
 0.512  1.429  0.276  0.089  0.022  0.003  0.003
 0.514  1.431  0.277  0.090  0.023  0.004  0.004
 0.516  1.432  0.278  0.092  0.024  0.005  0.005
 0.518  1.434  0.279  0.093  0.025  0.007  0.007
 0.520  1.435  0.281  0.094  0.026  0.008  0.008
 0.522  1.436  0.282  0.095  0.028  0.010  0.010
 0.524  1.437  0.283  0.097  0.029  0.011  0.011
 0.526  1.439  0.285  0.098  0.030  0.012  0.012
 0.528  1.440  0.286  0.099  0.031  0.014  0.014
 0.530  1.441  0.287  0.100  0.033  0.014  0.014
 0.532  1.442  0.289  0.101  0.033  0.016  0.016
 0.534  1.444  0.290  0.102  0.034  0.017  0.017
 0.536  1.445  0.291  0.103  0.036  0.018  0.018
 0.538  1.446  0.292  0.104  0.037  0.020  0.020
 0.540  1.446  0.294  0.105  0.038  0.020  0.020
 0.542  1.447  0.295  0.106  0.039  0.022  0.022
 0.544  1.449  0.296  0.107  0.039  0.023  0.023
 0.546  1.449  0.298  0.107  0.041  0.024  0.024
 0.548  1.450  0.299  0.108  0.041  0.026  0.026
 0.550  1.450  0.300  0.109  0.042  0.026  0.026
 0.552  1.451  0.302  0.109  0.043  0.027  0.027
 0.554  1.451  0.303  0.110  0.044  0.029  0.029
 0.556  1.452  0.304  0.111  0.045  0.029  0.029
 0.558  1.452  0.305  0.111  0.046  0.031  0.031
 0.560  1.452  0.307  0.112  0.047  0.032  0.032
 0.562  1.454  0.308  0.112  0.047  0.032  0.032
 0.564  1.454  0.308  0.113  0.048  0.034  0.034
 0.566  1.454  0.309  0.113  0.049  0.035  0.035
 0.568  1.454  0.311  0.114  0.049  0.035  0.035
 0.570  1.454  0.312  0.114  0.051  0.037  0.037
 0.572  1.454  0.313  0.114  0.051  0.038  0.038
 0.574  1.454  0.315  0.115  0.052  0.038  0.038
 0.576  1.454  0.315  0.115  0.052  0.039  0.039
 0.578  1.454  0.316  0.115  0.053  0.040  0.040
 0.580  1.454  0.317  0.115  0.053  0.041  0.041
 0.582  1.454  0.318  0.115  0.054  0.042  0.042
 0.584  1.454  0.318  0.116  0.054  0.043  0.043
 0.586  1.454  0.320  0.116  0.055  0.043  0.043
 0.588  1.454  0.321  0.116  0.055  0.044  0.044
 0.590  1.454  0.321  0.116  0.056  0.045  0.045
 0.592  1.454  0.322  0.116  0.056  0.046  0.046
 0.594  1.454  0.324  0.116  0.057  0.046  0.046
 0.596  1.454  0.324  0.117  0.057  0.047  0.047
 0.598  1.454  0.325  0.117  0.058  0.049  0.049
 0.600  1.454  0.325  0.117  0.059  0.049  0.049
 0.602  1.454  0.326  0.117  0.059  0.050  0.050
 0.604  1.454  0.326  0.117  0.059  0.051  0.051
 0.606  1.454  0.326  0.118  0.060  0.052  0.052
 0.608  1.454  0.328  0.118  0.060  0.052  0.052
 0.610  1.454  0.328  0.118  0.060  0.053  0.053
 0.612  1.454  0.328  0.118  0.061  0.054  0.054
 0.614  1.452  0.329  0.119  0.062  0.055  0.055
 0.616  1.452  0.329  0.119  0.062  0.055  0.055
 0.618  1.452  0.329  0.119  0.063  0.056  0.056
 0.620  1.452  0.329  0.119  0.063  0.057  0.057
 0.622  1.452  0.330  0.120  0.063  0.058  0.058
 0.624  1.452  0.330  0.120  0.064  0.058  0.058
 0.626  1.452  0.330  0.120  0.065  0.059  0.059
 0.628  1.452  0.330  0.121  0.065  0.060  0.060
 0.630  1.452  0.330  0.121  0.065  0.061  0.061
 0.632  1.452  0.330  0.121  0.066  0.061  0.061
 0.634  1.452  0.330  0.122  0.067  0.062  0.062
 0.636  1.452  0.330  0.122  0.067  0.063  0.063
 0.638  1.452  0.330  0.122  0.067  0.064  0.064
 0.640  1.452  0.330  0.123  0.068  0.064  0.064
 0.642  1.452  0.330  0.123  0.068  0.065  0.065
 0.644  1.452  0.330  0.123  0.068  0.065  0.065
 0.646  1.452  0.330  0.124  0.069  0.066  0.066
 0.648  1.451  0.330  0.124  0.070  0.067  0.067
 0.650  1.451  0.329  0.124  0.070  0.067  0.067
 0.652  1.451  0.329  0.125  0.070  0.068  0.068
 0.654  1.451  0.329  0.125  0.071  0.069  0.069
 0.656  1.451  0.329  0.125  0.071  0.070  0.070
 0.658  1.451  0.329  0.126  0.072  0.070  0.070
 0.660  1.451  0.328  0.126  0.073  0.071  0.071
 0.662  1.451  0.328  0.126  0.073  0.072  0.072
 0.664  1.450  0.328  0.127  0.074  0.072  0.072
 0.666  1.450  0.328  0.127  0.075  0.073  0.073
 0.668  1.450  0.328  0.127  0.075  0.073  0.073
 0.670  1.450  0.326  0.128  0.076  0.074  0.074
 0.672  1.450  0.326  0.128  0.077  0.075  0.075
 0.674  1.449  0.326  0.128  0.078  0.075  0.075
 0.676  1.449  0.326  0.128  0.080  0.076  0.076
 0.678  1.449  0.325  0.128  0.081  0.076  0.076
 0.680  1.449  0.325  0.128  0.082  0.076  0.076
 0.682  1.447  0.325  0.128  0.084  0.077  0.077
 0.684  1.447  0.325  0.129  0.085  0.078  0.078
 0.686  1.447  0.324  0.129  0.087  0.078  0.078
 0.688  1.447  0.324  0.129  0.089  0.079  0.079
 0.690  1.446  0.324  0.129  0.090  0.079  0.079
 0.692  1.446  0.322  0.129  0.092  0.079  0.079
 0.694  1.446  0.322  0.129  0.094  0.080  0.080
 0.696  1.445  0.322  0.129  0.096  0.080  0.080
 0.698  1.445  0.321  0.129  0.098  0.081  0.081
 0.700  1.444  0.321  0.129  0.100  0.082  0.082
 0.702  1.444  0.321  0.129  0.102  0.082  0.082
 0.704  1.444  0.320  0.129  0.104  0.082  0.082
 0.706  1.442  0.320  0.129  0.107  0.082  0.082
 0.708  1.442  0.320  0.128  0.109  0.083  0.083
 0.710  1.441  0.318  0.128  0.112  0.083  0.083
 0.712  1.441  0.318  0.128  0.115  0.084  0.084
 0.714  1.440  0.318  0.128  0.117  0.084  0.084
 0.716  1.440  0.317  0.128  0.120  0.084  0.084
 0.718  1.440  0.317  0.127  0.123  0.084  0.084
 0.720  1.439  0.317  0.127  0.126  0.085  0.085
 0.722  1.439  0.317  0.127  0.129  0.085  0.085
 0.724  1.437  0.317  0.127  0.133  0.085  0.085
 0.726  1.437  0.317  0.126  0.136  0.085  0.085
 0.728  1.437  0.317  0.126  0.139  0.086  0.086
 0.730  1.437  0.318  0.126  0.142  0.086  0.086
 0.732  1.437  0.318  0.126  0.145  0.087  0.087
 0.734  1.437  0.320  0.127  0.148  0.088  0.088
 0.736  1.437  0.321  0.127  0.151  0.089  0.089
 0.738  1.437  0.322  0.127  0.154  0.090  0.090
 0.740  1.437  0.325  0.128  0.157  0.091  0.091
 0.742  1.437  0.326  0.129  0.160  0.092  0.092
 0.744  1.437  0.329  0.129  0.162  0.094  0.094
 0.746  1.437  0.330  0.130  0.165  0.096  0.096
 0.748  1.439  0.333  0.131  0.168  0.097  0.097
 0.750  1.439  0.335  0.132  0.170  0.100  0.100
 0.752  1.439  0.338  0.133  0.173  0.102  0.102
 0.754  1.440  0.341  0.135  0.175  0.104  0.104
 0.756  1.440  0.343  0.135  0.177  0.106  0.106
 0.758  1.441  0.346  0.136  0.179  0.109  0.109
 0.760  1.441  0.350  0.138  0.181  0.111  0.111
 0.762  1.442  0.352  0.140  0.183  0.114  0.114
 0.764  1.444  0.356  0.142  0.185  0.118  0.118
 0.766  1.445  0.360  0.143  0.187  0.121  0.121
 0.768  1.445  0.364  0.145  0.188  0.125  0.125
 0.770  1.446  0.369  0.148  0.190  0.128  0.128
 0.772  1.447  0.373  0.150  0.191  0.132  0.132
 0.774  1.449  0.378  0.152  0.192  0.136  0.136
 0.776  1.450  0.383  0.155  0.194  0.140  0.140
 0.778  1.451  0.389  0.158  0.195  0.144  0.144
 0.780  1.452  0.394  0.160  0.196  0.149  0.149
 0.782  1.454  0.399  0.163  0.197  0.153  0.153
 0.784  1.456  0.404  0.166  0.198  0.158  0.158
 0.786  1.457  0.409  0.169  0.199  0.163  0.163
 0.788  1.459  0.416  0.172  0.200  0.168  0.168
 0.790  1.461  0.421  0.176  0.200  0.173  0.173
 0.792  1.462  0.426  0.179  0.202  0.179  0.179
 0.794  1.464  0.431  0.182  0.202  0.184  0.184
 0.796  1.466  0.435  0.185  0.202  0.189  0.189
 0.798  1.469  0.441  0.187  0.203  0.194  0.194
 0.800  1.470  0.446  0.191  0.203  0.200  0.200
 0.802  1.472  0.450  0.194  0.203  0.206  0.206
 0.804  1.475  0.454  0.197  0.202  0.210  0.210
 0.806  1.477  0.457  0.200  0.202  0.215  0.215
 0.808  1.480  0.461  0.203  0.201  0.220  0.220
