# IsPeriodic    : True
# Period        : 0.636863 days
# Normalization : <g_mag>=0
# 
# Phase u_mag  g_mag  r_mag  i_mag  z_mag  y_mag
 0.000  0.697 -0.359 -0.471 -0.444 -0.413 -0.413
 0.002  0.697 -0.359 -0.471 -0.444 -0.413 -0.413
 0.004  0.697 -0.359 -0.471 -0.443 -0.413 -0.413
 0.006  0.698 -0.358 -0.471 -0.443 -0.412 -0.412
 0.008  0.698 -0.358 -0.470 -0.443 -0.412 -0.412
 0.010  0.699 -0.357 -0.470 -0.442 -0.411 -0.411
 0.012  0.700 -0.357 -0.469 -0.441 -0.411 -0.411
 0.014  0.701 -0.355 -0.469 -0.440 -0.410 -0.410
 0.016  0.702 -0.354 -0.468 -0.439 -0.409 -0.409
 0.018  0.703 -0.353 -0.467 -0.438 -0.409 -0.409
 0.020  0.704 -0.352 -0.467 -0.438 -0.408 -0.408
 0.022  0.706 -0.351 -0.466 -0.436 -0.407 -0.407
 0.024  0.707 -0.349 -0.465 -0.435 -0.406 -0.406
 0.026  0.708 -0.348 -0.463 -0.434 -0.405 -0.405
 0.028  0.710 -0.346 -0.462 -0.433 -0.404 -0.404
 0.030  0.711 -0.345 -0.462 -0.432 -0.403 -0.403
 0.032  0.713 -0.343 -0.460 -0.431 -0.402 -0.402
 0.034  0.714 -0.341 -0.459 -0.430 -0.401 -0.401
 0.036  0.715 -0.339 -0.458 -0.429 -0.400 -0.400
 0.038  0.717 -0.337 -0.456 -0.428 -0.400 -0.400
 0.040  0.719 -0.335 -0.455 -0.427 -0.398 -0.398
 0.042  0.720 -0.333 -0.454 -0.426 -0.397 -0.397
 0.044  0.722 -0.331 -0.452 -0.425 -0.396 -0.396
 0.046  0.724 -0.328 -0.451 -0.424 -0.396 -0.396
 0.048  0.726 -0.327 -0.449 -0.422 -0.395 -0.395
 0.050  0.728 -0.324 -0.447 -0.421 -0.394 -0.394
 0.052  0.730 -0.322 -0.446 -0.420 -0.393 -0.393
 0.054  0.732 -0.319 -0.444 -0.419 -0.392 -0.392
 0.056  0.735 -0.316 -0.442 -0.418 -0.391 -0.391
 0.058  0.737 -0.313 -0.440 -0.417 -0.390 -0.390
 0.060  0.739 -0.311 -0.438 -0.415 -0.389 -0.389
 0.062  0.741 -0.308 -0.436 -0.414 -0.388 -0.388
 0.064  0.744 -0.305 -0.434 -0.413 -0.387 -0.387
 0.066  0.746 -0.302 -0.432 -0.412 -0.387 -0.387
 0.068  0.749 -0.298 -0.429 -0.410 -0.386 -0.386
 0.070  0.752 -0.295 -0.427 -0.409 -0.385 -0.385
 0.072  0.754 -0.292 -0.425 -0.408 -0.384 -0.384
 0.074  0.757 -0.288 -0.423 -0.406 -0.383 -0.383
 0.076  0.759 -0.285 -0.420 -0.405 -0.382 -0.382
 0.078  0.762 -0.282 -0.417 -0.404 -0.381 -0.381
 0.080  0.765 -0.278 -0.415 -0.402 -0.380 -0.380
 0.082  0.768 -0.274 -0.413 -0.401 -0.380 -0.380
 0.084  0.771 -0.271 -0.410 -0.400 -0.379 -0.379
 0.086  0.773 -0.267 -0.408 -0.398 -0.378 -0.378
 0.088  0.776 -0.264 -0.405 -0.397 -0.377 -0.377
 0.090  0.779 -0.260 -0.403 -0.396 -0.376 -0.376
 0.092  0.782 -0.256 -0.401 -0.394 -0.375 -0.375
 0.094  0.784 -0.253 -0.399 -0.393 -0.375 -0.375
 0.096  0.787 -0.250 -0.396 -0.392 -0.374 -0.374
 0.098  0.790 -0.246 -0.395 -0.391 -0.373 -0.373
 0.100  0.793 -0.243 -0.392 -0.389 -0.372 -0.372
 0.102  0.795 -0.240 -0.390 -0.388 -0.371 -0.371
 0.104  0.798 -0.236 -0.389 -0.387 -0.371 -0.371
 0.106  0.801 -0.233 -0.387 -0.386 -0.370 -0.370
 0.108  0.804 -0.229 -0.385 -0.384 -0.369 -0.369
 0.110  0.806 -0.226 -0.383 -0.383 -0.368 -0.368
 0.112  0.809 -0.223 -0.381 -0.382 -0.368 -0.368
 0.114  0.812 -0.220 -0.379 -0.381 -0.367 -0.367
 0.116  0.814 -0.217 -0.378 -0.379 -0.366 -0.366
 0.118  0.817 -0.214 -0.376 -0.378 -0.365 -0.365
 0.120  0.819 -0.211 -0.375 -0.377 -0.365 -0.365
 0.122  0.822 -0.209 -0.373 -0.376 -0.364 -0.364
 0.124  0.825 -0.206 -0.371 -0.375 -0.363 -0.363
 0.126  0.828 -0.203 -0.370 -0.374 -0.362 -0.362
 0.128  0.830 -0.200 -0.369 -0.373 -0.361 -0.361
 0.130  0.833 -0.198 -0.367 -0.372 -0.361 -0.361
 0.132  0.836 -0.195 -0.366 -0.370 -0.360 -0.360
 0.134  0.838 -0.192 -0.365 -0.369 -0.359 -0.359
 0.136  0.841 -0.189 -0.363 -0.368 -0.358 -0.358
 0.138  0.844 -0.187 -0.362 -0.367 -0.358 -0.358
 0.140  0.847 -0.185 -0.361 -0.366 -0.357 -0.357
 0.142  0.849 -0.182 -0.360 -0.365 -0.356 -0.356
 0.144  0.852 -0.180 -0.359 -0.364 -0.356 -0.356
 0.146  0.855 -0.177 -0.358 -0.363 -0.355 -0.355
 0.148  0.857 -0.175 -0.357 -0.362 -0.354 -0.354
 0.150  0.860 -0.173 -0.356 -0.361 -0.353 -0.353
 0.152  0.862 -0.170 -0.355 -0.360 -0.352 -0.352
 0.154  0.865 -0.168 -0.354 -0.359 -0.352 -0.352
 0.156  0.868 -0.166 -0.353 -0.358 -0.351 -0.351
 0.158  0.870 -0.164 -0.352 -0.357 -0.351 -0.351
 0.160  0.873 -0.161 -0.351 -0.356 -0.350 -0.350
 0.162  0.875 -0.159 -0.350 -0.355 -0.349 -0.349
 0.164  0.878 -0.157 -0.349 -0.354 -0.348 -0.348
 0.166  0.880 -0.155 -0.348 -0.353 -0.348 -0.348
 0.168  0.883 -0.152 -0.346 -0.352 -0.347 -0.347
 0.170  0.885 -0.150 -0.345 -0.351 -0.346 -0.346
 0.172  0.888 -0.147 -0.344 -0.350 -0.346 -0.346
 0.174  0.890 -0.145 -0.343 -0.350 -0.345 -0.345
 0.176  0.893 -0.143 -0.342 -0.349 -0.344 -0.344
 0.178  0.895 -0.140 -0.340 -0.348 -0.344 -0.344
 0.180  0.898 -0.138 -0.339 -0.347 -0.343 -0.343
 0.182  0.900 -0.135 -0.337 -0.346 -0.342 -0.342
 0.184  0.903 -0.133 -0.336 -0.345 -0.342 -0.342
 0.186  0.906 -0.131 -0.335 -0.344 -0.341 -0.341
 0.188  0.908 -0.128 -0.333 -0.343 -0.340 -0.340
 0.190  0.910 -0.126 -0.332 -0.342 -0.339 -0.339
 0.192  0.912 -0.123 -0.330 -0.341 -0.339 -0.339
 0.194  0.915 -0.120 -0.329 -0.340 -0.338 -0.338
 0.196  0.917 -0.118 -0.327 -0.340 -0.338 -0.338
 0.198  0.920 -0.116 -0.326 -0.338 -0.337 -0.337
 0.200  0.922 -0.113 -0.324 -0.338 -0.336 -0.336
 0.202  0.925 -0.111 -0.323 -0.337 -0.335 -0.335
 0.204  0.927 -0.108 -0.321 -0.336 -0.335 -0.335
 0.206  0.929 -0.105 -0.319 -0.335 -0.334 -0.334
 0.208  0.932 -0.103 -0.318 -0.334 -0.334 -0.334
 0.210  0.934 -0.100 -0.316 -0.333 -0.333 -0.333
 0.212  0.937 -0.098 -0.314 -0.333 -0.332 -0.332
 0.214  0.939 -0.095 -0.312 -0.332 -0.331 -0.331
 0.216  0.941 -0.092 -0.310 -0.331 -0.331 -0.331
 0.218  0.943 -0.089 -0.308 -0.330 -0.330 -0.330
 0.220  0.946 -0.087 -0.306 -0.329 -0.330 -0.330
 0.222  0.948 -0.084 -0.304 -0.328 -0.329 -0.329
 0.224  0.950 -0.081 -0.303 -0.328 -0.328 -0.328
 0.226  0.952 -0.078 -0.301 -0.327 -0.328 -0.328
 0.228  0.955 -0.076 -0.299 -0.326 -0.327 -0.327
 0.230  0.957 -0.073 -0.298 -0.325 -0.326 -0.326
 0.232  0.959 -0.071 -0.296 -0.324 -0.326 -0.326
 0.234  0.962 -0.068 -0.294 -0.323 -0.325 -0.325
 0.236  0.964 -0.065 -0.292 -0.323 -0.324 -0.324
 0.238  0.965 -0.063 -0.290 -0.322 -0.324 -0.324
 0.240  0.968 -0.060 -0.289 -0.321 -0.323 -0.323
 0.242  0.970 -0.058 -0.287 -0.320 -0.322 -0.322
 0.244  0.972 -0.056 -0.285 -0.319 -0.322 -0.322
 0.246  0.975 -0.053 -0.284 -0.318 -0.321 -0.321
 0.248  0.976 -0.051 -0.282 -0.317 -0.320 -0.320
 0.250  0.979 -0.048 -0.280 -0.317 -0.320 -0.320
 0.252  0.981 -0.046 -0.278 -0.315 -0.319 -0.319
 0.254  0.982 -0.044 -0.277 -0.315 -0.318 -0.318
 0.256  0.985 -0.041 -0.276 -0.314 -0.317 -0.317
 0.258  0.987 -0.040 -0.274 -0.313 -0.317 -0.317
 0.260  0.989 -0.037 -0.272 -0.312 -0.316 -0.316
 0.262  0.991 -0.035 -0.271 -0.311 -0.315 -0.315
 0.264  0.993 -0.033 -0.270 -0.310 -0.314 -0.314
 0.266  0.995 -0.031 -0.268 -0.309 -0.314 -0.314
 0.268  0.997 -0.029 -0.266 -0.308 -0.313 -0.313
 0.270  0.999 -0.027 -0.265 -0.307 -0.312 -0.312
 0.272  1.001 -0.025 -0.264 -0.306 -0.311 -0.311
 0.274  1.003 -0.023 -0.262 -0.305 -0.311 -0.311
 0.276  1.005 -0.021 -0.261 -0.304 -0.310 -0.310
 0.278  1.007 -0.019 -0.259 -0.303 -0.309 -0.309
 0.280  1.008 -0.017 -0.259 -0.302 -0.308 -0.308
 0.282  1.010 -0.016 -0.257 -0.301 -0.307 -0.307
 0.284  1.012 -0.014 -0.256 -0.300 -0.306 -0.306
 0.286  1.014 -0.012 -0.254 -0.299 -0.306 -0.306
 0.288  1.016 -0.010 -0.253 -0.298 -0.305 -0.305
 0.290  1.018 -0.008 -0.252 -0.297 -0.304 -0.304
 0.292  1.020 -0.007 -0.251 -0.296 -0.303 -0.303
 0.294  1.022 -0.005 -0.249 -0.295 -0.302 -0.302
 0.296  1.023 -0.004 -0.248 -0.294 -0.301 -0.301
 0.298  1.025 -0.002 -0.247 -0.293 -0.300 -0.300
 0.300  1.027 -0.001 -0.245 -0.291 -0.300 -0.300
 0.302  1.029  0.001 -0.245 -0.290 -0.299 -0.299
 0.304  1.031  0.003 -0.243 -0.289 -0.298 -0.298
 0.306  1.032  0.005 -0.242 -0.288 -0.297 -0.297
 0.308  1.035  0.006 -0.241 -0.287 -0.296 -0.296
 0.310  1.036  0.008 -0.239 -0.286 -0.295 -0.295
 0.312  1.038  0.010 -0.238 -0.285 -0.294 -0.294
 0.314  1.040  0.011 -0.237 -0.284 -0.293 -0.293
 0.316  1.042  0.013 -0.235 -0.283 -0.292 -0.292
 0.318  1.044  0.015 -0.234 -0.282 -0.291 -0.291
 0.320  1.045  0.017 -0.232 -0.281 -0.290 -0.290
 0.322  1.047  0.019 -0.231 -0.280 -0.289 -0.289
 0.324  1.049  0.020 -0.230 -0.279 -0.288 -0.288
 0.326  1.051  0.022 -0.228 -0.278 -0.287 -0.287
 0.328  1.053  0.024 -0.227 -0.277 -0.287 -0.287
 0.330  1.054  0.026 -0.226 -0.276 -0.286 -0.286
 0.332  1.056  0.028 -0.224 -0.275 -0.285 -0.285
 0.334  1.058  0.029 -0.223 -0.275 -0.284 -0.284
 0.336  1.059  0.031 -0.221 -0.273 -0.283 -0.283
 0.338  1.062  0.034 -0.220 -0.273 -0.282 -0.282
 0.340  1.063  0.035 -0.219 -0.272 -0.282 -0.282
 0.342  1.065  0.037 -0.217 -0.271 -0.281 -0.281
 0.344  1.067  0.039 -0.216 -0.270 -0.280 -0.280
 0.346  1.068  0.041 -0.214 -0.269 -0.279 -0.279
 0.348  1.070  0.043 -0.213 -0.268 -0.278 -0.278
 0.350  1.072  0.045 -0.211 -0.267 -0.278 -0.278
 0.352  1.074  0.047 -0.210 -0.267 -0.277 -0.277
 0.354  1.076  0.049 -0.208 -0.266 -0.276 -0.276
 0.356  1.078  0.052 -0.206 -0.265 -0.275 -0.275
 0.358  1.079  0.053 -0.205 -0.264 -0.274 -0.274
 0.360  1.081  0.056 -0.204 -0.263 -0.274 -0.274
 0.362  1.083  0.058 -0.202 -0.263 -0.273 -0.273
 0.364  1.085  0.060 -0.200 -0.262 -0.272 -0.272
 0.366  1.087  0.062 -0.199 -0.261 -0.271 -0.271
 0.368  1.088  0.064 -0.197 -0.260 -0.271 -0.271
 0.370  1.090  0.067 -0.196 -0.259 -0.270 -0.270
 0.372  1.092  0.068 -0.194 -0.259 -0.269 -0.269
 0.374  1.093  0.071 -0.193 -0.258 -0.269 -0.269
 0.376  1.095  0.073 -0.191 -0.257 -0.268 -0.268
 0.378  1.096  0.074 -0.190 -0.256 -0.267 -0.267
 0.380  1.098  0.077 -0.188 -0.256 -0.266 -0.266
 0.382  1.100  0.079 -0.186 -0.255 -0.266 -0.266
 0.384  1.101  0.081 -0.185 -0.254 -0.265 -0.265
 0.386  1.102  0.083 -0.184 -0.253 -0.264 -0.264
 0.388  1.104  0.085 -0.182 -0.252 -0.264 -0.264
 0.390  1.106  0.086 -0.181 -0.252 -0.263 -0.263
 0.392  1.107  0.088 -0.180 -0.251 -0.262 -0.262
 0.394  1.109  0.090 -0.178 -0.250 -0.261 -0.261
 0.396  1.110  0.092 -0.177 -0.249 -0.261 -0.261
 0.398  1.111  0.094 -0.175 -0.248 -0.260 -0.260
 0.400  1.113  0.095 -0.174 -0.247 -0.259 -0.259
 0.402  1.114  0.097 -0.173 -0.246 -0.258 -0.258
 0.404  1.115  0.098 -0.171 -0.245 -0.257 -0.257
 0.406  1.117  0.100 -0.170 -0.244 -0.256 -0.256
 0.408  1.118  0.102 -0.168 -0.243 -0.256 -0.256
 0.410  1.119  0.104 -0.167 -0.243 -0.255 -0.255
 0.412  1.121  0.105 -0.166 -0.242 -0.254 -0.254
 0.414  1.122  0.107 -0.165 -0.240 -0.253 -0.253
 0.416  1.123  0.108 -0.163 -0.240 -0.252 -0.252
 0.418  1.125  0.110 -0.162 -0.239 -0.252 -0.252
 0.420  1.126  0.111 -0.161 -0.238 -0.251 -0.251
 0.422  1.127  0.112 -0.160 -0.237 -0.250 -0.250
 0.424  1.128  0.114 -0.158 -0.236 -0.249 -0.249
 0.426  1.129  0.115 -0.157 -0.235 -0.248 -0.248
 0.428  1.130  0.116 -0.156 -0.234 -0.247 -0.247
 0.430  1.131  0.118 -0.155 -0.233 -0.246 -0.246
 0.432  1.132  0.119 -0.154 -0.232 -0.245 -0.245
 0.434  1.134  0.120 -0.153 -0.231 -0.244 -0.244
 0.436  1.135  0.121 -0.151 -0.230 -0.243 -0.243
 0.438  1.136  0.122 -0.150 -0.229 -0.242 -0.242
 0.440  1.137  0.124 -0.149 -0.228 -0.241 -0.241
 0.442  1.138  0.125 -0.148 -0.226 -0.240 -0.240
 0.444  1.139  0.126 -0.147 -0.225 -0.239 -0.239
 0.446  1.140  0.127 -0.146 -0.224 -0.239 -0.239
 0.448  1.141  0.128 -0.145 -0.223 -0.238 -0.238
 0.450  1.143  0.129 -0.143 -0.223 -0.237 -0.237
 0.452  1.144  0.130 -0.142 -0.221 -0.235 -0.235
 0.454  1.145  0.131 -0.141 -0.220 -0.234 -0.234
 0.456  1.146  0.132 -0.141 -0.220 -0.234 -0.234
 0.458  1.147  0.134 -0.140 -0.219 -0.233 -0.233
 0.460  1.148  0.134 -0.139 -0.218 -0.232 -0.232
 0.462  1.149  0.135 -0.138 -0.217 -0.231 -0.231
 0.464  1.151  0.137 -0.137 -0.216 -0.230 -0.230
 0.466  1.152  0.137 -0.136 -0.215 -0.229 -0.229
 0.468  1.153  0.138 -0.135 -0.214 -0.228 -0.228
 0.470  1.155  0.140 -0.134 -0.214 -0.227 -0.227
 0.472  1.156  0.140 -0.133 -0.213 -0.226 -0.226
 0.474  1.157  0.141 -0.132 -0.212 -0.226 -0.226
 0.476  1.158  0.142 -0.131 -0.211 -0.225 -0.225
 0.478  1.159  0.143 -0.131 -0.211 -0.224 -0.224
 0.480  1.161  0.144 -0.130 -0.210 -0.223 -0.223
 0.482  1.162  0.145 -0.129 -0.209 -0.222 -0.222
 0.484  1.163  0.146 -0.128 -0.209 -0.221 -0.221
 0.486  1.164  0.147 -0.127 -0.208 -0.221 -0.221
 0.488  1.166  0.147 -0.127 -0.207 -0.220 -0.220
 0.490  1.167  0.149 -0.126 -0.207 -0.220 -0.220
 0.492  1.168  0.149 -0.125 -0.206 -0.219 -0.219
 0.494  1.170  0.150 -0.125 -0.206 -0.218 -0.218
 0.496  1.171  0.151 -0.124 -0.205 -0.217 -0.217
 0.498  1.173  0.152 -0.123 -0.205 -0.217 -0.217
 0.500  1.174  0.152 -0.123 -0.204 -0.216 -0.216
 0.502  1.175  0.153 -0.122 -0.204 -0.216 -0.216
 0.504  1.177  0.154 -0.121 -0.203 -0.215 -0.215
 0.506  1.178  0.155 -0.121 -0.203 -0.214 -0.214
 0.508  1.179  0.155 -0.120 -0.202 -0.214 -0.214
 0.510  1.181  0.156 -0.120 -0.202 -0.213 -0.213
 0.512  1.182  0.156 -0.119 -0.202 -0.213 -0.213
 0.514  1.183  0.158 -0.119 -0.201 -0.212 -0.212
 0.516  1.184  0.158 -0.118 -0.201 -0.212 -0.212
 0.518  1.185  0.159 -0.117 -0.200 -0.211 -0.211
 0.520  1.186  0.159 -0.117 -0.200 -0.211 -0.211
 0.522  1.187  0.160 -0.116 -0.200 -0.210 -0.210
 0.524  1.188  0.161 -0.116 -0.199 -0.210 -0.210
 0.526  1.189  0.161 -0.115 -0.199 -0.209 -0.209
 0.528  1.190  0.162 -0.114 -0.198 -0.209 -0.209
 0.530  1.191  0.162 -0.114 -0.198 -0.208 -0.208
 0.532  1.191  0.163 -0.114 -0.198 -0.208 -0.208
 0.534  1.192  0.163 -0.113 -0.197 -0.208 -0.208
 0.536  1.193  0.164 -0.113 -0.197 -0.207 -0.207
 0.538  1.194  0.164 -0.112 -0.196 -0.207 -0.207
 0.540  1.194  0.165 -0.111 -0.196 -0.206 -0.206
 0.542  1.195  0.165 -0.111 -0.195 -0.206 -0.206
 0.544  1.195  0.165 -0.110 -0.195 -0.205 -0.205
 0.546  1.196  0.166 -0.110 -0.194 -0.205 -0.205
 0.548  1.196  0.167 -0.109 -0.194 -0.204 -0.204
 0.550  1.196  0.167 -0.109 -0.193 -0.204 -0.204
 0.552  1.196  0.167 -0.108 -0.193 -0.204 -0.204
 0.554  1.197  0.167 -0.108 -0.193 -0.203 -0.203
 0.556  1.197  0.168 -0.108 -0.192 -0.203 -0.203
 0.558  1.198  0.168 -0.107 -0.192 -0.202 -0.202
 0.560  1.198  0.168 -0.107 -0.191 -0.202 -0.202
 0.562  1.198  0.168 -0.106 -0.191 -0.201 -0.201
 0.564  1.198  0.169 -0.106 -0.190 -0.201 -0.201
 0.566  1.198  0.169 -0.105 -0.189 -0.200 -0.200
 0.568  1.198  0.169 -0.105 -0.189 -0.200 -0.200
 0.570  1.198  0.170 -0.104 -0.188 -0.199 -0.199
 0.572  1.197  0.170 -0.104 -0.188 -0.199 -0.199
 0.574  1.197  0.170 -0.103 -0.187 -0.199 -0.199
 0.576  1.197  0.170 -0.103 -0.187 -0.198 -0.198
 0.578  1.196  0.170 -0.102 -0.186 -0.198 -0.198
 0.580  1.196  0.170 -0.102 -0.186 -0.197 -0.197
 0.582  1.196  0.170 -0.101 -0.185 -0.197 -0.197
 0.584  1.196  0.170 -0.101 -0.185 -0.196 -0.196
 0.586  1.196  0.171 -0.101 -0.184 -0.196 -0.196
 0.588  1.196  0.171 -0.100 -0.184 -0.195 -0.195
 0.590  1.195  0.171 -0.100 -0.183 -0.195 -0.195
 0.592  1.195  0.171 -0.099 -0.183 -0.194 -0.194
 0.594  1.195  0.171 -0.098 -0.182 -0.194 -0.194
 0.596  1.195  0.171 -0.098 -0.182 -0.193 -0.193
 0.598  1.195  0.171 -0.097 -0.181 -0.193 -0.193
 0.600  1.195  0.171 -0.097 -0.180 -0.192 -0.192
 0.602  1.195  0.171 -0.096 -0.180 -0.192 -0.192
 0.604  1.195  0.171 -0.096 -0.179 -0.191 -0.191
 0.606  1.195  0.171 -0.095 -0.179 -0.191 -0.191
 0.608  1.194  0.171 -0.095 -0.178 -0.190 -0.190
 0.610  1.194  0.172 -0.095 -0.178 -0.190 -0.190
 0.612  1.194  0.172 -0.094 -0.178 -0.189 -0.189
 0.614  1.194  0.172 -0.093 -0.177 -0.189 -0.189
 0.616  1.194  0.172 -0.093 -0.177 -0.188 -0.188
 0.618  1.194  0.172 -0.092 -0.176 -0.187 -0.187
 0.620  1.194  0.173 -0.091 -0.176 -0.187 -0.187
 0.622  1.194  0.173 -0.091 -0.175 -0.186 -0.186
 0.624  1.194  0.173 -0.090 -0.175 -0.186 -0.186
 0.626  1.194  0.173 -0.090 -0.175 -0.185 -0.185
 0.628  1.194  0.173 -0.089 -0.174 -0.185 -0.185
 0.630  1.194  0.173 -0.088 -0.174 -0.184 -0.184
 0.632  1.194  0.173 -0.088 -0.174 -0.183 -0.183
 0.634  1.194  0.173 -0.088 -0.173 -0.183 -0.183
 0.636  1.195  0.173 -0.087 -0.173 -0.182 -0.182
 0.638  1.195  0.174 -0.086 -0.173 -0.181 -0.181
 0.640  1.195  0.174 -0.086 -0.172 -0.181 -0.181
 0.642  1.195  0.174 -0.085 -0.172 -0.180 -0.180
 0.644  1.195  0.174 -0.084 -0.172 -0.179 -0.179
 0.646  1.195  0.174 -0.084 -0.171 -0.179 -0.179
 0.648  1.195  0.174 -0.083 -0.171 -0.178 -0.178
 0.650  1.195  0.174 -0.082 -0.171 -0.177 -0.177
 0.652  1.196  0.174 -0.082 -0.170 -0.177 -0.177
 0.654  1.196  0.175 -0.081 -0.170 -0.176 -0.176
 0.656  1.196  0.175 -0.080 -0.170 -0.175 -0.175
 0.658  1.196  0.175 -0.079 -0.169 -0.174 -0.174
 0.660  1.196  0.176 -0.078 -0.169 -0.173 -0.173
 0.662  1.196  0.176 -0.077 -0.169 -0.173 -0.173
 0.664  1.197  0.176 -0.076 -0.169 -0.172 -0.172
 0.666  1.197  0.177 -0.075 -0.168 -0.171 -0.171
 0.668  1.197  0.177 -0.075 -0.168 -0.170 -0.170
 0.670  1.198  0.178 -0.074 -0.168 -0.169 -0.169
 0.672  1.198  0.179 -0.073 -0.167 -0.169 -0.169
 0.674  1.198  0.179 -0.071 -0.167 -0.168 -0.168
 0.676  1.198  0.180 -0.070 -0.166 -0.167 -0.167
 0.678  1.198  0.181 -0.069 -0.166 -0.166 -0.166
 0.680  1.199  0.182 -0.068 -0.165 -0.165 -0.165
 0.682  1.199  0.183 -0.067 -0.165 -0.164 -0.164
 0.684  1.199  0.183 -0.065 -0.164 -0.163 -0.163
 0.686  1.199  0.185 -0.064 -0.164 -0.162 -0.162
 0.688  1.200  0.186 -0.062 -0.163 -0.161 -0.161
 0.690  1.200  0.187 -0.061 -0.163 -0.160 -0.160
 0.692  1.200  0.188 -0.059 -0.162 -0.159 -0.159
 0.694  1.200  0.189 -0.058 -0.161 -0.157 -0.157
 0.696  1.201  0.191 -0.056 -0.161 -0.156 -0.156
 0.698  1.201  0.192 -0.055 -0.160 -0.155 -0.155
 0.700  1.201  0.194 -0.053 -0.159 -0.154 -0.154
 0.702  1.202  0.195 -0.051 -0.159 -0.152 -0.152
 0.704  1.202  0.197 -0.050 -0.158 -0.151 -0.151
 0.706  1.203  0.198 -0.048 -0.158 -0.150 -0.150
 0.708  1.203  0.200 -0.046 -0.157 -0.148 -0.148
 0.710  1.203  0.201 -0.044 -0.156 -0.147 -0.147
 0.712  1.204  0.203 -0.042 -0.155 -0.146 -0.146
 0.714  1.204  0.205 -0.041 -0.154 -0.144 -0.144
 0.716  1.204  0.207 -0.038 -0.154 -0.143 -0.143
 0.718  1.205  0.209 -0.036 -0.153 -0.141 -0.141
 0.720  1.205  0.211 -0.035 -0.152 -0.139 -0.139
 0.722  1.205  0.213 -0.033 -0.151 -0.138 -0.138
 0.724  1.206  0.215 -0.030 -0.150 -0.136 -0.136
 0.726  1.207  0.217 -0.029 -0.149 -0.134 -0.134
 0.728  1.207  0.219 -0.027 -0.148 -0.133 -0.133
 0.730  1.208  0.221 -0.025 -0.147 -0.131 -0.131
 0.732  1.209  0.223 -0.023 -0.146 -0.130 -0.130
 0.734  1.209  0.225 -0.022 -0.145 -0.128 -0.128
 0.736  1.211  0.226 -0.020 -0.144 -0.126 -0.126
 0.738  1.211  0.228 -0.019 -0.143 -0.124 -0.124
 0.740  1.212  0.229 -0.017 -0.142 -0.123 -0.123
 0.742  1.213  0.231 -0.016 -0.141 -0.121 -0.121
 0.744  1.214  0.232 -0.015 -0.140 -0.120 -0.120
 0.746  1.216  0.233 -0.014 -0.138 -0.118 -0.118
 0.748  1.217  0.234 -0.013 -0.137 -0.117 -0.117
 0.750  1.218  0.236 -0.012 -0.136 -0.115 -0.115
 0.752  1.219  0.236 -0.011 -0.135 -0.114 -0.114
 0.754  1.220  0.237 -0.010 -0.133 -0.112 -0.112
 0.756  1.221  0.238 -0.010 -0.132 -0.111 -0.111
 0.758  1.222  0.239 -0.009 -0.130 -0.110 -0.110
 0.760  1.224  0.239 -0.009 -0.129 -0.109 -0.109
 0.762  1.225  0.239 -0.008 -0.127 -0.108 -0.108
 0.764  1.227  0.240 -0.008 -0.126 -0.108 -0.108
 0.766  1.229  0.240 -0.007 -0.124 -0.107 -0.107
 0.768  1.230  0.240 -0.007 -0.123 -0.106 -0.106
 0.770  1.232  0.240 -0.007 -0.121 -0.105 -0.105
 0.772  1.234  0.240 -0.007 -0.119 -0.105 -0.105
 0.774  1.236  0.240 -0.007 -0.118 -0.104 -0.104
 0.776  1.238  0.240 -0.007 -0.116 -0.104 -0.104
 0.778  1.240  0.240 -0.007 -0.114 -0.104 -0.104
 0.780  1.242  0.240 -0.007 -0.112 -0.103 -0.103
 0.782  1.244  0.239 -0.007 -0.110 -0.103 -0.103
 0.784  1.246  0.239 -0.008 -0.108 -0.103 -0.103
 0.786  1.248  0.238 -0.008 -0.106 -0.103 -0.103
 0.788  1.250  0.237 -0.009 -0.104 -0.103 -0.103
 0.790  1.252  0.236 -0.009 -0.102 -0.103 -0.103
 0.792  1.254  0.236 -0.010 -0.100 -0.103 -0.103
 0.794  1.256  0.234 -0.011 -0.098 -0.103 -0.103
 0.796  1.257  0.233 -0.012 -0.096 -0.103 -0.103
 0.798  1.259  0.232 -0.014 -0.094 -0.103 -0.103
 0.800  1.260  0.230 -0.015 -0.093 -0.104 -0.104
 0.802  1.261  0.228 -0.016 -0.091 -0.104 -0.104
 0.804  1.261  0.227 -0.018 -0.089 -0.105 -0.105
 0.806  1.262  0.224 -0.021 -0.088 -0.106 -0.106
 0.808  1.263  0.222 -0.023 -0.086 -0.106 -0.106
