# IsPeriodic    : True
# Period        : 0.580371 days
# Normalization : <g_mag>=0
# 
# Phase u_mag  g_mag  r_mag  i_mag  z_mag  y_mag
 0.000  0.451 -0.639 -0.614 -0.546 -0.536 -0.536
 0.002  0.451 -0.639 -0.614 -0.546 -0.536 -0.536
 0.004  0.451 -0.639 -0.614 -0.546 -0.536 -0.536
 0.006  0.452 -0.638 -0.613 -0.546 -0.535 -0.535
 0.008  0.453 -0.636 -0.612 -0.545 -0.534 -0.534
 0.010  0.455 -0.634 -0.611 -0.544 -0.533 -0.533
 0.012  0.456 -0.633 -0.611 -0.543 -0.532 -0.532
 0.014  0.458 -0.630 -0.610 -0.541 -0.531 -0.531
 0.016  0.460 -0.628 -0.609 -0.540 -0.529 -0.529
 0.018  0.462 -0.625 -0.607 -0.539 -0.528 -0.528
 0.020  0.465 -0.622 -0.606 -0.536 -0.527 -0.527
 0.022  0.467 -0.619 -0.604 -0.535 -0.525 -0.525
 0.024  0.470 -0.616 -0.602 -0.532 -0.523 -0.523
 0.026  0.473 -0.613 -0.601 -0.530 -0.521 -0.521
 0.028  0.476 -0.609 -0.598 -0.528 -0.520 -0.520
 0.030  0.479 -0.606 -0.595 -0.526 -0.518 -0.518
 0.032  0.483 -0.603 -0.593 -0.523 -0.517 -0.517
 0.034  0.487 -0.600 -0.590 -0.521 -0.515 -0.515
 0.036  0.490 -0.596 -0.588 -0.519 -0.514 -0.514
 0.038  0.494 -0.592 -0.584 -0.517 -0.512 -0.512
 0.040  0.498 -0.588 -0.581 -0.514 -0.510 -0.510
 0.042  0.502 -0.584 -0.577 -0.512 -0.509 -0.509
 0.044  0.507 -0.579 -0.574 -0.509 -0.507 -0.507
 0.046  0.512 -0.575 -0.570 -0.507 -0.504 -0.504
 0.048  0.516 -0.570 -0.566 -0.505 -0.503 -0.503
 0.050  0.521 -0.565 -0.562 -0.503 -0.501 -0.501
 0.052  0.527 -0.560 -0.558 -0.500 -0.499 -0.499
 0.054  0.532 -0.555 -0.554 -0.499 -0.497 -0.497
 0.056  0.538 -0.549 -0.549 -0.497 -0.494 -0.494
 0.058  0.543 -0.544 -0.545 -0.494 -0.492 -0.492
 0.060  0.549 -0.539 -0.541 -0.492 -0.490 -0.490
 0.062  0.555 -0.533 -0.536 -0.490 -0.488 -0.488
 0.064  0.562 -0.527 -0.532 -0.488 -0.486 -0.486
 0.066  0.567 -0.521 -0.528 -0.486 -0.483 -0.483
 0.068  0.575 -0.514 -0.523 -0.484 -0.480 -0.480
 0.070  0.581 -0.508 -0.519 -0.482 -0.478 -0.478
 0.072  0.588 -0.501 -0.515 -0.480 -0.476 -0.476
 0.074  0.595 -0.495 -0.511 -0.477 -0.473 -0.473
 0.076  0.602 -0.488 -0.507 -0.475 -0.471 -0.471
 0.078  0.609 -0.481 -0.504 -0.474 -0.468 -0.468
 0.080  0.616 -0.476 -0.500 -0.471 -0.466 -0.466
 0.082  0.623 -0.469 -0.496 -0.469 -0.464 -0.464
 0.084  0.630 -0.462 -0.492 -0.467 -0.461 -0.461
 0.086  0.636 -0.456 -0.489 -0.465 -0.458 -0.458
 0.088  0.643 -0.450 -0.485 -0.463 -0.456 -0.456
 0.090  0.649 -0.443 -0.481 -0.461 -0.454 -0.454
 0.092  0.656 -0.437 -0.478 -0.460 -0.451 -0.451
 0.094  0.662 -0.431 -0.475 -0.457 -0.449 -0.449
 0.096  0.668 -0.425 -0.471 -0.456 -0.447 -0.447
 0.098  0.675 -0.419 -0.468 -0.453 -0.445 -0.445
 0.100  0.680 -0.414 -0.465 -0.452 -0.443 -0.443
 0.102  0.686 -0.409 -0.461 -0.449 -0.440 -0.440
 0.104  0.691 -0.403 -0.458 -0.448 -0.438 -0.438
 0.106  0.697 -0.398 -0.455 -0.446 -0.436 -0.436
 0.108  0.702 -0.392 -0.452 -0.444 -0.434 -0.434
 0.110  0.708 -0.387 -0.449 -0.442 -0.432 -0.432
 0.112  0.714 -0.382 -0.446 -0.440 -0.430 -0.430
 0.114  0.718 -0.376 -0.443 -0.438 -0.429 -0.429
 0.116  0.724 -0.371 -0.441 -0.436 -0.427 -0.427
 0.118  0.729 -0.366 -0.438 -0.434 -0.425 -0.425
 0.120  0.734 -0.361 -0.435 -0.433 -0.423 -0.423
 0.122  0.739 -0.357 -0.432 -0.430 -0.421 -0.421
 0.124  0.743 -0.353 -0.430 -0.429 -0.419 -0.419
 0.126  0.748 -0.348 -0.427 -0.427 -0.417 -0.417
 0.128  0.753 -0.344 -0.425 -0.425 -0.416 -0.416
 0.130  0.757 -0.339 -0.422 -0.423 -0.414 -0.414
 0.132  0.761 -0.335 -0.419 -0.421 -0.413 -0.413
 0.134  0.766 -0.331 -0.417 -0.419 -0.411 -0.411
 0.136  0.769 -0.327 -0.415 -0.418 -0.410 -0.410
 0.138  0.774 -0.323 -0.412 -0.415 -0.408 -0.408
 0.140  0.778 -0.319 -0.410 -0.414 -0.407 -0.407
 0.142  0.782 -0.315 -0.407 -0.412 -0.405 -0.405
 0.144  0.785 -0.311 -0.405 -0.410 -0.404 -0.404
 0.146  0.789 -0.307 -0.403 -0.408 -0.403 -0.403
 0.148  0.793 -0.304 -0.400 -0.406 -0.401 -0.401
 0.150  0.796 -0.300 -0.397 -0.404 -0.399 -0.399
 0.152  0.800 -0.296 -0.395 -0.402 -0.398 -0.398
 0.154  0.804 -0.293 -0.392 -0.401 -0.397 -0.397
 0.156  0.808 -0.290 -0.390 -0.399 -0.395 -0.395
 0.158  0.811 -0.286 -0.387 -0.397 -0.394 -0.394
 0.160  0.815 -0.282 -0.385 -0.395 -0.393 -0.393
 0.162  0.818 -0.279 -0.383 -0.393 -0.392 -0.392
 0.164  0.822 -0.275 -0.381 -0.391 -0.390 -0.390
 0.166  0.825 -0.271 -0.378 -0.390 -0.389 -0.389
 0.168  0.829 -0.267 -0.376 -0.388 -0.388 -0.388
 0.170  0.833 -0.264 -0.374 -0.386 -0.386 -0.386
 0.172  0.836 -0.260 -0.371 -0.385 -0.385 -0.385
 0.174  0.840 -0.256 -0.369 -0.383 -0.384 -0.384
 0.176  0.843 -0.252 -0.366 -0.381 -0.382 -0.382
 0.178  0.847 -0.248 -0.364 -0.379 -0.381 -0.381
 0.180  0.850 -0.244 -0.362 -0.377 -0.380 -0.380
 0.182  0.854 -0.240 -0.360 -0.376 -0.378 -0.378
 0.184  0.858 -0.236 -0.357 -0.374 -0.377 -0.377
 0.186  0.862 -0.232 -0.355 -0.372 -0.375 -0.375
 0.188  0.865 -0.229 -0.353 -0.371 -0.374 -0.374
 0.190  0.868 -0.225 -0.350 -0.369 -0.373 -0.373
 0.192  0.872 -0.221 -0.348 -0.367 -0.372 -0.372
 0.194  0.876 -0.217 -0.346 -0.366 -0.370 -0.370
 0.196  0.879 -0.213 -0.344 -0.364 -0.369 -0.369
 0.198  0.883 -0.209 -0.342 -0.363 -0.368 -0.368
 0.200  0.887 -0.205 -0.340 -0.361 -0.366 -0.366
 0.202  0.890 -0.201 -0.337 -0.359 -0.365 -0.365
 0.204  0.893 -0.197 -0.335 -0.358 -0.364 -0.364
 0.206  0.897 -0.192 -0.332 -0.357 -0.362 -0.362
 0.208  0.901 -0.188 -0.330 -0.355 -0.361 -0.361
 0.210  0.904 -0.184 -0.328 -0.354 -0.360 -0.360
 0.212  0.907 -0.180 -0.326 -0.352 -0.359 -0.359
 0.214  0.911 -0.176 -0.324 -0.350 -0.357 -0.357
 0.216  0.915 -0.171 -0.322 -0.349 -0.355 -0.355
 0.218  0.918 -0.168 -0.319 -0.348 -0.354 -0.354
 0.220  0.921 -0.164 -0.317 -0.346 -0.353 -0.353
 0.222  0.925 -0.160 -0.315 -0.345 -0.352 -0.352
 0.224  0.929 -0.156 -0.313 -0.344 -0.350 -0.350
 0.226  0.931 -0.151 -0.310 -0.343 -0.349 -0.349
 0.228  0.935 -0.147 -0.308 -0.341 -0.348 -0.348
 0.230  0.939 -0.143 -0.306 -0.340 -0.346 -0.346
 0.232  0.942 -0.139 -0.304 -0.339 -0.345 -0.345
 0.234  0.945 -0.135 -0.301 -0.337 -0.344 -0.344
 0.236  0.948 -0.131 -0.299 -0.336 -0.343 -0.343
 0.238  0.952 -0.128 -0.297 -0.335 -0.341 -0.341
 0.240  0.955 -0.124 -0.294 -0.334 -0.340 -0.340
 0.242  0.958 -0.120 -0.292 -0.332 -0.339 -0.339
 0.244  0.961 -0.116 -0.290 -0.331 -0.338 -0.338
 0.246  0.964 -0.112 -0.288 -0.330 -0.336 -0.336
 0.248  0.968 -0.109 -0.285 -0.328 -0.334 -0.334
 0.250  0.971 -0.106 -0.283 -0.327 -0.333 -0.333
 0.252  0.973 -0.103 -0.280 -0.326 -0.332 -0.332
 0.254  0.977 -0.099 -0.278 -0.324 -0.331 -0.331
 0.256  0.980 -0.095 -0.276 -0.323 -0.329 -0.329
 0.258  0.983 -0.092 -0.274 -0.321 -0.328 -0.328
 0.260  0.985 -0.088 -0.272 -0.320 -0.327 -0.327
 0.262  0.988 -0.085 -0.269 -0.318 -0.326 -0.326
 0.264  0.992 -0.082 -0.267 -0.317 -0.324 -0.324
 0.266  0.995 -0.078 -0.264 -0.316 -0.323 -0.323
 0.268  0.998 -0.075 -0.262 -0.315 -0.322 -0.322
 0.270  1.000 -0.072 -0.260 -0.313 -0.321 -0.321
 0.272  1.003 -0.069 -0.257 -0.312 -0.319 -0.319
 0.274  1.006 -0.066 -0.255 -0.310 -0.318 -0.318
 0.276  1.009 -0.062 -0.253 -0.308 -0.317 -0.317
 0.278  1.011 -0.059 -0.251 -0.307 -0.315 -0.315
 0.280  1.014 -0.056 -0.249 -0.306 -0.314 -0.314
 0.282  1.017 -0.053 -0.246 -0.304 -0.313 -0.313
 0.284  1.019 -0.050 -0.244 -0.302 -0.312 -0.312
 0.286  1.022 -0.048 -0.242 -0.301 -0.310 -0.310
 0.288  1.025 -0.045 -0.240 -0.299 -0.309 -0.309
 0.290  1.027 -0.043 -0.238 -0.298 -0.308 -0.308
 0.292  1.030 -0.040 -0.236 -0.296 -0.307 -0.307
 0.294  1.033 -0.037 -0.233 -0.294 -0.306 -0.306
 0.296  1.035 -0.034 -0.231 -0.293 -0.304 -0.304
 0.298  1.038 -0.031 -0.229 -0.291 -0.303 -0.303
 0.300  1.040 -0.029 -0.227 -0.289 -0.302 -0.302
 0.302  1.043 -0.026 -0.225 -0.288 -0.301 -0.301
 0.304  1.045 -0.023 -0.223 -0.286 -0.299 -0.299
 0.306  1.048 -0.020 -0.220 -0.284 -0.298 -0.298
 0.308  1.051 -0.017 -0.218 -0.283 -0.297 -0.297
 0.310  1.053 -0.014 -0.216 -0.281 -0.296 -0.296
 0.312  1.055 -0.012 -0.215 -0.279 -0.294 -0.294
 0.314  1.058 -0.009 -0.212 -0.278 -0.293 -0.293
 0.316  1.061 -0.006 -0.210 -0.275 -0.292 -0.292
 0.318  1.064 -0.003 -0.208 -0.274 -0.290 -0.290
 0.320  1.065 -0.000 -0.206 -0.272 -0.289 -0.289
 0.322  1.068  0.003 -0.204 -0.270 -0.288 -0.288
 0.324  1.071  0.006 -0.202 -0.269 -0.287 -0.287
 0.326  1.073  0.008 -0.200 -0.267 -0.286 -0.286
 0.328  1.076  0.011 -0.199 -0.265 -0.284 -0.284
 0.330  1.078  0.014 -0.197 -0.264 -0.283 -0.283
 0.332  1.081  0.017 -0.194 -0.262 -0.282 -0.282
 0.334  1.083  0.020 -0.193 -0.261 -0.281 -0.281
 0.336  1.086  0.022 -0.191 -0.259 -0.280 -0.280
 0.338  1.089  0.025 -0.189 -0.257 -0.279 -0.279
 0.340  1.091  0.028 -0.187 -0.256 -0.277 -0.277
 0.342  1.093  0.030 -0.185 -0.254 -0.276 -0.276
 0.344  1.095  0.033 -0.184 -0.253 -0.274 -0.274
 0.346  1.098  0.036 -0.181 -0.251 -0.273 -0.273
 0.348  1.101  0.039 -0.180 -0.250 -0.272 -0.272
 0.350  1.103  0.042 -0.178 -0.248 -0.271 -0.271
 0.352  1.105  0.045 -0.176 -0.247 -0.270 -0.270
 0.354  1.108  0.048 -0.174 -0.245 -0.268 -0.268
 0.356  1.110  0.051 -0.172 -0.244 -0.267 -0.267
 0.358  1.113  0.054 -0.171 -0.242 -0.266 -0.266
 0.360  1.115  0.056 -0.168 -0.241 -0.265 -0.265
 0.362  1.118  0.059 -0.167 -0.239 -0.264 -0.264
 0.364  1.120  0.062 -0.165 -0.238 -0.263 -0.263
 0.366  1.122  0.065 -0.163 -0.237 -0.261 -0.261
 0.368  1.125  0.068 -0.161 -0.235 -0.260 -0.260
 0.370  1.127  0.071 -0.159 -0.234 -0.259 -0.259
 0.372  1.130  0.074 -0.158 -0.232 -0.258 -0.258
 0.374  1.132  0.077 -0.155 -0.231 -0.257 -0.257
 0.376  1.134  0.079 -0.153 -0.230 -0.255 -0.255
 0.378  1.136  0.082 -0.152 -0.228 -0.254 -0.254
 0.380  1.139  0.084 -0.150 -0.227 -0.252 -0.252
 0.382  1.141  0.087 -0.148 -0.226 -0.251 -0.251
 0.384  1.144  0.090 -0.146 -0.224 -0.250 -0.250
 0.386  1.146  0.093 -0.144 -0.223 -0.249 -0.249
 0.388  1.148  0.095 -0.142 -0.222 -0.248 -0.248
 0.390  1.150  0.098 -0.140 -0.220 -0.246 -0.246
 0.392  1.153  0.101 -0.138 -0.219 -0.245 -0.245
 0.394  1.155  0.104 -0.137 -0.218 -0.244 -0.244
 0.396  1.158  0.106 -0.134 -0.217 -0.243 -0.243
 0.398  1.159  0.109 -0.132 -0.215 -0.241 -0.241
 0.400  1.162  0.112 -0.131 -0.214 -0.240 -0.240
 0.402  1.164  0.115 -0.129 -0.213 -0.239 -0.239
 0.404  1.167  0.117 -0.126 -0.211 -0.238 -0.238
 0.406  1.169  0.120 -0.125 -0.210 -0.237 -0.237
 0.408  1.171  0.123 -0.123 -0.208 -0.235 -0.235
 0.410  1.173  0.125 -0.121 -0.207 -0.234 -0.234
 0.412  1.175  0.128 -0.119 -0.205 -0.232 -0.232
 0.414  1.177  0.131 -0.117 -0.204 -0.231 -0.231
 0.416  1.180  0.134 -0.115 -0.203 -0.230 -0.230
 0.418  1.182  0.136 -0.113 -0.201 -0.228 -0.228
 0.420  1.185  0.139 -0.111 -0.200 -0.227 -0.227
 0.422  1.186  0.142 -0.110 -0.199 -0.226 -0.226
 0.424  1.188  0.144 -0.108 -0.197 -0.225 -0.225
 0.426  1.191  0.146 -0.106 -0.195 -0.223 -0.223
 0.428  1.193  0.148 -0.104 -0.194 -0.222 -0.222
 0.430  1.195  0.151 -0.103 -0.192 -0.221 -0.221
 0.432  1.197  0.154 -0.100 -0.191 -0.220 -0.220
 0.434  1.199  0.156 -0.099 -0.190 -0.218 -0.218
 0.436  1.201  0.159 -0.097 -0.188 -0.217 -0.217
 0.438  1.203  0.161 -0.095 -0.187 -0.216 -0.216
 0.440  1.205  0.164 -0.093 -0.185 -0.214 -0.214
 0.442  1.208  0.166 -0.092 -0.183 -0.213 -0.213
 0.444  1.210  0.169 -0.090 -0.182 -0.211 -0.211
 0.446  1.212  0.171 -0.088 -0.181 -0.210 -0.210
 0.448  1.213  0.173 -0.087 -0.179 -0.209 -0.209
 0.450  1.215  0.176 -0.085 -0.178 -0.208 -0.208
 0.452  1.217  0.178 -0.083 -0.176 -0.206 -0.206
 0.454  1.219  0.180 -0.082 -0.175 -0.205 -0.205
 0.456  1.221  0.182 -0.080 -0.173 -0.204 -0.204
 0.458  1.223  0.184 -0.079 -0.172 -0.203 -0.203
 0.460  1.225  0.186 -0.077 -0.170 -0.202 -0.202
 0.462  1.226  0.188 -0.075 -0.169 -0.200 -0.200
 0.464  1.228  0.190 -0.074 -0.167 -0.199 -0.199
 0.466  1.230  0.192 -0.072 -0.166 -0.198 -0.198
 0.468  1.232  0.194 -0.071 -0.164 -0.197 -0.197
 0.470  1.234  0.196 -0.069 -0.163 -0.196 -0.196
 0.472  1.236  0.198 -0.068 -0.162 -0.195 -0.195
 0.474  1.238  0.200 -0.066 -0.161 -0.194 -0.194
 0.476  1.240  0.202 -0.064 -0.159 -0.192 -0.192
 0.478  1.240  0.203 -0.063 -0.158 -0.191 -0.191
 0.480  1.242  0.205 -0.061 -0.157 -0.190 -0.190
 0.482  1.244  0.207 -0.060 -0.155 -0.189 -0.189
 0.484  1.246  0.207 -0.059 -0.154 -0.187 -0.187
 0.486  1.247  0.209 -0.057 -0.153 -0.186 -0.186
 0.488  1.249  0.211 -0.056 -0.152 -0.185 -0.185
 0.490  1.251  0.212 -0.055 -0.150 -0.184 -0.184
 0.492  1.252  0.214 -0.053 -0.149 -0.183 -0.183
 0.494  1.253  0.215 -0.052 -0.148 -0.182 -0.182
 0.496  1.255  0.216 -0.051 -0.147 -0.181 -0.181
 0.498  1.256  0.218 -0.050 -0.146 -0.180 -0.180
 0.500  1.258  0.219 -0.048 -0.145 -0.179 -0.179
 0.502  1.259  0.220 -0.048 -0.144 -0.178 -0.178
 0.504  1.261  0.222 -0.046 -0.143 -0.177 -0.177
 0.506  1.262  0.223 -0.045 -0.142 -0.176 -0.176
 0.508  1.264  0.224 -0.044 -0.141 -0.175 -0.175
 0.510  1.265  0.225 -0.043 -0.140 -0.174 -0.174
 0.512  1.267  0.227 -0.042 -0.139 -0.173 -0.173
 0.514  1.267  0.228 -0.041 -0.138 -0.172 -0.172
 0.516  1.268  0.229 -0.040 -0.137 -0.171 -0.171
 0.518  1.269  0.230 -0.040 -0.136 -0.169 -0.169
 0.520  1.271  0.231 -0.038 -0.135 -0.169 -0.169
 0.522  1.272  0.232 -0.038 -0.134 -0.168 -0.168
 0.524  1.273  0.233 -0.037 -0.134 -0.167 -0.167
 0.526  1.274  0.234 -0.036 -0.133 -0.166 -0.166
 0.528  1.275  0.235 -0.035 -0.132 -0.165 -0.165
 0.530  1.276  0.236 -0.035 -0.131 -0.164 -0.164
 0.532  1.277  0.237 -0.034 -0.130 -0.163 -0.163
 0.534  1.278  0.238 -0.033 -0.130 -0.162 -0.162
 0.536  1.279  0.239 -0.033 -0.129 -0.162 -0.162
 0.538  1.280  0.240 -0.032 -0.128 -0.161 -0.161
 0.540  1.280  0.241 -0.032 -0.127 -0.160 -0.160
 0.542  1.281  0.242 -0.031 -0.126 -0.159 -0.159
 0.544  1.282  0.242 -0.031 -0.126 -0.159 -0.159
 0.546  1.283  0.243 -0.030 -0.125 -0.158 -0.158
 0.548  1.284  0.244 -0.030 -0.124 -0.157 -0.157
 0.550  1.284  0.245 -0.030 -0.124 -0.156 -0.156
 0.552  1.285  0.246 -0.029 -0.123 -0.156 -0.156
 0.554  1.286  0.246 -0.029 -0.122 -0.155 -0.155
 0.556  1.286  0.247 -0.028 -0.122 -0.154 -0.154
 0.558  1.287  0.248 -0.028 -0.121 -0.154 -0.154
 0.560  1.287  0.248 -0.028 -0.120 -0.153 -0.153
 0.562  1.288  0.249 -0.027 -0.120 -0.152 -0.152
 0.564  1.288  0.250 -0.027 -0.119 -0.152 -0.152
 0.566  1.289  0.250 -0.027 -0.118 -0.151 -0.151
 0.568  1.289  0.251 -0.027 -0.118 -0.151 -0.151
 0.570  1.290  0.251 -0.026 -0.117 -0.150 -0.150
 0.572  1.290  0.252 -0.026 -0.117 -0.149 -0.149
 0.574  1.290  0.252 -0.025 -0.116 -0.148 -0.148
 0.576  1.291  0.253 -0.025 -0.116 -0.148 -0.148
 0.578  1.291  0.253 -0.025 -0.115 -0.147 -0.147
 0.580  1.291  0.254 -0.025 -0.115 -0.147 -0.147
 0.582  1.291  0.254 -0.024 -0.114 -0.146 -0.146
 0.584  1.292  0.255 -0.024 -0.113 -0.146 -0.146
 0.586  1.292  0.255 -0.023 -0.113 -0.145 -0.145
 0.588  1.292  0.255 -0.023 -0.112 -0.145 -0.145
 0.590  1.292  0.256 -0.022 -0.112 -0.144 -0.144
 0.592  1.292  0.256 -0.022 -0.111 -0.144 -0.144
 0.594  1.293  0.257 -0.022 -0.111 -0.143 -0.143
 0.596  1.293  0.257 -0.022 -0.111 -0.143 -0.143
 0.598  1.293  0.257 -0.021 -0.110 -0.142 -0.142
 0.600  1.293  0.258 -0.021 -0.110 -0.141 -0.141
 0.602  1.293  0.258 -0.020 -0.109 -0.141 -0.141
 0.604  1.293  0.258 -0.020 -0.108 -0.140 -0.140
 0.606  1.293  0.258 -0.019 -0.108 -0.140 -0.140
 0.608  1.293  0.259 -0.019 -0.108 -0.139 -0.139
 0.610  1.293  0.259 -0.019 -0.107 -0.139 -0.139
 0.612  1.293  0.259 -0.018 -0.107 -0.138 -0.138
 0.614  1.293  0.259 -0.018 -0.106 -0.138 -0.138
 0.616  1.293  0.260 -0.017 -0.106 -0.137 -0.137
 0.618  1.293  0.260 -0.017 -0.106 -0.137 -0.137
 0.620  1.293  0.260 -0.017 -0.105 -0.136 -0.136
 0.622  1.293  0.260 -0.016 -0.104 -0.135 -0.135
 0.624  1.293  0.260 -0.015 -0.104 -0.135 -0.135
 0.626  1.292  0.260 -0.015 -0.103 -0.134 -0.134
 0.628  1.292  0.261 -0.014 -0.103 -0.134 -0.134
 0.630  1.292  0.261 -0.014 -0.102 -0.133 -0.133
 0.632  1.292  0.261 -0.014 -0.102 -0.133 -0.133
 0.634  1.292  0.261 -0.014 -0.102 -0.132 -0.132
 0.636  1.291  0.261 -0.014 -0.101 -0.131 -0.131
 0.638  1.291  0.261 -0.013 -0.101 -0.131 -0.131
 0.640  1.291  0.261 -0.013 -0.100 -0.130 -0.130
 0.642  1.291  0.261 -0.013 -0.099 -0.130 -0.130
 0.644  1.290  0.261 -0.013 -0.099 -0.129 -0.129
 0.646  1.290  0.261 -0.012 -0.098 -0.129 -0.129
 0.648  1.290  0.261 -0.012 -0.098 -0.127 -0.127
 0.650  1.289  0.261 -0.012 -0.097 -0.127 -0.127
 0.652  1.289  0.261 -0.012 -0.097 -0.126 -0.126
 0.654  1.289  0.261 -0.012 -0.097 -0.126 -0.126
 0.656  1.289  0.261 -0.012 -0.096 -0.125 -0.125
 0.658  1.288  0.260 -0.013 -0.096 -0.125 -0.125
 0.660  1.288  0.260 -0.013 -0.095 -0.124 -0.124
 0.662  1.288  0.260 -0.013 -0.094 -0.124 -0.124
 0.664  1.287  0.260 -0.013 -0.094 -0.124 -0.124
 0.666  1.287  0.259 -0.014 -0.093 -0.123 -0.123
 0.668  1.287  0.259 -0.014 -0.093 -0.123 -0.123
 0.670  1.286  0.259 -0.014 -0.092 -0.122 -0.122
 0.672  1.286  0.258 -0.014 -0.092 -0.122 -0.122
 0.674  1.286  0.258 -0.015 -0.090 -0.122 -0.122
 0.676  1.285  0.257 -0.015 -0.090 -0.121 -0.121
 0.678  1.285  0.257 -0.016 -0.089 -0.121 -0.121
 0.680  1.285  0.256 -0.017 -0.088 -0.121 -0.121
 0.682  1.285  0.256 -0.017 -0.087 -0.121 -0.121
 0.684  1.284  0.255 -0.017 -0.087 -0.120 -0.120
 0.686  1.284  0.255 -0.018 -0.085 -0.120 -0.120
 0.688  1.284  0.254 -0.019 -0.084 -0.120 -0.120
 0.690  1.283  0.253 -0.019 -0.083 -0.120 -0.120
 0.692  1.283  0.253 -0.020 -0.082 -0.120 -0.120
 0.694  1.283  0.252 -0.021 -0.081 -0.119 -0.119
 0.696  1.282  0.251 -0.022 -0.079 -0.119 -0.119
 0.698  1.282  0.250 -0.022 -0.078 -0.119 -0.119
 0.700  1.282  0.249 -0.023 -0.077 -0.119 -0.119
 0.702  1.281  0.249 -0.024 -0.075 -0.119 -0.119
 0.704  1.281  0.248 -0.025 -0.074 -0.119 -0.119
 0.706  1.281  0.247 -0.025 -0.072 -0.119 -0.119
 0.708  1.281  0.246 -0.025 -0.071 -0.119 -0.119
 0.710  1.280  0.245 -0.025 -0.069 -0.119 -0.119
 0.712  1.280  0.244 -0.025 -0.067 -0.119 -0.119
 0.714  1.280  0.243 -0.025 -0.065 -0.119 -0.119
 0.716  1.280  0.242 -0.025 -0.064 -0.119 -0.119
 0.718  1.280  0.241 -0.025 -0.062 -0.119 -0.119
 0.720  1.280  0.240 -0.025 -0.060 -0.119 -0.119
 0.722  1.280  0.239 -0.024 -0.058 -0.119 -0.119
 0.724  1.279  0.238 -0.024 -0.056 -0.119 -0.119
 0.726  1.279  0.237 -0.023 -0.054 -0.119 -0.119
 0.728  1.279  0.237 -0.022 -0.051 -0.119 -0.119
 0.730  1.279  0.236 -0.021 -0.049 -0.119 -0.119
 0.732  1.278  0.236 -0.020 -0.047 -0.118 -0.118
 0.734  1.278  0.236 -0.019 -0.045 -0.118 -0.118
 0.736  1.278  0.236 -0.018 -0.042 -0.117 -0.117
 0.738  1.278  0.236 -0.017 -0.040 -0.117 -0.117
 0.740  1.277  0.236 -0.015 -0.038 -0.116 -0.116
 0.742  1.277  0.237 -0.014 -0.036 -0.115 -0.115
 0.744  1.277  0.238 -0.012 -0.033 -0.115 -0.115
 0.746  1.277  0.238 -0.010 -0.031 -0.114 -0.114
 0.748  1.277  0.239 -0.009 -0.028 -0.113 -0.113
 0.750  1.277  0.240 -0.006 -0.026 -0.112 -0.112
 0.752  1.276  0.241 -0.004 -0.024 -0.111 -0.111
 0.754  1.276  0.243 -0.002 -0.022 -0.110 -0.110
 0.756  1.276  0.244  0.001 -0.020 -0.109 -0.109
 0.758  1.276  0.245  0.003 -0.018 -0.107 -0.107
 0.760  1.276  0.247  0.006 -0.016 -0.106 -0.106
 0.762  1.276  0.249  0.009 -0.014 -0.104 -0.104
 0.764  1.276  0.250  0.011 -0.013 -0.103 -0.103
 0.766  1.276  0.252  0.014 -0.011 -0.101 -0.101
 0.768  1.276  0.255  0.017 -0.009 -0.100 -0.100
 0.770  1.276  0.257  0.020 -0.008 -0.098 -0.098
 0.772  1.276  0.260  0.022 -0.006 -0.096 -0.096
 0.774  1.276  0.262  0.025 -0.004 -0.094 -0.094
 0.776  1.275  0.265  0.028 -0.003 -0.092 -0.092
 0.778  1.275  0.268  0.031 -0.002 -0.090 -0.090
 0.780  1.275  0.270  0.034 -0.000 -0.088 -0.088
 0.782  1.275  0.274  0.037  0.001 -0.086 -0.086
 0.784  1.275  0.277  0.040  0.002 -0.084 -0.084
 0.786  1.275  0.280  0.043  0.003 -0.081 -0.081
 0.788  1.275  0.284  0.046  0.004 -0.079 -0.079
 0.790  1.276  0.287  0.048  0.005 -0.077 -0.077
 0.792  1.276  0.290  0.051  0.006 -0.075 -0.075
 0.794  1.277  0.294  0.054  0.008 -0.072 -0.072
 0.796  1.277  0.297  0.056  0.009 -0.070 -0.070
 0.798  1.278  0.300  0.059  0.010 -0.068 -0.068
 0.800  1.279  0.303  0.061  0.011 -0.066 -0.066
 0.802  1.280  0.307  0.064  0.011 -0.063 -0.063
 0.804  1.280  0.309  0.067  0.013 -0.061 -0.061
 0.806  1.281  0.312  0.069  0.013 -0.059 -0.059
 0.808  1.283  0.315  0.072  0.014 -0.057 -0.057
