# IsPeriodic    : True
# Period        : 0.469392 days
# Normalization : <g_mag>=0
# 
# Phase u_mag  g_mag  r_mag  i_mag  z_mag  y_mag
 0.000  0.197 -0.970 -0.822 -0.646 -0.541 -0.541
 0.002  0.197 -0.970 -0.822 -0.646 -0.541 -0.541
 0.004  0.198 -0.970 -0.822 -0.646 -0.541 -0.541
 0.006  0.200 -0.968 -0.821 -0.644 -0.541 -0.541
 0.008  0.201 -0.967 -0.820 -0.642 -0.541 -0.541
 0.010  0.204 -0.964 -0.817 -0.640 -0.540 -0.540
 0.012  0.207 -0.961 -0.815 -0.636 -0.539 -0.539
 0.014  0.210 -0.958 -0.813 -0.633 -0.538 -0.538
 0.016  0.215 -0.955 -0.811 -0.630 -0.537 -0.537
 0.018  0.218 -0.952 -0.808 -0.625 -0.536 -0.536
 0.020  0.222 -0.947 -0.805 -0.621 -0.534 -0.534
 0.022  0.227 -0.943 -0.803 -0.617 -0.533 -0.533
 0.024  0.233 -0.939 -0.799 -0.613 -0.532 -0.532
 0.026  0.237 -0.934 -0.796 -0.608 -0.529 -0.529
 0.028  0.241 -0.930 -0.792 -0.604 -0.528 -0.528
 0.030  0.247 -0.925 -0.789 -0.600 -0.526 -0.526
 0.032  0.253 -0.919 -0.784 -0.597 -0.524 -0.524
 0.034  0.259 -0.914 -0.781 -0.592 -0.521 -0.521
 0.036  0.265 -0.908 -0.776 -0.589 -0.519 -0.519
 0.038  0.273 -0.902 -0.772 -0.585 -0.517 -0.517
 0.040  0.279 -0.896 -0.768 -0.582 -0.514 -0.514
 0.042  0.286 -0.888 -0.763 -0.577 -0.511 -0.511
 0.044  0.294 -0.883 -0.758 -0.573 -0.509 -0.509
 0.046  0.301 -0.875 -0.754 -0.570 -0.505 -0.505
 0.048  0.308 -0.868 -0.748 -0.566 -0.502 -0.502
 0.050  0.317 -0.860 -0.742 -0.561 -0.498 -0.498
 0.052  0.326 -0.852 -0.737 -0.557 -0.495 -0.495
 0.054  0.335 -0.843 -0.731 -0.553 -0.491 -0.491
 0.056  0.344 -0.834 -0.724 -0.549 -0.488 -0.488
 0.058  0.353 -0.825 -0.718 -0.544 -0.484 -0.484
 0.060  0.363 -0.816 -0.711 -0.540 -0.480 -0.480
 0.062  0.372 -0.807 -0.705 -0.535 -0.475 -0.475
 0.064  0.383 -0.797 -0.698 -0.531 -0.471 -0.471
 0.066  0.393 -0.787 -0.691 -0.527 -0.466 -0.466
 0.068  0.405 -0.776 -0.684 -0.523 -0.462 -0.462
 0.070  0.415 -0.766 -0.676 -0.518 -0.458 -0.458
 0.072  0.427 -0.756 -0.669 -0.513 -0.453 -0.453
 0.074  0.438 -0.745 -0.661 -0.509 -0.448 -0.448
 0.076  0.450 -0.735 -0.654 -0.504 -0.444 -0.444
 0.078  0.460 -0.723 -0.646 -0.500 -0.439 -0.439
 0.080  0.472 -0.713 -0.640 -0.496 -0.434 -0.434
 0.082  0.484 -0.703 -0.632 -0.491 -0.430 -0.430
 0.084  0.494 -0.692 -0.624 -0.486 -0.425 -0.425
 0.086  0.505 -0.682 -0.617 -0.482 -0.421 -0.421
 0.088  0.515 -0.672 -0.610 -0.478 -0.417 -0.417
 0.090  0.525 -0.661 -0.603 -0.474 -0.412 -0.412
 0.092  0.536 -0.651 -0.596 -0.469 -0.408 -0.408
 0.094  0.546 -0.642 -0.589 -0.464 -0.404 -0.404
 0.096  0.555 -0.632 -0.583 -0.460 -0.401 -0.401
 0.098  0.566 -0.623 -0.576 -0.456 -0.397 -0.397
 0.100  0.575 -0.614 -0.569 -0.452 -0.393 -0.393
 0.102  0.583 -0.605 -0.563 -0.448 -0.390 -0.390
 0.104  0.592 -0.597 -0.556 -0.443 -0.386 -0.386
 0.106  0.601 -0.588 -0.551 -0.439 -0.383 -0.383
 0.108  0.610 -0.579 -0.545 -0.436 -0.379 -0.379
 0.110  0.618 -0.571 -0.538 -0.432 -0.376 -0.376
 0.112  0.627 -0.563 -0.532 -0.427 -0.373 -0.373
 0.114  0.634 -0.554 -0.527 -0.424 -0.370 -0.370
 0.116  0.643 -0.546 -0.521 -0.420 -0.367 -0.367
 0.118  0.650 -0.539 -0.515 -0.416 -0.363 -0.363
 0.120  0.658 -0.530 -0.510 -0.412 -0.360 -0.360
 0.122  0.665 -0.523 -0.504 -0.409 -0.358 -0.358
 0.124  0.673 -0.515 -0.498 -0.406 -0.355 -0.355
 0.126  0.680 -0.508 -0.494 -0.401 -0.352 -0.352
 0.128  0.686 -0.501 -0.488 -0.398 -0.350 -0.350
 0.130  0.693 -0.495 -0.483 -0.395 -0.347 -0.347
 0.132  0.699 -0.487 -0.479 -0.391 -0.345 -0.345
 0.134  0.705 -0.482 -0.474 -0.388 -0.343 -0.343
 0.136  0.711 -0.476 -0.469 -0.384 -0.341 -0.341
 0.138  0.717 -0.468 -0.464 -0.381 -0.339 -0.339
 0.140  0.723 -0.462 -0.459 -0.378 -0.337 -0.337
 0.142  0.729 -0.456 -0.456 -0.374 -0.335 -0.335
 0.144  0.734 -0.451 -0.451 -0.371 -0.333 -0.333
 0.146  0.740 -0.445 -0.447 -0.368 -0.331 -0.331
 0.148  0.746 -0.439 -0.442 -0.365 -0.329 -0.329
 0.150  0.750 -0.433 -0.438 -0.362 -0.327 -0.327
 0.152  0.756 -0.427 -0.434 -0.358 -0.325 -0.325
 0.154  0.760 -0.421 -0.430 -0.356 -0.324 -0.324
 0.156  0.766 -0.415 -0.425 -0.352 -0.321 -0.321
 0.158  0.771 -0.409 -0.422 -0.350 -0.320 -0.320
 0.160  0.777 -0.403 -0.417 -0.347 -0.317 -0.317
 0.162  0.781 -0.398 -0.413 -0.344 -0.316 -0.316
 0.164  0.787 -0.392 -0.409 -0.341 -0.314 -0.314
 0.166  0.792 -0.386 -0.405 -0.338 -0.312 -0.312
 0.168  0.798 -0.380 -0.401 -0.336 -0.310 -0.310
 0.170  0.804 -0.374 -0.397 -0.333 -0.308 -0.308
 0.172  0.808 -0.368 -0.392 -0.330 -0.306 -0.306
 0.174  0.814 -0.362 -0.389 -0.327 -0.304 -0.304
 0.176  0.820 -0.356 -0.384 -0.325 -0.302 -0.302
 0.178  0.824 -0.350 -0.381 -0.321 -0.300 -0.300
 0.180  0.830 -0.344 -0.376 -0.319 -0.298 -0.298
 0.182  0.836 -0.339 -0.372 -0.316 -0.296 -0.296
 0.184  0.841 -0.333 -0.368 -0.314 -0.293 -0.293
 0.186  0.847 -0.327 -0.364 -0.311 -0.292 -0.292
 0.188  0.853 -0.321 -0.360 -0.308 -0.289 -0.289
 0.190  0.859 -0.315 -0.356 -0.305 -0.288 -0.288
 0.192  0.863 -0.309 -0.352 -0.303 -0.285 -0.285
 0.194  0.869 -0.303 -0.348 -0.300 -0.283 -0.283
 0.196  0.875 -0.297 -0.344 -0.298 -0.281 -0.281
 0.198  0.881 -0.291 -0.341 -0.295 -0.279 -0.279
 0.200  0.885 -0.285 -0.336 -0.293 -0.277 -0.277
 0.202  0.891 -0.280 -0.333 -0.290 -0.275 -0.275
 0.204  0.897 -0.274 -0.328 -0.288 -0.272 -0.272
 0.206  0.903 -0.268 -0.325 -0.285 -0.271 -0.271
 0.208  0.909 -0.260 -0.321 -0.283 -0.268 -0.268
 0.210  0.914 -0.254 -0.317 -0.280 -0.266 -0.266
 0.212  0.919 -0.249 -0.314 -0.278 -0.264 -0.264
 0.214  0.925 -0.243 -0.309 -0.276 -0.262 -0.262
 0.216  0.931 -0.237 -0.306 -0.273 -0.260 -0.260
 0.218  0.937 -0.231 -0.302 -0.271 -0.257 -0.257
 0.220  0.943 -0.225 -0.298 -0.268 -0.256 -0.256
 0.222  0.949 -0.219 -0.294 -0.267 -0.253 -0.253
 0.224  0.954 -0.213 -0.291 -0.264 -0.251 -0.251
 0.226  0.960 -0.207 -0.287 -0.261 -0.249 -0.249
 0.228  0.966 -0.201 -0.283 -0.260 -0.247 -0.247
 0.230  0.972 -0.196 -0.279 -0.257 -0.245 -0.245
 0.232  0.976 -0.190 -0.276 -0.255 -0.242 -0.242
 0.234  0.982 -0.184 -0.272 -0.253 -0.241 -0.241
 0.236  0.986 -0.179 -0.269 -0.251 -0.238 -0.238
 0.238  0.992 -0.173 -0.266 -0.248 -0.236 -0.236
 0.240  0.998 -0.167 -0.262 -0.246 -0.234 -0.234
 0.242  1.003 -0.163 -0.258 -0.244 -0.232 -0.232
 0.244  1.009 -0.157 -0.254 -0.241 -0.230 -0.230
 0.246  1.013 -0.153 -0.251 -0.240 -0.228 -0.228
 0.248  1.018 -0.147 -0.247 -0.237 -0.225 -0.225
 0.250  1.024 -0.142 -0.244 -0.235 -0.224 -0.224
 0.252  1.028 -0.137 -0.241 -0.233 -0.221 -0.221
 0.254  1.034 -0.132 -0.237 -0.230 -0.220 -0.220
 0.256  1.038 -0.128 -0.235 -0.229 -0.217 -0.217
 0.258  1.043 -0.122 -0.231 -0.226 -0.216 -0.216
 0.260  1.047 -0.117 -0.228 -0.224 -0.213 -0.213
 0.262  1.053 -0.113 -0.225 -0.222 -0.211 -0.211
 0.264  1.058 -0.109 -0.221 -0.219 -0.209 -0.209
 0.266  1.062 -0.104 -0.218 -0.217 -0.207 -0.207
 0.268  1.067 -0.100 -0.214 -0.215 -0.205 -0.205
 0.270  1.071 -0.095 -0.212 -0.213 -0.203 -0.203
 0.272  1.076 -0.091 -0.209 -0.211 -0.201 -0.201
 0.274  1.080 -0.086 -0.205 -0.208 -0.199 -0.199
 0.276  1.085 -0.082 -0.202 -0.207 -0.197 -0.197
 0.278  1.089 -0.078 -0.199 -0.204 -0.195 -0.195
 0.280  1.093 -0.075 -0.196 -0.202 -0.193 -0.193
 0.282  1.098 -0.070 -0.193 -0.200 -0.191 -0.191
 0.284  1.102 -0.066 -0.190 -0.197 -0.189 -0.189
 0.286  1.107 -0.063 -0.187 -0.196 -0.188 -0.188
 0.288  1.111 -0.058 -0.184 -0.193 -0.185 -0.185
 0.290  1.116 -0.054 -0.181 -0.192 -0.184 -0.184
 0.292  1.119 -0.051 -0.178 -0.189 -0.181 -0.181
 0.294  1.123 -0.047 -0.176 -0.187 -0.180 -0.180
 0.296  1.128 -0.042 -0.172 -0.185 -0.178 -0.178
 0.298  1.132 -0.039 -0.170 -0.182 -0.176 -0.176
 0.300  1.137 -0.035 -0.166 -0.181 -0.174 -0.174
 0.302  1.140 -0.032 -0.163 -0.178 -0.172 -0.172
 0.304  1.144 -0.027 -0.161 -0.176 -0.170 -0.170
 0.306  1.148 -0.023 -0.157 -0.174 -0.168 -0.168
 0.308  1.153 -0.020 -0.155 -0.172 -0.166 -0.166
 0.310  1.157 -0.016 -0.152 -0.170 -0.165 -0.165
 0.312  1.160 -0.011 -0.149 -0.168 -0.162 -0.162
 0.314  1.165 -0.008 -0.146 -0.165 -0.161 -0.161
 0.316  1.169 -0.004 -0.142 -0.163 -0.159 -0.159
 0.318  1.174  0.001 -0.140 -0.161 -0.157 -0.157
 0.320  1.178  0.005 -0.137 -0.159 -0.155 -0.155
 0.322  1.181  0.009 -0.135 -0.157 -0.154 -0.154
 0.324  1.186  0.012 -0.131 -0.154 -0.151 -0.151
 0.326  1.190  0.017 -0.128 -0.152 -0.150 -0.150
 0.328  1.195  0.021 -0.125 -0.150 -0.148 -0.148
 0.330  1.198  0.026 -0.122 -0.148 -0.146 -0.146
 0.332  1.202  0.030 -0.120 -0.146 -0.144 -0.144
 0.334  1.206  0.033 -0.116 -0.144 -0.142 -0.142
 0.336  1.211  0.037 -0.114 -0.141 -0.140 -0.140
 0.338  1.214  0.042 -0.111 -0.139 -0.138 -0.138
 0.340  1.218  0.046 -0.108 -0.137 -0.137 -0.137
 0.342  1.223  0.051 -0.105 -0.135 -0.135 -0.135
 0.344  1.227  0.055 -0.101 -0.133 -0.133 -0.133
 0.346  1.232  0.058 -0.099 -0.130 -0.131 -0.131
 0.348  1.235  0.063 -0.096 -0.128 -0.130 -0.130
 0.350  1.239  0.067 -0.093 -0.126 -0.128 -0.128
 0.352  1.244  0.071 -0.090 -0.123 -0.126 -0.126
 0.354  1.248  0.076 -0.088 -0.122 -0.124 -0.124
 0.356  1.251  0.080 -0.084 -0.119 -0.122 -0.122
 0.358  1.255  0.085 -0.081 -0.117 -0.121 -0.121
 0.360  1.260  0.089 -0.079 -0.115 -0.118 -0.118
 0.362  1.263  0.093 -0.075 -0.112 -0.117 -0.117
 0.364  1.267  0.098 -0.073 -0.110 -0.115 -0.115
 0.366  1.272  0.102 -0.070 -0.107 -0.114 -0.114
 0.368  1.276  0.107 -0.067 -0.106 -0.111 -0.111
 0.370  1.279  0.111 -0.064 -0.103 -0.110 -0.110
 0.372  1.284  0.114 -0.062 -0.101 -0.108 -0.108
 0.374  1.288  0.119 -0.058 -0.099 -0.106 -0.106
 0.376  1.291  0.123 -0.056 -0.096 -0.104 -0.104
 0.378  1.296  0.127 -0.052 -0.094 -0.103 -0.103
 0.380  1.300  0.132 -0.050 -0.092 -0.101 -0.101
 0.382  1.303  0.136 -0.047 -0.090 -0.099 -0.099
 0.384  1.308  0.141 -0.044 -0.088 -0.097 -0.097
 0.386  1.311  0.144 -0.041 -0.085 -0.095 -0.095
 0.388  1.315  0.148 -0.039 -0.083 -0.093 -0.093
 0.390  1.319  0.152 -0.035 -0.081 -0.091 -0.091
 0.392  1.322  0.157 -0.033 -0.079 -0.090 -0.090
 0.394  1.327  0.161 -0.030 -0.077 -0.087 -0.087
 0.396  1.330  0.164 -0.027 -0.074 -0.086 -0.086
 0.398  1.334  0.169 -0.024 -0.072 -0.084 -0.084
 0.400  1.337  0.173 -0.022 -0.070 -0.082 -0.082
 0.402  1.342  0.178 -0.018 -0.068 -0.080 -0.080
 0.404  1.345  0.182 -0.016 -0.066 -0.078 -0.078
 0.406  1.349  0.185 -0.013 -0.064 -0.076 -0.076
 0.408  1.352  0.189 -0.010 -0.062 -0.075 -0.075
 0.410  1.357  0.194 -0.007 -0.059 -0.072 -0.072
 0.412  1.360  0.197 -0.005 -0.058 -0.071 -0.071
 0.414  1.364  0.201 -0.001 -0.055 -0.068 -0.068
 0.416  1.367  0.206  0.001 -0.053 -0.067 -0.067
 0.418  1.371  0.210  0.003 -0.051 -0.065 -0.065
 0.420  1.374  0.213  0.007 -0.049 -0.063 -0.063
 0.422  1.379  0.217  0.009 -0.048 -0.061 -0.061
 0.424  1.382  0.222  0.013 -0.045 -0.059 -0.059
 0.426  1.385  0.225  0.015 -0.043 -0.057 -0.057
 0.428  1.389  0.229  0.018 -0.041 -0.055 -0.055
 0.430  1.392  0.232  0.021 -0.039 -0.053 -0.053
 0.432  1.395  0.237  0.023 -0.037 -0.051 -0.051
 0.434  1.400  0.241  0.026 -0.035 -0.049 -0.049
 0.436  1.403  0.244  0.029 -0.033 -0.047 -0.047
 0.438  1.406  0.248  0.032 -0.031 -0.045 -0.045
 0.440  1.410  0.251  0.034 -0.029 -0.043 -0.043
 0.442  1.413  0.256  0.037 -0.027 -0.041 -0.041
 0.444  1.416  0.259  0.040 -0.025 -0.039 -0.039
 0.446  1.419  0.262  0.042 -0.023 -0.038 -0.038
 0.448  1.422  0.266  0.045 -0.021 -0.035 -0.035
 0.450  1.426  0.269  0.047 -0.019 -0.034 -0.034
 0.452  1.429  0.272  0.050 -0.017 -0.032 -0.032
 0.454  1.432  0.276  0.052 -0.016 -0.030 -0.030
 0.456  1.435  0.279  0.055 -0.013 -0.028 -0.028
 0.458  1.438  0.282  0.057 -0.011 -0.027 -0.027
 0.460  1.441  0.285  0.060 -0.010 -0.024 -0.024
 0.462  1.444  0.288  0.063 -0.007 -0.023 -0.023
 0.464  1.447  0.293  0.065 -0.005 -0.021 -0.021
 0.466  1.450  0.295  0.067 -0.004 -0.020 -0.020
 0.468  1.453  0.298  0.070 -0.002 -0.017 -0.017
 0.470  1.456  0.301  0.072  0.000 -0.016 -0.016
 0.472  1.459  0.304  0.075  0.002 -0.014 -0.014
 0.474  1.462  0.307  0.078  0.004 -0.012 -0.012
 0.476  1.464  0.310  0.080  0.006 -0.010 -0.010
 0.478  1.467  0.312  0.082  0.008 -0.008 -0.008
 0.480  1.470  0.315  0.084  0.010 -0.007 -0.007
 0.482  1.473  0.318  0.087  0.011 -0.005 -0.005
 0.484  1.474  0.321  0.089  0.014 -0.004 -0.004
 0.486  1.477  0.324  0.091  0.016 -0.002 -0.002
 0.488  1.480  0.325  0.094  0.017  0.000  0.000
 0.490  1.483  0.328  0.096  0.020  0.002  0.002
 0.492  1.484  0.331  0.098  0.022  0.004  0.004
 0.494  1.487  0.332  0.100  0.023  0.005  0.005
 0.496  1.490  0.335  0.103  0.025  0.007  0.007
 0.498  1.492  0.338  0.105  0.027  0.008  0.008
 0.500  1.495  0.340  0.107  0.029  0.010  0.010
 0.502  1.496  0.343  0.109  0.031  0.012  0.012
 0.504  1.499  0.344  0.112  0.033  0.013  0.013
 0.506  1.501  0.346  0.114  0.035  0.015  0.015
 0.508  1.504  0.349  0.115  0.037  0.016  0.016
 0.510  1.505  0.350  0.117  0.038  0.018  0.018
 0.512  1.507  0.353  0.120  0.040  0.020  0.020
 0.514  1.510  0.354  0.122  0.042  0.021  0.021
 0.516  1.511  0.356  0.123  0.044  0.023  0.023
 0.518  1.513  0.357  0.125  0.046  0.024  0.024
 0.520  1.514  0.360  0.128  0.048  0.025  0.025
 0.522  1.516  0.362  0.129  0.049  0.027  0.027
 0.524  1.517  0.363  0.131  0.050  0.028  0.028
 0.526  1.519  0.365  0.132  0.052  0.030  0.030
 0.528  1.520  0.366  0.135  0.054  0.032  0.032
 0.530  1.522  0.368  0.136  0.055  0.032  0.032
 0.532  1.523  0.369  0.138  0.057  0.034  0.034
 0.534  1.525  0.371  0.139  0.058  0.036  0.036
 0.536  1.526  0.372  0.141  0.059  0.036  0.036
 0.538  1.528  0.374  0.143  0.060  0.038  0.038
 0.540  1.528  0.375  0.144  0.061  0.039  0.039
 0.542  1.529  0.377  0.146  0.063  0.040  0.040
 0.544  1.531  0.378  0.147  0.064  0.041  0.041
 0.546  1.531  0.378  0.148  0.065  0.043  0.043
 0.548  1.532  0.380  0.149  0.066  0.044  0.044
 0.550  1.532  0.381  0.151  0.067  0.045  0.045
 0.552  1.534  0.382  0.153  0.068  0.046  0.046
 0.554  1.534  0.382  0.154  0.069  0.048  0.048
 0.556  1.535  0.384  0.155  0.070  0.048  0.048
 0.558  1.535  0.384  0.156  0.070  0.049  0.049
 0.560  1.535  0.385  0.157  0.071  0.051  0.051
 0.562  1.537  0.387  0.159  0.071  0.052  0.052
 0.564  1.537  0.387  0.160  0.072  0.052  0.052
 0.566  1.537  0.388  0.161  0.073  0.053  0.053
 0.568  1.537  0.388  0.162  0.074  0.055  0.055
 0.570  1.537  0.388  0.162  0.074  0.055  0.055
 0.572  1.537  0.390  0.163  0.075  0.056  0.056
 0.574  1.537  0.390  0.164  0.075  0.057  0.057
 0.576  1.537  0.390  0.165  0.075  0.058  0.058
 0.578  1.537  0.391  0.165  0.075  0.059  0.059
 0.580  1.537  0.391  0.167  0.075  0.060  0.060
 0.582  1.537  0.391  0.168  0.075  0.061  0.061
 0.584  1.537  0.391  0.168  0.076  0.062  0.062
 0.586  1.537  0.393  0.169  0.076  0.063  0.063
 0.588  1.537  0.393  0.169  0.076  0.063  0.063
 0.590  1.537  0.393  0.170  0.076  0.064  0.064
 0.592  1.537  0.393  0.170  0.077  0.065  0.065
 0.594  1.537  0.393  0.171  0.077  0.066  0.066
 0.596  1.537  0.393  0.171  0.077  0.067  0.067
 0.598  1.537  0.393  0.172  0.078  0.067  0.067
 0.600  1.537  0.393  0.172  0.078  0.068  0.068
 0.602  1.537  0.393  0.172  0.078  0.068  0.068
 0.604  1.537  0.393  0.172  0.079  0.069  0.069
 0.606  1.537  0.393  0.173  0.079  0.070  0.070
 0.608  1.537  0.393  0.173  0.079  0.071  0.071
 0.610  1.537  0.393  0.173  0.079  0.071  0.071
 0.612  1.537  0.393  0.173  0.080  0.072  0.072
 0.614  1.535  0.393  0.173  0.080  0.072  0.072
 0.616  1.535  0.393  0.173  0.081  0.073  0.073
 0.618  1.535  0.393  0.173  0.081  0.074  0.074
 0.620  1.535  0.393  0.173  0.081  0.075  0.075
 0.622  1.535  0.391  0.173  0.081  0.075  0.075
 0.624  1.535  0.391  0.173  0.081  0.075  0.075
 0.626  1.535  0.391  0.173  0.081  0.076  0.076
 0.628  1.535  0.391  0.172  0.082  0.076  0.076
 0.630  1.535  0.390  0.172  0.082  0.077  0.077
 0.632  1.535  0.390  0.172  0.083  0.078  0.078
 0.634  1.535  0.390  0.171  0.083  0.078  0.078
 0.636  1.535  0.388  0.171  0.084  0.079  0.079
 0.638  1.535  0.388  0.171  0.084  0.079  0.079
 0.640  1.535  0.387  0.170  0.084  0.079  0.079
 0.642  1.535  0.387  0.170  0.085  0.079  0.079
 0.644  1.535  0.385  0.169  0.085  0.080  0.080
 0.646  1.535  0.385  0.169  0.086  0.080  0.080
 0.648  1.534  0.385  0.168  0.086  0.081  0.081
 0.650  1.534  0.384  0.168  0.086  0.081  0.081
 0.652  1.534  0.384  0.167  0.086  0.082  0.082
 0.654  1.534  0.382  0.167  0.087  0.083  0.083
 0.656  1.534  0.382  0.165  0.087  0.083  0.083
 0.658  1.534  0.381  0.165  0.088  0.083  0.083
 0.660  1.534  0.381  0.165  0.088  0.083  0.083
 0.662  1.534  0.380  0.164  0.088  0.084  0.084
 0.664  1.532  0.380  0.164  0.089  0.084  0.084
 0.666  1.532  0.378  0.163  0.089  0.085  0.085
 0.668  1.532  0.378  0.163  0.089  0.086  0.086
 0.670  1.532  0.377  0.162  0.090  0.086  0.086
 0.672  1.532  0.377  0.162  0.090  0.087  0.087
 0.674  1.531  0.375  0.162  0.090  0.087  0.087
 0.676  1.531  0.375  0.161  0.090  0.087  0.087
 0.678  1.531  0.374  0.161  0.090  0.088  0.088
 0.680  1.531  0.374  0.161  0.090  0.089  0.089
 0.682  1.529  0.372  0.160  0.090  0.089  0.089
 0.684  1.529  0.372  0.160  0.090  0.090  0.090
 0.686  1.529  0.371  0.160  0.090  0.091  0.091
 0.688  1.529  0.371  0.160  0.090  0.091  0.091
 0.690  1.528  0.369  0.159  0.090  0.091  0.091
 0.692  1.528  0.369  0.159  0.090  0.092  0.092
 0.694  1.528  0.368  0.159  0.089  0.093  0.093
 0.696  1.526  0.368  0.159  0.089  0.093  0.093
 0.698  1.526  0.366  0.159  0.089  0.094  0.094
 0.700  1.525  0.366  0.157  0.089  0.095  0.095
 0.702  1.525  0.365  0.157  0.089  0.095  0.095
 0.704  1.525  0.365  0.157  0.088  0.095  0.095
 0.706  1.523  0.363  0.157  0.088  0.096  0.096
 0.708  1.523  0.363  0.157  0.087  0.097  0.097
 0.710  1.522  0.362  0.157  0.087  0.098  0.098
 0.712  1.522  0.362  0.157  0.086  0.099  0.099
 0.714  1.520  0.360  0.156  0.086  0.099  0.099
 0.716  1.520  0.360  0.156  0.086  0.099  0.099
 0.718  1.520  0.359  0.156  0.085  0.100  0.100
 0.720  1.519  0.359  0.156  0.084  0.101  0.101
 0.722  1.519  0.357  0.156  0.084  0.102  0.102
 0.724  1.517  0.357  0.156  0.083  0.103  0.103
 0.726  1.517  0.357  0.156  0.083  0.103  0.103
 0.728  1.517  0.356  0.156  0.082  0.104  0.104
 0.730  1.517  0.356  0.156  0.082  0.105  0.105
 0.732  1.517  0.356  0.156  0.082  0.106  0.106
 0.734  1.517  0.356  0.156  0.082  0.107  0.107
 0.736  1.517  0.356  0.156  0.082  0.107  0.107
 0.738  1.517  0.356  0.156  0.082  0.108  0.108
 0.740  1.517  0.356  0.156  0.082  0.110  0.110
 0.742  1.517  0.356  0.155  0.083  0.111  0.111
 0.744  1.517  0.356  0.155  0.084  0.111  0.111
 0.746  1.517  0.357  0.155  0.084  0.112  0.112
 0.748  1.519  0.357  0.155  0.085  0.114  0.114
 0.750  1.519  0.357  0.155  0.086  0.115  0.115
 0.752  1.519  0.359  0.155  0.087  0.115  0.115
 0.754  1.520  0.359  0.155  0.088  0.117  0.117
 0.756  1.520  0.360  0.155  0.090  0.118  0.118
 0.758  1.522  0.360  0.155  0.091  0.119  0.119
 0.760  1.522  0.362  0.155  0.092  0.120  0.120
 0.762  1.523  0.362  0.155  0.094  0.122  0.122
 0.764  1.525  0.363  0.155  0.097  0.123  0.123
 0.766  1.526  0.365  0.155  0.098  0.124  0.124
 0.768  1.526  0.366  0.155  0.100  0.126  0.126
 0.770  1.528  0.366  0.155  0.102  0.127  0.127
 0.772  1.529  0.368  0.155  0.105  0.128  0.128
 0.774  1.531  0.369  0.155  0.107  0.129  0.129
 0.776  1.532  0.371  0.155  0.110  0.130  0.130
 0.778  1.534  0.372  0.155  0.113  0.132  0.132
 0.780  1.535  0.374  0.154  0.116  0.134  0.134
 0.782  1.537  0.377  0.154  0.119  0.134  0.134
 0.784  1.539  0.378  0.154  0.123  0.136  0.136
 0.786  1.541  0.380  0.155  0.126  0.138  0.138
 0.788  1.542  0.381  0.155  0.129  0.139  0.139
 0.790  1.545  0.384  0.155  0.133  0.141  0.141
 0.792  1.547  0.385  0.155  0.136  0.142  0.142
 0.794  1.548  0.388  0.156  0.140  0.145  0.145
 0.796  1.551  0.390  0.157  0.144  0.146  0.146
 0.798  1.554  0.393  0.157  0.147  0.148  0.148
 0.800  1.556  0.394  0.160  0.151  0.150  0.150
 0.802  1.559  0.397  0.161  0.155  0.153  0.153
 0.804  1.562  0.400  0.162  0.158  0.154  0.154
 0.806  1.565  0.402  0.164  0.161  0.157  0.157
 0.808  1.568  0.405  0.165  0.165  0.159  0.159
