# IsPeriodic    : True
# Period        : 0.556893 days
# Normalization : <g_mag>=0
# 
# Phase u_mag  g_mag  r_mag  i_mag  z_mag  y_mag
 0.000  0.576 -0.636 -0.595 -0.548 -0.503 -0.503
 0.002  0.576 -0.635 -0.595 -0.548 -0.503 -0.503
 0.004  0.576 -0.634 -0.595 -0.548 -0.503 -0.503
 0.006  0.577 -0.633 -0.595 -0.547 -0.502 -0.502
 0.008  0.577 -0.631 -0.594 -0.547 -0.502 -0.502
 0.010  0.579 -0.629 -0.593 -0.546 -0.501 -0.501
 0.012  0.581 -0.627 -0.593 -0.546 -0.500 -0.500
 0.014  0.583 -0.624 -0.592 -0.544 -0.499 -0.499
 0.016  0.584 -0.620 -0.590 -0.543 -0.498 -0.498
 0.018  0.587 -0.616 -0.589 -0.542 -0.497 -0.497
 0.020  0.590 -0.613 -0.588 -0.541 -0.495 -0.495
 0.022  0.592 -0.609 -0.586 -0.540 -0.493 -0.493
 0.024  0.595 -0.605 -0.584 -0.539 -0.492 -0.492
 0.026  0.597 -0.602 -0.583 -0.537 -0.490 -0.490
 0.028  0.600 -0.597 -0.581 -0.536 -0.487 -0.487
 0.030  0.603 -0.593 -0.578 -0.534 -0.485 -0.485
 0.032  0.606 -0.590 -0.576 -0.533 -0.483 -0.483
 0.034  0.609 -0.586 -0.573 -0.531 -0.480 -0.480
 0.036  0.612 -0.582 -0.570 -0.529 -0.477 -0.477
 0.038  0.615 -0.579 -0.567 -0.527 -0.475 -0.475
 0.040  0.618 -0.574 -0.564 -0.526 -0.472 -0.472
 0.042  0.621 -0.570 -0.561 -0.523 -0.469 -0.469
 0.044  0.624 -0.567 -0.557 -0.521 -0.467 -0.467
 0.046  0.628 -0.563 -0.554 -0.519 -0.464 -0.464
 0.048  0.631 -0.558 -0.549 -0.517 -0.461 -0.461
 0.050  0.635 -0.553 -0.546 -0.515 -0.459 -0.459
 0.052  0.639 -0.549 -0.542 -0.512 -0.457 -0.457
 0.054  0.642 -0.545 -0.538 -0.509 -0.454 -0.454
 0.056  0.647 -0.540 -0.533 -0.507 -0.452 -0.452
 0.058  0.651 -0.536 -0.529 -0.504 -0.450 -0.450
 0.060  0.654 -0.530 -0.525 -0.501 -0.448 -0.448
 0.062  0.659 -0.525 -0.521 -0.498 -0.446 -0.446
 0.064  0.663 -0.520 -0.517 -0.495 -0.444 -0.444
 0.066  0.668 -0.515 -0.513 -0.492 -0.443 -0.443
 0.068  0.672 -0.511 -0.508 -0.489 -0.441 -0.441
 0.070  0.677 -0.505 -0.504 -0.486 -0.439 -0.439
 0.072  0.682 -0.500 -0.501 -0.483 -0.437 -0.437
 0.074  0.687 -0.495 -0.497 -0.479 -0.435 -0.435
 0.076  0.691 -0.489 -0.493 -0.476 -0.434 -0.434
 0.078  0.697 -0.483 -0.490 -0.473 -0.432 -0.432
 0.080  0.702 -0.478 -0.486 -0.470 -0.431 -0.431
 0.082  0.707 -0.473 -0.482 -0.466 -0.429 -0.429
 0.084  0.711 -0.468 -0.479 -0.463 -0.428 -0.428
 0.086  0.717 -0.462 -0.475 -0.460 -0.426 -0.426
 0.088  0.722 -0.457 -0.472 -0.457 -0.425 -0.425
 0.090  0.727 -0.452 -0.468 -0.453 -0.424 -0.424
 0.092  0.731 -0.447 -0.465 -0.451 -0.423 -0.423
 0.094  0.736 -0.440 -0.462 -0.448 -0.422 -0.422
 0.096  0.741 -0.435 -0.458 -0.445 -0.421 -0.421
 0.098  0.746 -0.430 -0.455 -0.442 -0.420 -0.420
 0.100  0.750 -0.425 -0.452 -0.439 -0.419 -0.419
 0.102  0.755 -0.420 -0.449 -0.436 -0.418 -0.418
 0.104  0.760 -0.414 -0.446 -0.434 -0.417 -0.417
 0.106  0.764 -0.410 -0.443 -0.431 -0.417 -0.417
 0.108  0.768 -0.405 -0.440 -0.429 -0.416 -0.416
 0.110  0.773 -0.400 -0.437 -0.426 -0.415 -0.415
 0.112  0.777 -0.394 -0.434 -0.423 -0.414 -0.414
 0.114  0.781 -0.389 -0.431 -0.421 -0.414 -0.414
 0.116  0.786 -0.385 -0.429 -0.418 -0.413 -0.413
 0.118  0.790 -0.380 -0.426 -0.416 -0.412 -0.412
 0.120  0.793 -0.375 -0.424 -0.414 -0.411 -0.411
 0.122  0.798 -0.370 -0.421 -0.411 -0.410 -0.410
 0.124  0.801 -0.365 -0.419 -0.409 -0.410 -0.410
 0.126  0.805 -0.361 -0.416 -0.407 -0.409 -0.409
 0.128  0.809 -0.356 -0.414 -0.405 -0.408 -0.408
 0.130  0.812 -0.352 -0.411 -0.403 -0.407 -0.407
 0.132  0.817 -0.346 -0.408 -0.401 -0.406 -0.406
 0.134  0.820 -0.342 -0.406 -0.399 -0.405 -0.405
 0.136  0.824 -0.337 -0.404 -0.397 -0.404 -0.404
 0.138  0.827 -0.333 -0.401 -0.395 -0.403 -0.403
 0.140  0.831 -0.328 -0.399 -0.394 -0.401 -0.401
 0.142  0.833 -0.323 -0.396 -0.392 -0.400 -0.400
 0.144  0.837 -0.319 -0.394 -0.390 -0.399 -0.399
 0.146  0.840 -0.315 -0.392 -0.388 -0.398 -0.398
 0.148  0.843 -0.310 -0.389 -0.387 -0.397 -0.397
 0.150  0.846 -0.305 -0.387 -0.385 -0.395 -0.395
 0.152  0.850 -0.301 -0.385 -0.383 -0.394 -0.394
 0.154  0.852 -0.297 -0.383 -0.381 -0.393 -0.393
 0.156  0.856 -0.293 -0.380 -0.380 -0.391 -0.391
 0.158  0.858 -0.289 -0.378 -0.378 -0.390 -0.390
 0.160  0.862 -0.285 -0.376 -0.376 -0.389 -0.389
 0.162  0.864 -0.279 -0.373 -0.375 -0.387 -0.387
 0.164  0.867 -0.275 -0.371 -0.373 -0.386 -0.386
 0.166  0.870 -0.271 -0.369 -0.372 -0.384 -0.384
 0.168  0.873 -0.267 -0.367 -0.370 -0.383 -0.383
 0.170  0.876 -0.263 -0.364 -0.368 -0.381 -0.381
 0.172  0.879 -0.258 -0.362 -0.367 -0.380 -0.380
 0.174  0.882 -0.254 -0.360 -0.365 -0.378 -0.378
 0.176  0.885 -0.250 -0.358 -0.364 -0.376 -0.376
 0.178  0.888 -0.246 -0.355 -0.362 -0.375 -0.375
 0.180  0.891 -0.242 -0.353 -0.360 -0.373 -0.373
 0.182  0.894 -0.238 -0.351 -0.359 -0.371 -0.371
 0.184  0.898 -0.234 -0.348 -0.357 -0.370 -0.370
 0.186  0.901 -0.230 -0.346 -0.355 -0.368 -0.368
 0.188  0.904 -0.226 -0.344 -0.354 -0.366 -0.366
 0.190  0.907 -0.222 -0.342 -0.353 -0.365 -0.365
 0.192  0.910 -0.218 -0.340 -0.351 -0.363 -0.363
 0.194  0.913 -0.213 -0.338 -0.350 -0.362 -0.362
 0.196  0.916 -0.209 -0.336 -0.348 -0.360 -0.360
 0.198  0.920 -0.206 -0.334 -0.346 -0.358 -0.358
 0.200  0.922 -0.202 -0.332 -0.345 -0.357 -0.357
 0.202  0.926 -0.198 -0.330 -0.344 -0.356 -0.356
 0.204  0.929 -0.193 -0.328 -0.342 -0.354 -0.354
 0.206  0.932 -0.190 -0.325 -0.340 -0.353 -0.353
 0.208  0.935 -0.186 -0.323 -0.339 -0.351 -0.351
 0.210  0.939 -0.182 -0.321 -0.337 -0.350 -0.350
 0.212  0.941 -0.179 -0.319 -0.336 -0.348 -0.348
 0.214  0.945 -0.175 -0.316 -0.334 -0.347 -0.347
 0.216  0.948 -0.170 -0.314 -0.333 -0.346 -0.346
 0.218  0.951 -0.167 -0.312 -0.331 -0.344 -0.344
 0.220  0.954 -0.163 -0.310 -0.330 -0.343 -0.343
 0.222  0.958 -0.159 -0.308 -0.329 -0.342 -0.342
 0.224  0.961 -0.156 -0.306 -0.327 -0.340 -0.340
 0.226  0.964 -0.152 -0.303 -0.325 -0.339 -0.339
 0.228  0.967 -0.148 -0.301 -0.324 -0.338 -0.338
 0.230  0.970 -0.144 -0.299 -0.323 -0.337 -0.337
 0.232  0.974 -0.140 -0.297 -0.321 -0.335 -0.335
 0.234  0.977 -0.137 -0.295 -0.320 -0.334 -0.334
 0.236  0.980 -0.133 -0.293 -0.318 -0.333 -0.333
 0.238  0.983 -0.130 -0.291 -0.317 -0.332 -0.332
 0.240  0.986 -0.127 -0.288 -0.316 -0.331 -0.331
 0.242  0.989 -0.122 -0.286 -0.314 -0.330 -0.330
 0.244  0.992 -0.119 -0.284 -0.312 -0.329 -0.329
 0.246  0.996 -0.115 -0.282 -0.311 -0.328 -0.328
 0.248  0.998 -0.112 -0.280 -0.310 -0.326 -0.326
 0.250  1.002 -0.109 -0.278 -0.309 -0.325 -0.325
 0.252  1.004 -0.105 -0.275 -0.307 -0.324 -0.324
 0.254  1.008 -0.101 -0.273 -0.306 -0.323 -0.323
 0.256  1.010 -0.098 -0.271 -0.304 -0.322 -0.322
 0.258  1.014 -0.094 -0.268 -0.303 -0.321 -0.321
 0.260  1.016 -0.091 -0.266 -0.302 -0.320 -0.320
 0.262  1.020 -0.088 -0.264 -0.300 -0.320 -0.320
 0.264  1.022 -0.084 -0.262 -0.299 -0.319 -0.319
 0.266  1.025 -0.080 -0.259 -0.297 -0.317 -0.317
 0.268  1.028 -0.077 -0.257 -0.296 -0.316 -0.316
 0.270  1.031 -0.074 -0.255 -0.295 -0.315 -0.315
 0.272  1.034 -0.071 -0.252 -0.294 -0.314 -0.314
 0.274  1.037 -0.067 -0.250 -0.292 -0.313 -0.313
 0.276  1.040 -0.064 -0.248 -0.291 -0.312 -0.312
 0.278  1.042 -0.061 -0.246 -0.290 -0.311 -0.311
 0.280  1.045 -0.057 -0.244 -0.288 -0.310 -0.310
 0.282  1.047 -0.054 -0.242 -0.287 -0.309 -0.309
 0.284  1.051 -0.051 -0.240 -0.285 -0.307 -0.307
 0.286  1.053 -0.048 -0.238 -0.284 -0.306 -0.306
 0.288  1.056 -0.045 -0.236 -0.283 -0.305 -0.305
 0.290  1.059 -0.042 -0.234 -0.282 -0.304 -0.304
 0.292  1.061 -0.039 -0.232 -0.281 -0.303 -0.303
 0.294  1.064 -0.035 -0.230 -0.279 -0.302 -0.302
 0.296  1.066 -0.032 -0.227 -0.278 -0.300 -0.300
 0.298  1.069 -0.029 -0.225 -0.277 -0.299 -0.299
 0.300  1.072 -0.026 -0.223 -0.275 -0.298 -0.298
 0.302  1.074 -0.023 -0.221 -0.274 -0.297 -0.297
 0.304  1.077 -0.020 -0.219 -0.273 -0.295 -0.295
 0.306  1.079 -0.017 -0.217 -0.271 -0.294 -0.294
 0.308  1.082 -0.014 -0.215 -0.270 -0.293 -0.293
 0.310  1.084 -0.010 -0.213 -0.269 -0.292 -0.292
 0.312  1.087 -0.007 -0.211 -0.268 -0.291 -0.291
 0.314  1.090 -0.004 -0.209 -0.266 -0.289 -0.289
 0.316  1.092 -0.001 -0.207 -0.265 -0.288 -0.288
 0.318  1.095  0.001 -0.205 -0.263 -0.287 -0.287
 0.320  1.097  0.004 -0.203 -0.262 -0.285 -0.285
 0.322  1.099  0.007 -0.202 -0.261 -0.284 -0.284
 0.324  1.102  0.011 -0.200 -0.260 -0.283 -0.283
 0.326  1.104  0.014 -0.198 -0.258 -0.282 -0.282
 0.328  1.107  0.017 -0.196 -0.257 -0.280 -0.280
 0.330  1.110  0.019 -0.194 -0.255 -0.279 -0.279
 0.332  1.111  0.022 -0.192 -0.254 -0.278 -0.278
 0.334  1.114  0.025 -0.191 -0.253 -0.276 -0.276
 0.336  1.116  0.028 -0.189 -0.252 -0.275 -0.275
 0.338  1.118  0.030 -0.187 -0.250 -0.274 -0.274
 0.340  1.121  0.034 -0.185 -0.249 -0.273 -0.273
 0.342  1.123  0.037 -0.183 -0.247 -0.271 -0.271
 0.344  1.125  0.040 -0.182 -0.246 -0.270 -0.270
 0.346  1.128  0.042 -0.179 -0.245 -0.269 -0.269
 0.348  1.130  0.045 -0.178 -0.243 -0.268 -0.268
 0.350  1.132  0.048 -0.176 -0.242 -0.266 -0.266
 0.352  1.135  0.050 -0.175 -0.240 -0.265 -0.265
 0.354  1.136  0.053 -0.173 -0.239 -0.264 -0.264
 0.356  1.139  0.057 -0.170 -0.238 -0.263 -0.263
 0.358  1.141  0.059 -0.169 -0.236 -0.261 -0.261
 0.360  1.143  0.062 -0.167 -0.235 -0.260 -0.260
 0.362  1.145  0.065 -0.166 -0.233 -0.259 -0.259
 0.364  1.148  0.067 -0.163 -0.232 -0.258 -0.258
 0.366  1.149  0.070 -0.161 -0.231 -0.257 -0.257
 0.368  1.152  0.072 -0.160 -0.229 -0.255 -0.255
 0.370  1.154  0.075 -0.158 -0.228 -0.254 -0.254
 0.372  1.156  0.079 -0.157 -0.226 -0.253 -0.253
 0.374  1.158  0.081 -0.154 -0.225 -0.252 -0.252
 0.376  1.161  0.084 -0.152 -0.224 -0.250 -0.250
 0.378  1.162  0.086 -0.151 -0.223 -0.249 -0.249
 0.380  1.165  0.089 -0.149 -0.221 -0.248 -0.248
 0.382  1.167  0.091 -0.147 -0.220 -0.247 -0.247
 0.384  1.169  0.094 -0.145 -0.218 -0.246 -0.246
 0.386  1.171  0.096 -0.143 -0.217 -0.244 -0.244
 0.388  1.173  0.098 -0.142 -0.216 -0.243 -0.243
 0.390  1.175  0.102 -0.140 -0.214 -0.242 -0.242
 0.392  1.178  0.104 -0.138 -0.213 -0.241 -0.241
 0.394  1.180  0.107 -0.136 -0.212 -0.240 -0.240
 0.396  1.182  0.109 -0.134 -0.211 -0.239 -0.239
 0.398  1.184  0.111 -0.132 -0.209 -0.237 -0.237
 0.400  1.186  0.114 -0.131 -0.208 -0.236 -0.236
 0.402  1.189  0.116 -0.129 -0.206 -0.235 -0.235
 0.404  1.191  0.118 -0.127 -0.205 -0.234 -0.234
 0.406  1.193  0.120 -0.125 -0.204 -0.233 -0.233
 0.408  1.195  0.124 -0.123 -0.203 -0.232 -0.232
 0.410  1.198  0.126 -0.121 -0.202 -0.230 -0.230
 0.412  1.200  0.128 -0.120 -0.200 -0.229 -0.229
 0.414  1.202  0.130 -0.118 -0.199 -0.228 -0.228
 0.416  1.205  0.132 -0.116 -0.198 -0.227 -0.227
 0.418  1.207  0.135 -0.114 -0.197 -0.226 -0.226
 0.420  1.209  0.137 -0.112 -0.195 -0.225 -0.225
 0.422  1.211  0.139 -0.111 -0.194 -0.224 -0.224
 0.424  1.214  0.141 -0.109 -0.193 -0.222 -0.222
 0.426  1.216  0.143 -0.107 -0.192 -0.221 -0.221
 0.428  1.218  0.146 -0.105 -0.190 -0.220 -0.220
 0.430  1.221  0.148 -0.104 -0.189 -0.219 -0.219
 0.432  1.224  0.150 -0.102 -0.188 -0.218 -0.218
 0.434  1.225  0.152 -0.100 -0.187 -0.217 -0.217
 0.436  1.228  0.154 -0.098 -0.186 -0.216 -0.216
 0.438  1.230  0.156 -0.097 -0.184 -0.215 -0.215
 0.440  1.232  0.158 -0.095 -0.183 -0.214 -0.214
 0.442  1.235  0.160 -0.093 -0.182 -0.213 -0.213
 0.444  1.237  0.162 -0.092 -0.181 -0.212 -0.212
 0.446  1.239  0.164 -0.090 -0.179 -0.211 -0.211
 0.448  1.242  0.166 -0.088 -0.178 -0.209 -0.209
 0.450  1.244  0.169 -0.087 -0.177 -0.208 -0.208
 0.452  1.246  0.171 -0.085 -0.176 -0.207 -0.207
 0.454  1.248  0.172 -0.084 -0.175 -0.206 -0.206
 0.456  1.250  0.174 -0.082 -0.174 -0.205 -0.205
 0.458  1.252  0.176 -0.081 -0.172 -0.204 -0.204
 0.460  1.254  0.178 -0.079 -0.171 -0.203 -0.203
 0.462  1.256  0.180 -0.077 -0.170 -0.202 -0.202
 0.464  1.258  0.181 -0.076 -0.169 -0.201 -0.201
 0.466  1.260  0.183 -0.074 -0.168 -0.200 -0.200
 0.468  1.262  0.185 -0.073 -0.167 -0.199 -0.199
 0.470  1.263  0.186 -0.072 -0.165 -0.198 -0.198
 0.472  1.265  0.188 -0.070 -0.164 -0.198 -0.198
 0.474  1.267  0.191 -0.068 -0.163 -0.197 -0.197
 0.476  1.268  0.192 -0.067 -0.162 -0.196 -0.196
 0.478  1.270  0.194 -0.065 -0.161 -0.195 -0.195
 0.480  1.272  0.196 -0.064 -0.160 -0.194 -0.194
 0.482  1.274  0.197 -0.063 -0.158 -0.193 -0.193
 0.484  1.275  0.199 -0.061 -0.157 -0.192 -0.192
 0.486  1.276  0.200 -0.060 -0.156 -0.191 -0.191
 0.488  1.278  0.202 -0.059 -0.155 -0.190 -0.190
 0.490  1.279  0.203 -0.058 -0.154 -0.189 -0.189
 0.492  1.281  0.205 -0.056 -0.152 -0.188 -0.188
 0.494  1.281  0.206 -0.055 -0.151 -0.187 -0.187
 0.496  1.283  0.208 -0.054 -0.150 -0.186 -0.186
 0.498  1.284  0.209 -0.053 -0.149 -0.185 -0.185
 0.500  1.286  0.210 -0.052 -0.148 -0.185 -0.185
 0.502  1.287  0.213 -0.051 -0.146 -0.184 -0.184
 0.504  1.287  0.214 -0.049 -0.145 -0.183 -0.183
 0.506  1.288  0.216 -0.049 -0.144 -0.182 -0.182
 0.508  1.290  0.217 -0.047 -0.143 -0.181 -0.181
 0.510  1.291  0.218 -0.047 -0.142 -0.180 -0.180
 0.512  1.292  0.219 -0.045 -0.141 -0.179 -0.179
 0.514  1.293  0.221 -0.045 -0.140 -0.179 -0.179
 0.516  1.294  0.222 -0.044 -0.139 -0.178 -0.178
 0.518  1.294  0.223 -0.043 -0.137 -0.177 -0.177
 0.520  1.295  0.224 -0.042 -0.136 -0.176 -0.176
 0.522  1.296  0.225 -0.041 -0.135 -0.175 -0.175
 0.524  1.297  0.227 -0.040 -0.135 -0.175 -0.175
 0.526  1.298  0.228 -0.040 -0.134 -0.174 -0.174
 0.528  1.299  0.229 -0.039 -0.133 -0.173 -0.173
 0.530  1.300  0.230 -0.038 -0.132 -0.172 -0.172
 0.532  1.300  0.231 -0.038 -0.131 -0.172 -0.172
 0.534  1.301  0.232 -0.037 -0.130 -0.171 -0.171
 0.536  1.302  0.233 -0.037 -0.129 -0.170 -0.170
 0.538  1.303  0.235 -0.036 -0.129 -0.169 -0.169
 0.540  1.303  0.236 -0.036 -0.128 -0.169 -0.169
 0.542  1.304  0.236 -0.035 -0.127 -0.168 -0.168
 0.544  1.305  0.237 -0.035 -0.127 -0.167 -0.167
 0.546  1.306  0.238 -0.034 -0.126 -0.166 -0.166
 0.548  1.306  0.239 -0.033 -0.125 -0.166 -0.166
 0.550  1.307  0.240 -0.033 -0.125 -0.165 -0.165
 0.552  1.307  0.240 -0.033 -0.124 -0.164 -0.164
 0.554  1.308  0.241 -0.033 -0.123 -0.164 -0.164
 0.556  1.308  0.242 -0.032 -0.123 -0.163 -0.163
 0.558  1.309  0.243 -0.032 -0.122 -0.162 -0.162
 0.560  1.309  0.243 -0.032 -0.122 -0.162 -0.162
 0.562  1.310  0.244 -0.031 -0.121 -0.161 -0.161
 0.564  1.311  0.244 -0.031 -0.121 -0.160 -0.160
 0.566  1.311  0.245 -0.031 -0.120 -0.159 -0.159
 0.568  1.312  0.246 -0.031 -0.120 -0.159 -0.159
 0.570  1.312  0.246 -0.030 -0.120 -0.158 -0.158
 0.572  1.313  0.247 -0.030 -0.119 -0.158 -0.158
 0.574  1.313  0.247 -0.029 -0.119 -0.157 -0.157
 0.576  1.313  0.247 -0.029 -0.119 -0.156 -0.156
 0.578  1.313  0.248 -0.029 -0.118 -0.156 -0.156
 0.580  1.313  0.248 -0.029 -0.118 -0.155 -0.155
 0.582  1.314  0.249 -0.028 -0.118 -0.154 -0.154
 0.584  1.314  0.249 -0.028 -0.117 -0.154 -0.154
 0.586  1.315  0.249 -0.027 -0.117 -0.153 -0.153
 0.588  1.315  0.250 -0.027 -0.116 -0.153 -0.153
 0.590  1.315  0.250 -0.026 -0.116 -0.152 -0.152
 0.592  1.316  0.250 -0.026 -0.116 -0.151 -0.151
 0.594  1.316  0.251 -0.026 -0.116 -0.151 -0.151
 0.596  1.317  0.251 -0.026 -0.115 -0.150 -0.150
 0.598  1.317  0.251 -0.025 -0.115 -0.150 -0.150
 0.600  1.317  0.252 -0.025 -0.115 -0.149 -0.149
 0.602  1.318  0.252 -0.024 -0.115 -0.148 -0.148
 0.604  1.318  0.252 -0.024 -0.114 -0.148 -0.148
 0.606  1.319  0.253 -0.024 -0.114 -0.147 -0.147
 0.608  1.319  0.253 -0.023 -0.114 -0.147 -0.147
 0.610  1.319  0.253 -0.023 -0.114 -0.146 -0.146
 0.612  1.319  0.254 -0.022 -0.114 -0.146 -0.146
 0.614  1.319  0.254 -0.022 -0.113 -0.145 -0.145
 0.616  1.320  0.254 -0.022 -0.113 -0.144 -0.144
 0.618  1.320  0.255 -0.021 -0.113 -0.144 -0.144
 0.620  1.321  0.255 -0.021 -0.113 -0.143 -0.143
 0.622  1.321  0.255 -0.020 -0.113 -0.143 -0.143
 0.624  1.322  0.256 -0.020 -0.113 -0.142 -0.142
 0.626  1.322  0.256 -0.020 -0.112 -0.142 -0.142
 0.628  1.322  0.256 -0.019 -0.112 -0.141 -0.141
 0.630  1.323  0.256 -0.019 -0.112 -0.140 -0.140
 0.632  1.323  0.258 -0.018 -0.112 -0.140 -0.140
 0.634  1.324  0.258 -0.018 -0.112 -0.139 -0.139
 0.636  1.324  0.258 -0.018 -0.112 -0.139 -0.139
 0.638  1.325  0.258 -0.017 -0.112 -0.138 -0.138
 0.640  1.325  0.259 -0.017 -0.112 -0.138 -0.138
 0.642  1.326  0.259 -0.017 -0.112 -0.137 -0.137
 0.644  1.326  0.259 -0.017 -0.111 -0.136 -0.136
 0.646  1.326  0.259 -0.017 -0.111 -0.136 -0.136
 0.648  1.326  0.260 -0.017 -0.111 -0.135 -0.135
 0.650  1.326  0.260 -0.017 -0.111 -0.135 -0.135
 0.652  1.327  0.260 -0.017 -0.111 -0.134 -0.134
 0.654  1.327  0.260 -0.017 -0.111 -0.133 -0.133
 0.656  1.328  0.261 -0.017 -0.111 -0.133 -0.133
 0.658  1.328  0.261 -0.017 -0.111 -0.132 -0.132
 0.660  1.329  0.261 -0.017 -0.111 -0.132 -0.132
 0.662  1.330  0.261 -0.017 -0.111 -0.131 -0.131
 0.664  1.330  0.261 -0.017 -0.111 -0.130 -0.130
 0.666  1.331  0.262 -0.018 -0.110 -0.130 -0.130
 0.668  1.331  0.262 -0.018 -0.110 -0.129 -0.129
 0.670  1.332  0.262 -0.019 -0.110 -0.128 -0.128
 0.672  1.332  0.262 -0.019 -0.110 -0.128 -0.128
 0.674  1.332  0.262 -0.020 -0.110 -0.127 -0.127
 0.676  1.333  0.263 -0.020 -0.109 -0.127 -0.127
 0.678  1.333  0.263 -0.020 -0.109 -0.126 -0.126
 0.680  1.334  0.263 -0.021 -0.109 -0.125 -0.125
 0.682  1.334  0.263 -0.022 -0.109 -0.125 -0.125
 0.684  1.335  0.263 -0.022 -0.109 -0.124 -0.124
 0.686  1.336  0.263 -0.022 -0.109 -0.123 -0.123
 0.688  1.337  0.264 -0.023 -0.109 -0.123 -0.123
 0.690  1.337  0.264 -0.024 -0.109 -0.122 -0.122
 0.692  1.338  0.264 -0.024 -0.108 -0.121 -0.121
 0.694  1.338  0.264 -0.025 -0.108 -0.121 -0.121
 0.696  1.338  0.264 -0.026 -0.108 -0.120 -0.120
 0.698  1.339  0.264 -0.026 -0.108 -0.119 -0.119
 0.700  1.340  0.265 -0.027 -0.108 -0.119 -0.119
 0.702  1.341  0.265 -0.028 -0.108 -0.118 -0.118
 0.704  1.342  0.265 -0.029 -0.108 -0.117 -0.117
 0.706  1.342  0.265 -0.029 -0.107 -0.117 -0.117
 0.708  1.343  0.265 -0.029 -0.107 -0.116 -0.116
 0.710  1.344  0.265 -0.029 -0.107 -0.115 -0.115
 0.712  1.345  0.265 -0.029 -0.107 -0.114 -0.114
 0.714  1.345  0.265 -0.029 -0.107 -0.114 -0.114
 0.716  1.345  0.265 -0.029 -0.107 -0.113 -0.113
 0.718  1.346  0.265 -0.029 -0.106 -0.112 -0.112
 0.720  1.347  0.266 -0.029 -0.106 -0.111 -0.111
 0.722  1.348  0.266 -0.028 -0.106 -0.110 -0.110
 0.724  1.349  0.266 -0.028 -0.106 -0.110 -0.110
 0.726  1.350  0.266 -0.027 -0.106 -0.109 -0.109
 0.728  1.351  0.267 -0.026 -0.106 -0.108 -0.108
 0.730  1.351  0.267 -0.025 -0.105 -0.107 -0.107
 0.732  1.353  0.268 -0.024 -0.105 -0.106 -0.106
 0.734  1.354  0.269 -0.023 -0.105 -0.106 -0.106
 0.736  1.355  0.270 -0.022 -0.105 -0.105 -0.105
 0.738  1.357  0.272 -0.021 -0.105 -0.104 -0.104
 0.740  1.357  0.273 -0.020 -0.105 -0.103 -0.103
 0.742  1.359  0.274 -0.018 -0.105 -0.102 -0.102
 0.744  1.361  0.276 -0.017 -0.104 -0.102 -0.102
 0.746  1.363  0.278 -0.015 -0.104 -0.101 -0.101
 0.748  1.364  0.281 -0.013 -0.104 -0.100 -0.100
 0.750  1.366  0.283 -0.011 -0.104 -0.099 -0.099
 0.752  1.368  0.285 -0.009 -0.104 -0.098 -0.098
 0.754  1.370  0.288 -0.007 -0.104 -0.097 -0.097
 0.756  1.371  0.290 -0.004 -0.103 -0.096 -0.096
 0.758  1.373  0.293 -0.002 -0.103 -0.095 -0.095
 0.760  1.376  0.296  0.001 -0.103 -0.093 -0.093
 0.762  1.377  0.298  0.003 -0.102 -0.092 -0.092
 0.764  1.380  0.303  0.005 -0.102 -0.091 -0.091
 0.766  1.383  0.306  0.008 -0.102 -0.089 -0.089
 0.768  1.384  0.309  0.011 -0.102 -0.088 -0.088
 0.770  1.387  0.313  0.014 -0.102 -0.086 -0.086
 0.772  1.389  0.317  0.017 -0.102 -0.085 -0.085
 0.774  1.393  0.321  0.019 -0.102 -0.083 -0.083
 0.776  1.395  0.327  0.022 -0.101 -0.081 -0.081
 0.778  1.398  0.331  0.025 -0.101 -0.079 -0.079
 0.780  1.402  0.336  0.028 -0.101 -0.077 -0.077
 0.782  1.404  0.340  0.031 -0.101 -0.075 -0.075
 0.784  1.408  0.345  0.033 -0.101 -0.073 -0.073
 0.786  1.411  0.351  0.036 -0.101 -0.071 -0.071
 0.788  1.414  0.356  0.039 -0.101 -0.069 -0.069
 0.790  1.417  0.361  0.042 -0.100 -0.066 -0.066
 0.792  1.421  0.366  0.044 -0.100 -0.064 -0.064
 0.794  1.423  0.372  0.047 -0.099 -0.061 -0.061
 0.796  1.427  0.377  0.049 -0.099 -0.059 -0.059
 0.798  1.429  0.381  0.051 -0.098 -0.056 -0.056
 0.800  1.432  0.386  0.054 -0.098 -0.053 -0.053
 0.802  1.434  0.390  0.057 -0.097 -0.051 -0.051
 0.804  1.436  0.395  0.059 -0.095 -0.048 -0.048
 0.806  1.438  0.398  0.061 -0.095 -0.045 -0.045
 0.808  1.439  0.401  0.064 -0.093 -0.042 -0.042
