# IsPeriodic    : True
# Period        : 0.744957 days
# Normalization : <g_mag>=0
# 
# Phase u_mag  g_mag  r_mag  i_mag  z_mag  y_mag
 0.000  0.837 -0.319 -0.421 -0.397 -0.373 -0.373
 0.002  0.837 -0.319 -0.421 -0.397 -0.373 -0.373
 0.004  0.838 -0.319 -0.420 -0.397 -0.373 -0.373
 0.006  0.838 -0.318 -0.420 -0.397 -0.372 -0.372
 0.008  0.839 -0.317 -0.420 -0.397 -0.372 -0.372
 0.010  0.839 -0.316 -0.419 -0.397 -0.372 -0.372
 0.012  0.840 -0.315 -0.419 -0.397 -0.371 -0.371
 0.014  0.841 -0.313 -0.419 -0.396 -0.371 -0.371
 0.016  0.843 -0.312 -0.418 -0.396 -0.370 -0.370
 0.018  0.844 -0.310 -0.418 -0.396 -0.370 -0.370
 0.020  0.846 -0.308 -0.417 -0.395 -0.369 -0.369
 0.022  0.847 -0.306 -0.417 -0.395 -0.369 -0.369
 0.024  0.849 -0.304 -0.416 -0.395 -0.368 -0.368
 0.026  0.850 -0.302 -0.415 -0.394 -0.367 -0.367
 0.028  0.852 -0.300 -0.414 -0.394 -0.367 -0.367
 0.030  0.853 -0.298 -0.413 -0.393 -0.366 -0.366
 0.032  0.855 -0.296 -0.412 -0.393 -0.365 -0.365
 0.034  0.857 -0.294 -0.411 -0.392 -0.365 -0.365
 0.036  0.859 -0.291 -0.410 -0.392 -0.364 -0.364
 0.038  0.860 -0.289 -0.409 -0.391 -0.363 -0.363
 0.040  0.862 -0.287 -0.408 -0.390 -0.362 -0.362
 0.042  0.864 -0.285 -0.407 -0.389 -0.362 -0.362
 0.044  0.866 -0.282 -0.405 -0.389 -0.361 -0.361
 0.046  0.868 -0.280 -0.404 -0.388 -0.360 -0.360
 0.048  0.870 -0.278 -0.402 -0.387 -0.360 -0.360
 0.050  0.872 -0.275 -0.401 -0.386 -0.359 -0.359
 0.052  0.874 -0.273 -0.399 -0.385 -0.358 -0.358
 0.054  0.876 -0.271 -0.397 -0.384 -0.358 -0.358
 0.056  0.878 -0.268 -0.395 -0.383 -0.357 -0.357
 0.058  0.880 -0.266 -0.394 -0.382 -0.356 -0.356
 0.060  0.882 -0.263 -0.392 -0.381 -0.356 -0.356
 0.062  0.884 -0.261 -0.390 -0.380 -0.355 -0.355
 0.064  0.887 -0.258 -0.388 -0.379 -0.354 -0.354
 0.066  0.889 -0.255 -0.386 -0.377 -0.354 -0.354
 0.068  0.891 -0.253 -0.384 -0.376 -0.353 -0.353
 0.070  0.894 -0.250 -0.382 -0.375 -0.352 -0.352
 0.072  0.896 -0.247 -0.381 -0.374 -0.352 -0.352
 0.074  0.898 -0.245 -0.379 -0.372 -0.351 -0.351
 0.076  0.901 -0.242 -0.377 -0.371 -0.351 -0.351
 0.078  0.903 -0.239 -0.375 -0.370 -0.350 -0.350
 0.080  0.906 -0.236 -0.373 -0.368 -0.349 -0.349
 0.082  0.909 -0.234 -0.371 -0.367 -0.349 -0.349
 0.084  0.911 -0.231 -0.369 -0.366 -0.348 -0.348
 0.086  0.914 -0.228 -0.367 -0.365 -0.347 -0.347
 0.088  0.916 -0.225 -0.365 -0.364 -0.347 -0.347
 0.090  0.919 -0.222 -0.364 -0.362 -0.346 -0.346
 0.092  0.921 -0.219 -0.362 -0.361 -0.346 -0.346
 0.094  0.924 -0.216 -0.360 -0.360 -0.345 -0.345
 0.096  0.926 -0.214 -0.358 -0.359 -0.345 -0.345
 0.098  0.929 -0.211 -0.357 -0.358 -0.344 -0.344
 0.100  0.932 -0.208 -0.355 -0.357 -0.343 -0.343
 0.102  0.934 -0.205 -0.353 -0.356 -0.343 -0.343
 0.104  0.937 -0.202 -0.352 -0.355 -0.342 -0.342
 0.106  0.939 -0.200 -0.350 -0.354 -0.342 -0.342
 0.108  0.942 -0.197 -0.348 -0.353 -0.341 -0.341
 0.110  0.944 -0.194 -0.347 -0.352 -0.340 -0.340
 0.112  0.946 -0.192 -0.346 -0.351 -0.340 -0.340
 0.114  0.949 -0.189 -0.344 -0.350 -0.339 -0.339
 0.116  0.951 -0.187 -0.342 -0.350 -0.339 -0.339
 0.118  0.953 -0.184 -0.341 -0.349 -0.338 -0.338
 0.120  0.956 -0.182 -0.340 -0.348 -0.338 -0.338
 0.122  0.958 -0.179 -0.338 -0.347 -0.337 -0.337
 0.124  0.960 -0.177 -0.336 -0.346 -0.337 -0.337
 0.126  0.962 -0.174 -0.335 -0.345 -0.336 -0.336
 0.128  0.965 -0.172 -0.334 -0.345 -0.335 -0.335
 0.130  0.967 -0.170 -0.333 -0.344 -0.335 -0.335
 0.132  0.969 -0.167 -0.331 -0.343 -0.334 -0.334
 0.134  0.971 -0.165 -0.330 -0.343 -0.334 -0.334
 0.136  0.973 -0.163 -0.329 -0.342 -0.333 -0.333
 0.138  0.975 -0.160 -0.327 -0.341 -0.333 -0.333
 0.140  0.977 -0.158 -0.326 -0.341 -0.332 -0.332
 0.142  0.979 -0.156 -0.325 -0.340 -0.332 -0.332
 0.144  0.982 -0.154 -0.324 -0.339 -0.331 -0.331
 0.146  0.983 -0.152 -0.323 -0.339 -0.331 -0.331
 0.148  0.985 -0.150 -0.321 -0.338 -0.330 -0.330
 0.150  0.987 -0.148 -0.320 -0.338 -0.330 -0.330
 0.152  0.989 -0.146 -0.319 -0.337 -0.329 -0.329
 0.154  0.991 -0.144 -0.317 -0.337 -0.328 -0.328
 0.156  0.993 -0.142 -0.316 -0.336 -0.328 -0.328
 0.158  0.995 -0.140 -0.315 -0.335 -0.328 -0.328
 0.160  0.996 -0.137 -0.314 -0.335 -0.327 -0.327
 0.162  0.998 -0.136 -0.312 -0.334 -0.326 -0.326
 0.164  1.000 -0.134 -0.311 -0.333 -0.326 -0.326
 0.166  1.002 -0.132 -0.310 -0.333 -0.326 -0.326
 0.168  1.004 -0.130 -0.309 -0.332 -0.325 -0.325
 0.170  1.006 -0.128 -0.307 -0.332 -0.324 -0.324
 0.172  1.008 -0.126 -0.306 -0.331 -0.324 -0.324
 0.174  1.010 -0.124 -0.305 -0.330 -0.324 -0.324
 0.176  1.011 -0.122 -0.303 -0.330 -0.323 -0.323
 0.178  1.013 -0.120 -0.302 -0.329 -0.322 -0.322
 0.180  1.015 -0.118 -0.301 -0.328 -0.322 -0.322
 0.182  1.018 -0.116 -0.300 -0.327 -0.321 -0.321
 0.184  1.019 -0.114 -0.298 -0.327 -0.321 -0.321
 0.186  1.021 -0.112 -0.297 -0.326 -0.321 -0.321
 0.188  1.023 -0.110 -0.296 -0.325 -0.320 -0.320
 0.190  1.025 -0.108 -0.295 -0.324 -0.319 -0.319
 0.192  1.027 -0.106 -0.293 -0.324 -0.319 -0.319
 0.194  1.029 -0.104 -0.292 -0.323 -0.319 -0.319
 0.196  1.031 -0.101 -0.291 -0.322 -0.318 -0.318
 0.198  1.033 -0.099 -0.289 -0.321 -0.317 -0.317
 0.200  1.035 -0.097 -0.288 -0.321 -0.317 -0.317
 0.202  1.038 -0.095 -0.287 -0.320 -0.317 -0.317
 0.204  1.039 -0.093 -0.285 -0.319 -0.316 -0.316
 0.206  1.041 -0.091 -0.284 -0.318 -0.316 -0.316
 0.208  1.044 -0.088 -0.283 -0.318 -0.315 -0.315
 0.210  1.046 -0.086 -0.282 -0.317 -0.315 -0.315
 0.212  1.048 -0.084 -0.280 -0.316 -0.314 -0.314
 0.214  1.050 -0.082 -0.279 -0.315 -0.314 -0.314
 0.216  1.052 -0.079 -0.278 -0.314 -0.313 -0.313
 0.218  1.054 -0.077 -0.277 -0.314 -0.313 -0.313
 0.220  1.056 -0.075 -0.275 -0.313 -0.312 -0.312
 0.222  1.059 -0.072 -0.274 -0.312 -0.312 -0.312
 0.224  1.061 -0.070 -0.273 -0.311 -0.311 -0.311
 0.226  1.063 -0.068 -0.272 -0.310 -0.311 -0.311
 0.228  1.065 -0.065 -0.270 -0.309 -0.310 -0.310
 0.230  1.068 -0.063 -0.269 -0.309 -0.310 -0.310
 0.232  1.070 -0.061 -0.268 -0.308 -0.309 -0.309
 0.234  1.072 -0.058 -0.266 -0.307 -0.309 -0.309
 0.236  1.074 -0.056 -0.265 -0.306 -0.308 -0.308
 0.238  1.076 -0.054 -0.264 -0.305 -0.308 -0.308
 0.240  1.078 -0.051 -0.262 -0.304 -0.307 -0.307
 0.242  1.081 -0.049 -0.261 -0.304 -0.307 -0.307
 0.244  1.082 -0.047 -0.260 -0.303 -0.306 -0.306
 0.246  1.085 -0.044 -0.258 -0.302 -0.306 -0.306
 0.248  1.087 -0.042 -0.257 -0.301 -0.305 -0.305
 0.250  1.089 -0.040 -0.256 -0.300 -0.305 -0.305
 0.252  1.091 -0.038 -0.254 -0.300 -0.304 -0.304
 0.254  1.093 -0.036 -0.253 -0.299 -0.304 -0.304
 0.256  1.095 -0.033 -0.252 -0.298 -0.303 -0.303
 0.258  1.096 -0.031 -0.251 -0.297 -0.303 -0.303
 0.260  1.098 -0.029 -0.249 -0.296 -0.302 -0.302
 0.262  1.100 -0.027 -0.248 -0.295 -0.302 -0.302
 0.264  1.102 -0.025 -0.247 -0.295 -0.301 -0.301
 0.266  1.104 -0.023 -0.246 -0.294 -0.301 -0.301
 0.268  1.106 -0.021 -0.244 -0.293 -0.300 -0.300
 0.270  1.108 -0.019 -0.243 -0.292 -0.300 -0.300
 0.272  1.110 -0.017 -0.242 -0.291 -0.299 -0.299
 0.274  1.111 -0.015 -0.240 -0.291 -0.298 -0.298
 0.276  1.113 -0.013 -0.239 -0.290 -0.298 -0.298
 0.278  1.115 -0.012 -0.238 -0.289 -0.297 -0.297
 0.280  1.117 -0.010 -0.236 -0.288 -0.297 -0.297
 0.282  1.118 -0.008 -0.235 -0.287 -0.296 -0.296
 0.284  1.120 -0.006 -0.234 -0.287 -0.295 -0.295
 0.286  1.122 -0.004 -0.232 -0.286 -0.295 -0.295
 0.288  1.123 -0.002 -0.231 -0.285 -0.294 -0.294
 0.290  1.125 -0.001 -0.230 -0.284 -0.293 -0.293
 0.292  1.126  0.001 -0.228 -0.283 -0.293 -0.293
 0.294  1.128  0.003 -0.227 -0.282 -0.292 -0.292
 0.296  1.129  0.004 -0.226 -0.282 -0.291 -0.291
 0.298  1.131  0.006 -0.224 -0.281 -0.291 -0.291
 0.300  1.132  0.008 -0.223 -0.280 -0.290 -0.290
 0.302  1.134  0.009 -0.222 -0.279 -0.290 -0.290
 0.304  1.135  0.011 -0.221 -0.278 -0.289 -0.289
 0.306  1.137  0.012 -0.220 -0.277 -0.288 -0.288
 0.308  1.138  0.014 -0.218 -0.276 -0.288 -0.288
 0.310  1.139  0.016 -0.217 -0.276 -0.287 -0.287
 0.312  1.141  0.017 -0.216 -0.275 -0.286 -0.286
 0.314  1.143  0.019 -0.214 -0.274 -0.286 -0.286
 0.316  1.144  0.020 -0.213 -0.273 -0.285 -0.285
 0.318  1.146  0.022 -0.212 -0.272 -0.284 -0.284
 0.320  1.147  0.023 -0.211 -0.271 -0.284 -0.284
 0.322  1.148  0.025 -0.210 -0.270 -0.283 -0.283
 0.324  1.150  0.027 -0.209 -0.269 -0.282 -0.282
 0.326  1.151  0.028 -0.207 -0.268 -0.282 -0.282
 0.328  1.153  0.030 -0.206 -0.267 -0.281 -0.281
 0.330  1.154  0.031 -0.205 -0.267 -0.280 -0.280
 0.332  1.156  0.033 -0.204 -0.265 -0.280 -0.280
 0.334  1.157  0.035 -0.203 -0.264 -0.279 -0.279
 0.336  1.159  0.036 -0.201 -0.264 -0.278 -0.278
 0.338  1.160  0.038 -0.200 -0.263 -0.278 -0.278
 0.340  1.161  0.039 -0.199 -0.262 -0.277 -0.277
 0.342  1.163  0.041 -0.198 -0.261 -0.277 -0.277
 0.344  1.164  0.043 -0.197 -0.260 -0.276 -0.276
 0.346  1.166  0.044 -0.195 -0.259 -0.275 -0.275
 0.348  1.168  0.046 -0.194 -0.258 -0.275 -0.275
 0.350  1.169  0.048 -0.193 -0.257 -0.274 -0.274
 0.352  1.170  0.049 -0.192 -0.255 -0.274 -0.274
 0.354  1.172  0.051 -0.191 -0.255 -0.273 -0.273
 0.356  1.173  0.053 -0.189 -0.254 -0.272 -0.272
 0.358  1.175  0.054 -0.188 -0.252 -0.272 -0.272
 0.360  1.176  0.056 -0.187 -0.252 -0.271 -0.271
 0.362  1.177  0.058 -0.186 -0.250 -0.271 -0.271
 0.364  1.179  0.059 -0.185 -0.249 -0.270 -0.270
 0.366  1.181  0.061 -0.184 -0.248 -0.270 -0.270
 0.368  1.182  0.062 -0.183 -0.247 -0.269 -0.269
 0.370  1.183  0.064 -0.182 -0.246 -0.269 -0.269
 0.372  1.185  0.066 -0.181 -0.245 -0.268 -0.268
 0.374  1.186  0.067 -0.179 -0.244 -0.268 -0.268
 0.376  1.188  0.069 -0.179 -0.243 -0.267 -0.267
 0.378  1.189  0.071 -0.177 -0.243 -0.267 -0.267
 0.380  1.190  0.072 -0.177 -0.242 -0.266 -0.266
 0.382  1.192  0.074 -0.175 -0.240 -0.266 -0.266
 0.384  1.194  0.076 -0.175 -0.240 -0.265 -0.265
 0.386  1.195  0.077 -0.173 -0.239 -0.265 -0.265
 0.388  1.196  0.079 -0.173 -0.238 -0.264 -0.264
 0.390  1.198  0.080 -0.171 -0.237 -0.263 -0.263
 0.392  1.199  0.082 -0.171 -0.236 -0.263 -0.263
 0.394  1.200  0.083 -0.169 -0.235 -0.262 -0.262
 0.396  1.202  0.085 -0.169 -0.234 -0.262 -0.262
 0.398  1.203  0.086 -0.168 -0.233 -0.261 -0.261
 0.400  1.204  0.088 -0.167 -0.232 -0.261 -0.261
 0.402  1.206  0.089 -0.166 -0.232 -0.260 -0.260
 0.404  1.207  0.090 -0.165 -0.231 -0.260 -0.260
 0.406  1.209  0.092 -0.164 -0.230 -0.259 -0.259
 0.408  1.210  0.093 -0.163 -0.229 -0.258 -0.258
 0.410  1.211  0.094 -0.162 -0.228 -0.258 -0.258
 0.412  1.212  0.096 -0.161 -0.228 -0.257 -0.257
 0.414  1.214  0.097 -0.161 -0.227 -0.256 -0.256
 0.416  1.215  0.098 -0.160 -0.226 -0.256 -0.256
 0.418  1.217  0.099 -0.159 -0.225 -0.255 -0.255
 0.420  1.218  0.100 -0.158 -0.224 -0.255 -0.255
 0.422  1.219  0.102 -0.157 -0.224 -0.254 -0.254
 0.424  1.220  0.103 -0.157 -0.223 -0.253 -0.253
 0.426  1.222  0.104 -0.156 -0.222 -0.253 -0.253
 0.428  1.223  0.105 -0.155 -0.221 -0.252 -0.252
 0.430  1.224  0.106 -0.154 -0.221 -0.251 -0.251
 0.432  1.225  0.107 -0.154 -0.220 -0.251 -0.251
 0.434  1.226  0.108 -0.153 -0.219 -0.250 -0.250
 0.436  1.228  0.109 -0.152 -0.219 -0.249 -0.249
 0.438  1.229  0.110 -0.151 -0.218 -0.249 -0.249
 0.440  1.230  0.111 -0.150 -0.217 -0.248 -0.248
 0.442  1.232  0.112 -0.150 -0.216 -0.247 -0.247
 0.444  1.232  0.113 -0.149 -0.216 -0.247 -0.247
 0.446  1.234  0.114 -0.148 -0.215 -0.246 -0.246
 0.448  1.235  0.115 -0.147 -0.214 -0.245 -0.245
 0.450  1.236  0.116 -0.146 -0.213 -0.244 -0.244
 0.452  1.237  0.117 -0.146 -0.213 -0.244 -0.244
 0.454  1.238  0.118 -0.145 -0.212 -0.243 -0.243
 0.456  1.239  0.119 -0.144 -0.212 -0.242 -0.242
 0.458  1.240  0.119 -0.144 -0.211 -0.242 -0.242
 0.460  1.241  0.120 -0.143 -0.210 -0.241 -0.241
 0.462  1.242  0.121 -0.142 -0.210 -0.240 -0.240
 0.464  1.243  0.122 -0.141 -0.209 -0.240 -0.240
 0.466  1.244  0.123 -0.140 -0.208 -0.239 -0.239
 0.468  1.245  0.124 -0.140 -0.208 -0.238 -0.238
 0.470  1.246  0.125 -0.139 -0.207 -0.237 -0.237
 0.472  1.247  0.126 -0.138 -0.207 -0.237 -0.237
 0.474  1.248  0.126 -0.137 -0.206 -0.236 -0.236
 0.476  1.249  0.127 -0.136 -0.205 -0.236 -0.236
 0.478  1.250  0.128 -0.136 -0.205 -0.235 -0.235
 0.480  1.251  0.129 -0.135 -0.204 -0.235 -0.235
 0.482  1.251  0.130 -0.134 -0.204 -0.234 -0.234
 0.484  1.252  0.131 -0.133 -0.203 -0.233 -0.233
 0.486  1.253  0.132 -0.132 -0.202 -0.233 -0.233
 0.488  1.254  0.132 -0.132 -0.202 -0.233 -0.233
 0.490  1.254  0.133 -0.131 -0.202 -0.232 -0.232
 0.492  1.255  0.134 -0.130 -0.201 -0.231 -0.231
 0.494  1.255  0.135 -0.130 -0.200 -0.231 -0.231
 0.496  1.256  0.136 -0.129 -0.200 -0.231 -0.231
 0.498  1.257  0.137 -0.128 -0.199 -0.230 -0.230
 0.500  1.257  0.137 -0.127 -0.199 -0.230 -0.230
 0.502  1.258  0.138 -0.126 -0.198 -0.229 -0.229
 0.504  1.259  0.139 -0.126 -0.198 -0.229 -0.229
 0.506  1.259  0.140 -0.125 -0.197 -0.228 -0.228
 0.508  1.260  0.141 -0.124 -0.196 -0.228 -0.228
 0.510  1.260  0.142 -0.124 -0.196 -0.227 -0.227
 0.512  1.261  0.142 -0.123 -0.196 -0.227 -0.227
 0.514  1.261  0.143 -0.122 -0.195 -0.227 -0.227
 0.516  1.261  0.144 -0.122 -0.195 -0.226 -0.226
 0.518  1.262  0.145 -0.121 -0.194 -0.226 -0.226
 0.520  1.262  0.146 -0.120 -0.193 -0.226 -0.226
 0.522  1.263  0.146 -0.120 -0.193 -0.225 -0.225
 0.524  1.263  0.147 -0.119 -0.193 -0.225 -0.225
 0.526  1.264  0.148 -0.118 -0.192 -0.225 -0.225
 0.528  1.264  0.149 -0.118 -0.191 -0.224 -0.224
 0.530  1.264  0.149 -0.117 -0.191 -0.224 -0.224
 0.532  1.265  0.150 -0.116 -0.190 -0.224 -0.224
 0.534  1.265  0.150 -0.116 -0.190 -0.223 -0.223
 0.536  1.266  0.151 -0.115 -0.190 -0.223 -0.223
 0.538  1.266  0.152 -0.115 -0.189 -0.223 -0.223
 0.540  1.267  0.152 -0.114 -0.188 -0.222 -0.222
 0.542  1.267  0.153 -0.114 -0.188 -0.222 -0.222
 0.544  1.267  0.153 -0.113 -0.187 -0.222 -0.222
 0.546  1.268  0.153 -0.112 -0.187 -0.221 -0.221
 0.548  1.268  0.154 -0.112 -0.187 -0.221 -0.221
 0.550  1.268  0.154 -0.112 -0.186 -0.221 -0.221
 0.552  1.268  0.154 -0.111 -0.186 -0.220 -0.220
 0.554  1.269  0.154 -0.110 -0.185 -0.220 -0.220
 0.556  1.269  0.155 -0.110 -0.184 -0.220 -0.220
 0.558  1.270  0.155 -0.110 -0.184 -0.219 -0.219
 0.560  1.270  0.155 -0.109 -0.184 -0.219 -0.219
 0.562  1.270  0.155 -0.108 -0.183 -0.219 -0.219
 0.564  1.271  0.155 -0.108 -0.183 -0.218 -0.218
 0.566  1.271  0.155 -0.108 -0.182 -0.218 -0.218
 0.568  1.271  0.155 -0.107 -0.182 -0.218 -0.218
 0.570  1.272  0.155 -0.107 -0.181 -0.217 -0.217
 0.572  1.272  0.155 -0.106 -0.181 -0.217 -0.217
 0.574  1.273  0.155 -0.106 -0.180 -0.217 -0.217
 0.576  1.273  0.155 -0.106 -0.180 -0.216 -0.216
 0.578  1.273  0.154 -0.105 -0.179 -0.216 -0.216
 0.580  1.274  0.154 -0.105 -0.179 -0.216 -0.216
 0.582  1.274  0.154 -0.104 -0.178 -0.215 -0.215
 0.584  1.274  0.153 -0.104 -0.178 -0.215 -0.215
 0.586  1.275  0.153 -0.104 -0.177 -0.215 -0.215
 0.588  1.275  0.153 -0.104 -0.177 -0.214 -0.214
 0.590  1.275  0.153 -0.103 -0.176 -0.214 -0.214
 0.592  1.275  0.152 -0.103 -0.175 -0.214 -0.214
 0.594  1.275  0.152 -0.103 -0.175 -0.213 -0.213
 0.596  1.276  0.152 -0.102 -0.175 -0.213 -0.213
 0.598  1.276  0.151 -0.102 -0.174 -0.213 -0.213
 0.600  1.276  0.151 -0.102 -0.173 -0.212 -0.212
 0.602  1.277  0.150 -0.102 -0.173 -0.212 -0.212
 0.604  1.277  0.150 -0.102 -0.172 -0.212 -0.212
 0.606  1.277  0.150 -0.101 -0.172 -0.211 -0.211
 0.608  1.277  0.150 -0.101 -0.171 -0.211 -0.211
 0.610  1.278  0.150 -0.101 -0.170 -0.210 -0.210
 0.612  1.278  0.150 -0.101 -0.169 -0.210 -0.210
 0.614  1.278  0.150 -0.101 -0.169 -0.210 -0.210
 0.616  1.278  0.150 -0.101 -0.168 -0.209 -0.209
 0.618  1.279  0.150 -0.100 -0.167 -0.209 -0.209
 0.620  1.279  0.150 -0.100 -0.167 -0.208 -0.208
 0.622  1.279  0.150 -0.100 -0.166 -0.208 -0.208
 0.624  1.279  0.150 -0.100 -0.165 -0.207 -0.207
 0.626  1.279  0.150 -0.100 -0.165 -0.207 -0.207
 0.628  1.279  0.150 -0.100 -0.164 -0.207 -0.207
 0.630  1.280  0.151 -0.100 -0.163 -0.206 -0.206
 0.632  1.280  0.151 -0.100 -0.163 -0.206 -0.206
 0.634  1.280  0.152 -0.100 -0.162 -0.205 -0.205
 0.636  1.280  0.152 -0.100 -0.161 -0.205 -0.205
 0.638  1.280  0.152 -0.100 -0.160 -0.204 -0.204
 0.640  1.280  0.153 -0.100 -0.160 -0.204 -0.204
 0.642  1.280  0.153 -0.100 -0.159 -0.203 -0.203
 0.644  1.280  0.154 -0.100 -0.158 -0.203 -0.203
 0.646  1.281  0.154 -0.100 -0.157 -0.202 -0.202
 0.648  1.281  0.155 -0.100 -0.156 -0.202 -0.202
 0.650  1.281  0.155 -0.100 -0.155 -0.201 -0.201
 0.652  1.281  0.156 -0.100 -0.154 -0.201 -0.201
 0.654  1.281  0.157 -0.100 -0.154 -0.200 -0.200
 0.656  1.281  0.157 -0.100 -0.153 -0.200 -0.200
 0.658  1.281  0.158 -0.099 -0.152 -0.199 -0.199
 0.660  1.281  0.159 -0.099 -0.151 -0.198 -0.198
 0.662  1.281  0.159 -0.099 -0.150 -0.198 -0.198
 0.664  1.281  0.160 -0.098 -0.149 -0.197 -0.197
 0.666  1.281  0.161 -0.098 -0.148 -0.197 -0.197
 0.668  1.281  0.162 -0.098 -0.147 -0.196 -0.196
 0.670  1.281  0.162 -0.097 -0.146 -0.196 -0.196
 0.672  1.281  0.163 -0.097 -0.145 -0.195 -0.195
 0.674  1.282  0.164 -0.096 -0.145 -0.194 -0.194
 0.676  1.282  0.164 -0.096 -0.143 -0.194 -0.194
 0.678  1.282  0.165 -0.095 -0.142 -0.193 -0.193
 0.680  1.282  0.166 -0.095 -0.142 -0.192 -0.192
 0.682  1.282  0.167 -0.094 -0.140 -0.191 -0.191
 0.684  1.282  0.167 -0.094 -0.139 -0.191 -0.191
 0.686  1.283  0.168 -0.093 -0.138 -0.190 -0.190
 0.688  1.283  0.168 -0.093 -0.137 -0.189 -0.189
 0.690  1.283  0.169 -0.092 -0.136 -0.188 -0.188
 0.692  1.284  0.170 -0.091 -0.135 -0.188 -0.188
 0.694  1.284  0.170 -0.091 -0.134 -0.187 -0.187
 0.696  1.284  0.171 -0.090 -0.133 -0.186 -0.186
 0.698  1.285  0.171 -0.089 -0.132 -0.185 -0.185
 0.700  1.285  0.172 -0.088 -0.130 -0.184 -0.184
 0.702  1.285  0.173 -0.087 -0.129 -0.183 -0.183
 0.704  1.286  0.173 -0.086 -0.128 -0.182 -0.182
 0.706  1.286  0.174 -0.085 -0.127 -0.181 -0.181
 0.708  1.287  0.174 -0.085 -0.126 -0.180 -0.180
 0.710  1.287  0.175 -0.084 -0.125 -0.179 -0.179
 0.712  1.288  0.175 -0.083 -0.124 -0.178 -0.178
 0.714  1.289  0.176 -0.082 -0.122 -0.177 -0.177
 0.716  1.289  0.176 -0.081 -0.121 -0.176 -0.176
 0.718  1.289  0.177 -0.079 -0.120 -0.175 -0.175
 0.720  1.290  0.178 -0.079 -0.119 -0.174 -0.174
 0.722  1.291  0.178 -0.077 -0.118 -0.172 -0.172
 0.724  1.291  0.178 -0.076 -0.117 -0.171 -0.171
 0.726  1.292  0.179 -0.075 -0.115 -0.170 -0.170
 0.728  1.293  0.179 -0.074 -0.114 -0.169 -0.169
 0.730  1.293  0.180 -0.073 -0.113 -0.168 -0.168
 0.732  1.294  0.180 -0.071 -0.112 -0.166 -0.166
 0.734  1.295  0.181 -0.070 -0.111 -0.165 -0.165
 0.736  1.295  0.181 -0.069 -0.110 -0.164 -0.164
 0.738  1.296  0.181 -0.067 -0.109 -0.163 -0.163
 0.740  1.296  0.181 -0.066 -0.109 -0.161 -0.161
 0.742  1.297  0.182 -0.064 -0.108 -0.160 -0.160
 0.744  1.297  0.182 -0.063 -0.107 -0.159 -0.159
 0.746  1.298  0.182 -0.061 -0.106 -0.158 -0.158
 0.748  1.298  0.182 -0.060 -0.106 -0.157 -0.157
 0.750  1.299  0.182 -0.058 -0.105 -0.156 -0.156
 0.752  1.299  0.182 -0.057 -0.104 -0.155 -0.155
 0.754  1.300  0.181 -0.055 -0.103 -0.154 -0.154
 0.756  1.300  0.181 -0.053 -0.103 -0.153 -0.153
 0.758  1.301  0.181 -0.052 -0.103 -0.152 -0.152
 0.760  1.301  0.180 -0.050 -0.102 -0.152 -0.152
 0.762  1.302  0.180 -0.048 -0.101 -0.151 -0.151
 0.764  1.302  0.180 -0.047 -0.101 -0.150 -0.150
 0.766  1.302  0.179 -0.045 -0.100 -0.150 -0.150
 0.768  1.303  0.178 -0.043 -0.100 -0.149 -0.149
 0.770  1.303  0.178 -0.041 -0.100 -0.149 -0.149
 0.772  1.303  0.177 -0.039 -0.099 -0.149 -0.149
 0.774  1.303  0.176 -0.037 -0.099 -0.148 -0.148
 0.776  1.303  0.175 -0.035 -0.098 -0.148 -0.148
 0.778  1.304  0.174 -0.033 -0.098 -0.148 -0.148
 0.780  1.304  0.173 -0.032 -0.098 -0.147 -0.147
 0.782  1.304  0.172 -0.030 -0.098 -0.147 -0.147
 0.784  1.304  0.171 -0.028 -0.097 -0.147 -0.147
 0.786  1.304  0.170 -0.026 -0.097 -0.147 -0.147
 0.788  1.304  0.169 -0.025 -0.097 -0.147 -0.147
 0.790  1.304  0.167 -0.024 -0.098 -0.147 -0.147
 0.792  1.304  0.166 -0.023 -0.098 -0.147 -0.147
 0.794  1.304  0.165 -0.022 -0.098 -0.147 -0.147
 0.796  1.304  0.163 -0.022 -0.099 -0.147 -0.147
 0.798  1.304  0.162 -0.022 -0.100 -0.147 -0.147
 0.800  1.304  0.160 -0.022 -0.101 -0.148 -0.148
 0.802  1.304  0.159 -0.022 -0.102 -0.148 -0.148
 0.804  1.304  0.157 -0.023 -0.103 -0.149 -0.149
 0.806  1.304  0.155 -0.024 -0.104 -0.149 -0.149
 0.808  1.303  0.153 -0.024 -0.106 -0.149 -0.149
