# IsPeriodic    : True
# Period        : 0.531024 days
# Normalization : <g_mag>=0
# 
# Phase u_mag  g_mag  r_mag  i_mag  z_mag  y_mag
 0.000  0.356 -0.822 -0.699 -0.598 -0.523 -0.523
 0.002  0.356 -0.822 -0.699 -0.598 -0.523 -0.523
 0.004  0.356 -0.821 -0.699 -0.598 -0.523 -0.523
 0.006  0.358 -0.820 -0.698 -0.596 -0.521 -0.521
 0.008  0.359 -0.817 -0.697 -0.595 -0.521 -0.521
 0.010  0.361 -0.815 -0.696 -0.593 -0.520 -0.520
 0.012  0.362 -0.811 -0.694 -0.590 -0.518 -0.518
 0.014  0.365 -0.808 -0.692 -0.587 -0.516 -0.516
 0.016  0.367 -0.804 -0.690 -0.584 -0.514 -0.514
 0.018  0.371 -0.799 -0.688 -0.581 -0.513 -0.513
 0.020  0.375 -0.794 -0.686 -0.577 -0.511 -0.511
 0.022  0.377 -0.789 -0.684 -0.574 -0.509 -0.509
 0.024  0.381 -0.785 -0.681 -0.570 -0.507 -0.507
 0.026  0.385 -0.780 -0.678 -0.567 -0.505 -0.505
 0.028  0.389 -0.775 -0.676 -0.563 -0.503 -0.503
 0.030  0.393 -0.769 -0.673 -0.560 -0.501 -0.501
 0.032  0.397 -0.764 -0.669 -0.557 -0.499 -0.499
 0.034  0.402 -0.759 -0.666 -0.553 -0.497 -0.497
 0.036  0.407 -0.753 -0.663 -0.551 -0.495 -0.495
 0.038  0.412 -0.748 -0.659 -0.547 -0.492 -0.492
 0.040  0.417 -0.742 -0.656 -0.544 -0.491 -0.491
 0.042  0.423 -0.736 -0.652 -0.541 -0.489 -0.489
 0.044  0.429 -0.730 -0.648 -0.537 -0.486 -0.486
 0.046  0.435 -0.724 -0.645 -0.535 -0.483 -0.483
 0.048  0.441 -0.718 -0.640 -0.531 -0.482 -0.482
 0.050  0.447 -0.712 -0.636 -0.528 -0.479 -0.479
 0.052  0.454 -0.705 -0.631 -0.524 -0.476 -0.476
 0.054  0.461 -0.698 -0.626 -0.521 -0.474 -0.474
 0.056  0.469 -0.691 -0.621 -0.517 -0.471 -0.471
 0.058  0.476 -0.683 -0.617 -0.514 -0.468 -0.468
 0.060  0.483 -0.676 -0.611 -0.510 -0.465 -0.465
 0.062  0.492 -0.668 -0.606 -0.506 -0.462 -0.462
 0.064  0.500 -0.660 -0.600 -0.502 -0.460 -0.460
 0.066  0.507 -0.652 -0.595 -0.499 -0.456 -0.456
 0.068  0.517 -0.644 -0.589 -0.495 -0.453 -0.453
 0.070  0.525 -0.635 -0.583 -0.491 -0.451 -0.451
 0.072  0.534 -0.627 -0.577 -0.488 -0.447 -0.447
 0.074  0.544 -0.618 -0.571 -0.484 -0.444 -0.444
 0.076  0.552 -0.610 -0.566 -0.480 -0.441 -0.441
 0.078  0.562 -0.601 -0.559 -0.476 -0.438 -0.438
 0.080  0.570 -0.593 -0.554 -0.473 -0.435 -0.435
 0.082  0.580 -0.584 -0.547 -0.469 -0.432 -0.432
 0.084  0.588 -0.576 -0.541 -0.465 -0.429 -0.429
 0.086  0.597 -0.568 -0.536 -0.462 -0.425 -0.425
 0.088  0.605 -0.559 -0.530 -0.458 -0.423 -0.423
 0.090  0.614 -0.551 -0.525 -0.455 -0.420 -0.420
 0.092  0.622 -0.542 -0.519 -0.451 -0.416 -0.416
 0.094  0.631 -0.534 -0.514 -0.447 -0.414 -0.414
 0.096  0.638 -0.527 -0.508 -0.444 -0.411 -0.411
 0.098  0.646 -0.518 -0.503 -0.440 -0.408 -0.408
 0.100  0.654 -0.511 -0.497 -0.437 -0.406 -0.406
 0.102  0.661 -0.502 -0.493 -0.433 -0.403 -0.403
 0.104  0.668 -0.495 -0.487 -0.430 -0.400 -0.400
 0.106  0.675 -0.488 -0.483 -0.426 -0.398 -0.398
 0.108  0.682 -0.481 -0.478 -0.423 -0.395 -0.395
 0.110  0.690 -0.473 -0.473 -0.420 -0.393 -0.393
 0.112  0.697 -0.466 -0.468 -0.416 -0.390 -0.390
 0.114  0.703 -0.460 -0.464 -0.413 -0.388 -0.388
 0.116  0.710 -0.453 -0.459 -0.410 -0.386 -0.386
 0.118  0.716 -0.447 -0.455 -0.407 -0.383 -0.383
 0.120  0.724 -0.440 -0.450 -0.404 -0.381 -0.381
 0.122  0.730 -0.434 -0.446 -0.401 -0.378 -0.378
 0.124  0.736 -0.428 -0.441 -0.398 -0.377 -0.377
 0.126  0.742 -0.422 -0.438 -0.394 -0.374 -0.374
 0.128  0.748 -0.416 -0.433 -0.392 -0.372 -0.372
 0.130  0.754 -0.410 -0.429 -0.389 -0.370 -0.370
 0.132  0.759 -0.404 -0.426 -0.386 -0.368 -0.368
 0.134  0.765 -0.397 -0.422 -0.383 -0.366 -0.366
 0.136  0.769 -0.393 -0.418 -0.380 -0.364 -0.364
 0.138  0.775 -0.387 -0.414 -0.378 -0.362 -0.362
 0.140  0.780 -0.382 -0.410 -0.375 -0.360 -0.360
 0.142  0.785 -0.377 -0.408 -0.372 -0.358 -0.358
 0.144  0.790 -0.371 -0.404 -0.369 -0.357 -0.357
 0.146  0.795 -0.366 -0.400 -0.366 -0.355 -0.355
 0.148  0.800 -0.361 -0.397 -0.364 -0.353 -0.353
 0.150  0.804 -0.356 -0.393 -0.362 -0.351 -0.351
 0.152  0.809 -0.352 -0.390 -0.359 -0.350 -0.350
 0.154  0.814 -0.347 -0.387 -0.357 -0.348 -0.348
 0.156  0.819 -0.342 -0.383 -0.354 -0.346 -0.346
 0.158  0.824 -0.337 -0.380 -0.352 -0.345 -0.345
 0.160  0.829 -0.334 -0.377 -0.349 -0.343 -0.343
 0.162  0.832 -0.329 -0.373 -0.347 -0.342 -0.342
 0.164  0.837 -0.324 -0.370 -0.345 -0.340 -0.340
 0.166  0.842 -0.319 -0.367 -0.342 -0.338 -0.338
 0.168  0.847 -0.314 -0.364 -0.340 -0.337 -0.337
 0.170  0.852 -0.309 -0.360 -0.338 -0.335 -0.335
 0.172  0.856 -0.305 -0.357 -0.335 -0.333 -0.333
 0.174  0.861 -0.300 -0.354 -0.333 -0.331 -0.331
 0.176  0.865 -0.295 -0.350 -0.331 -0.329 -0.329
 0.178  0.870 -0.290 -0.348 -0.328 -0.328 -0.328
 0.180  0.875 -0.285 -0.344 -0.326 -0.326 -0.326
 0.182  0.879 -0.281 -0.340 -0.324 -0.325 -0.325
 0.184  0.884 -0.276 -0.338 -0.322 -0.323 -0.323
 0.186  0.889 -0.271 -0.334 -0.320 -0.321 -0.321
 0.188  0.894 -0.265 -0.331 -0.317 -0.320 -0.320
 0.190  0.897 -0.260 -0.328 -0.315 -0.318 -0.318
 0.192  0.902 -0.255 -0.325 -0.313 -0.317 -0.317
 0.194  0.907 -0.250 -0.321 -0.310 -0.315 -0.315
 0.196  0.912 -0.246 -0.318 -0.308 -0.313 -0.313
 0.198  0.917 -0.241 -0.316 -0.306 -0.311 -0.311
 0.200  0.922 -0.236 -0.312 -0.304 -0.309 -0.309
 0.202  0.925 -0.231 -0.309 -0.302 -0.308 -0.308
 0.204  0.930 -0.226 -0.306 -0.300 -0.306 -0.306
 0.206  0.935 -0.220 -0.303 -0.298 -0.304 -0.304
 0.208  0.940 -0.215 -0.300 -0.296 -0.303 -0.303
 0.210  0.943 -0.211 -0.297 -0.294 -0.301 -0.301
 0.212  0.948 -0.206 -0.294 -0.292 -0.300 -0.300
 0.214  0.953 -0.200 -0.290 -0.290 -0.298 -0.298
 0.216  0.958 -0.195 -0.288 -0.288 -0.296 -0.296
 0.218  0.963 -0.190 -0.285 -0.286 -0.295 -0.295
 0.220  0.966 -0.185 -0.281 -0.284 -0.293 -0.293
 0.222  0.971 -0.179 -0.279 -0.282 -0.291 -0.291
 0.224  0.976 -0.174 -0.276 -0.280 -0.290 -0.290
 0.226  0.980 -0.170 -0.273 -0.278 -0.288 -0.288
 0.228  0.984 -0.165 -0.269 -0.277 -0.286 -0.286
 0.230  0.989 -0.160 -0.267 -0.275 -0.284 -0.284
 0.232  0.993 -0.155 -0.264 -0.273 -0.283 -0.283
 0.234  0.998 -0.150 -0.261 -0.271 -0.281 -0.281
 0.236  1.001 -0.145 -0.259 -0.269 -0.280 -0.280
 0.238  1.006 -0.141 -0.256 -0.267 -0.278 -0.278
 0.240  1.010 -0.136 -0.253 -0.266 -0.277 -0.277
 0.242  1.015 -0.131 -0.249 -0.264 -0.275 -0.275
 0.244  1.018 -0.126 -0.247 -0.261 -0.273 -0.273
 0.246  1.022 -0.121 -0.244 -0.260 -0.271 -0.271
 0.248  1.027 -0.118 -0.241 -0.258 -0.270 -0.270
 0.250  1.030 -0.113 -0.239 -0.256 -0.268 -0.268
 0.252  1.034 -0.108 -0.236 -0.254 -0.266 -0.266
 0.254  1.039 -0.104 -0.233 -0.252 -0.265 -0.265
 0.256  1.042 -0.100 -0.231 -0.251 -0.263 -0.263
 0.258  1.046 -0.095 -0.229 -0.249 -0.262 -0.262
 0.260  1.050 -0.091 -0.226 -0.247 -0.260 -0.260
 0.262  1.053 -0.086 -0.223 -0.245 -0.259 -0.259
 0.264  1.058 -0.083 -0.220 -0.243 -0.257 -0.257
 0.266  1.062 -0.079 -0.218 -0.241 -0.255 -0.255
 0.268  1.065 -0.074 -0.215 -0.240 -0.253 -0.253
 0.270  1.069 -0.071 -0.213 -0.238 -0.252 -0.252
 0.272  1.073 -0.067 -0.210 -0.236 -0.250 -0.250
 0.274  1.076 -0.062 -0.208 -0.234 -0.249 -0.249
 0.276  1.080 -0.059 -0.205 -0.233 -0.248 -0.248
 0.278  1.083 -0.055 -0.203 -0.231 -0.246 -0.246
 0.280  1.087 -0.051 -0.200 -0.229 -0.244 -0.244
 0.282  1.091 -0.048 -0.198 -0.227 -0.242 -0.242
 0.284  1.093 -0.044 -0.196 -0.225 -0.241 -0.241
 0.286  1.097 -0.041 -0.193 -0.224 -0.239 -0.239
 0.288  1.100 -0.037 -0.190 -0.222 -0.238 -0.238
 0.290  1.104 -0.033 -0.189 -0.220 -0.236 -0.236
 0.292  1.108 -0.030 -0.186 -0.218 -0.235 -0.235
 0.294  1.111 -0.026 -0.184 -0.217 -0.233 -0.233
 0.296  1.114 -0.022 -0.181 -0.215 -0.232 -0.232
 0.298  1.117 -0.019 -0.179 -0.212 -0.230 -0.230
 0.300  1.121 -0.015 -0.177 -0.211 -0.228 -0.228
 0.302  1.125 -0.012 -0.174 -0.209 -0.227 -0.227
 0.304  1.127 -0.009 -0.172 -0.208 -0.225 -0.225
 0.306  1.131 -0.006 -0.169 -0.205 -0.224 -0.224
 0.308  1.134 -0.002 -0.168 -0.204 -0.222 -0.222
 0.310  1.138  0.002 -0.165 -0.202 -0.221 -0.221
 0.312  1.140  0.005 -0.163 -0.201 -0.219 -0.219
 0.314  1.144  0.008 -0.160 -0.198 -0.217 -0.217
 0.316  1.147  0.011 -0.158 -0.196 -0.216 -0.216
 0.318  1.151  0.015 -0.156 -0.195 -0.214 -0.214
 0.320  1.154  0.019 -0.153 -0.193 -0.213 -0.213
 0.322  1.157  0.022 -0.151 -0.191 -0.212 -0.212
 0.324  1.161  0.026 -0.149 -0.189 -0.210 -0.210
 0.326  1.163  0.028 -0.146 -0.187 -0.208 -0.208
 0.328  1.167  0.032 -0.144 -0.186 -0.206 -0.206
 0.330  1.170  0.035 -0.141 -0.184 -0.205 -0.205
 0.332  1.174  0.039 -0.140 -0.182 -0.204 -0.204
 0.334  1.176  0.041 -0.137 -0.180 -0.202 -0.202
 0.336  1.180  0.045 -0.135 -0.178 -0.201 -0.201
 0.338  1.184  0.049 -0.132 -0.177 -0.199 -0.199
 0.340  1.186  0.052 -0.130 -0.175 -0.197 -0.197
 0.342  1.190  0.056 -0.128 -0.173 -0.196 -0.196
 0.344  1.192  0.058 -0.125 -0.171 -0.194 -0.194
 0.346  1.196  0.062 -0.123 -0.169 -0.193 -0.193
 0.348  1.199  0.066 -0.120 -0.168 -0.192 -0.192
 0.350  1.202  0.068 -0.119 -0.166 -0.190 -0.190
 0.352  1.205  0.072 -0.116 -0.163 -0.188 -0.188
 0.354  1.209  0.075 -0.114 -0.162 -0.186 -0.186
 0.356  1.212  0.079 -0.111 -0.160 -0.185 -0.185
 0.358  1.215  0.081 -0.109 -0.158 -0.184 -0.184
 0.360  1.218  0.085 -0.107 -0.156 -0.182 -0.182
 0.362  1.221  0.088 -0.104 -0.154 -0.181 -0.181
 0.364  1.225  0.091 -0.102 -0.152 -0.179 -0.179
 0.366  1.227  0.095 -0.100 -0.150 -0.177 -0.177
 0.368  1.231  0.098 -0.098 -0.149 -0.176 -0.176
 0.370  1.233  0.102 -0.095 -0.147 -0.174 -0.174
 0.372  1.237  0.104 -0.093 -0.145 -0.173 -0.173
 0.374  1.239  0.108 -0.090 -0.143 -0.172 -0.172
 0.376  1.243  0.111 -0.089 -0.141 -0.170 -0.170
 0.378  1.245  0.114 -0.086 -0.139 -0.168 -0.168
 0.380  1.249  0.117 -0.084 -0.138 -0.166 -0.166
 0.382  1.251  0.121 -0.081 -0.135 -0.165 -0.165
 0.384  1.255  0.125 -0.080 -0.134 -0.164 -0.164
 0.386  1.257  0.127 -0.077 -0.132 -0.162 -0.162
 0.388  1.261  0.131 -0.075 -0.130 -0.161 -0.161
 0.390  1.263  0.134 -0.072 -0.128 -0.159 -0.159
 0.392  1.267  0.138 -0.070 -0.126 -0.157 -0.157
 0.394  1.269  0.140 -0.068 -0.125 -0.155 -0.155
 0.396  1.273  0.144 -0.066 -0.123 -0.154 -0.154
 0.398  1.276  0.148 -0.063 -0.121 -0.152 -0.152
 0.400  1.279  0.150 -0.061 -0.119 -0.151 -0.151
 0.402  1.282  0.154 -0.059 -0.117 -0.150 -0.150
 0.404  1.285  0.157 -0.057 -0.116 -0.148 -0.148
 0.406  1.288  0.161 -0.054 -0.114 -0.146 -0.146
 0.408  1.290  0.163 -0.052 -0.112 -0.145 -0.145
 0.410  1.294  0.167 -0.050 -0.110 -0.143 -0.143
 0.412  1.296  0.170 -0.048 -0.109 -0.141 -0.141
 0.414  1.298  0.174 -0.045 -0.107 -0.139 -0.139
 0.416  1.302  0.177 -0.043 -0.105 -0.138 -0.138
 0.418  1.304  0.180 -0.041 -0.103 -0.136 -0.136
 0.420  1.308  0.184 -0.039 -0.102 -0.135 -0.135
 0.422  1.311  0.187 -0.037 -0.100 -0.133 -0.133
 0.424  1.313  0.191 -0.034 -0.098 -0.132 -0.132
 0.426  1.317  0.193 -0.032 -0.097 -0.130 -0.130
 0.428  1.319  0.197 -0.030 -0.095 -0.128 -0.128
 0.430  1.321  0.201 -0.028 -0.093 -0.126 -0.126
 0.432  1.324  0.204 -0.026 -0.092 -0.125 -0.125
 0.434  1.327  0.207 -0.023 -0.090 -0.123 -0.123
 0.436  1.330  0.210 -0.021 -0.089 -0.121 -0.121
 0.438  1.332  0.214 -0.019 -0.086 -0.120 -0.120
 0.440  1.335  0.218 -0.017 -0.085 -0.118 -0.118
 0.442  1.338  0.220 -0.015 -0.084 -0.117 -0.117
 0.444  1.341  0.224 -0.012 -0.082 -0.115 -0.115
 0.446  1.343  0.226 -0.010 -0.080 -0.114 -0.114
 0.448  1.346  0.230 -0.009 -0.079 -0.112 -0.112
 0.450  1.348  0.232 -0.007 -0.077 -0.110 -0.110
 0.452  1.350  0.236 -0.004 -0.075 -0.108 -0.108
 0.454  1.353  0.238 -0.002 -0.074 -0.107 -0.107
 0.456  1.355  0.240 -0.000 -0.072 -0.106 -0.106
 0.458  1.358  0.244  0.001 -0.070 -0.104 -0.104
 0.460  1.360  0.246  0.004 -0.069 -0.103 -0.103
 0.462  1.362  0.249  0.006 -0.067 -0.101 -0.101
 0.464  1.365  0.251  0.008 -0.065 -0.099 -0.099
 0.466  1.367  0.254  0.010 -0.064 -0.098 -0.098
 0.468  1.370  0.256  0.011 -0.063 -0.096 -0.096
 0.470  1.372  0.259  0.013 -0.061 -0.095 -0.095
 0.472  1.375  0.261  0.016 -0.059 -0.094 -0.094
 0.474  1.377  0.263  0.018 -0.058 -0.092 -0.092
 0.476  1.379  0.266  0.019 -0.056 -0.090 -0.090
 0.478  1.381  0.268  0.021 -0.054 -0.089 -0.089
 0.480  1.383  0.269  0.023 -0.053 -0.088 -0.088
 0.482  1.385  0.272  0.025 -0.051 -0.087 -0.087
 0.484  1.388  0.274  0.027 -0.049 -0.085 -0.085
 0.486  1.389  0.275  0.029 -0.048 -0.083 -0.083
 0.488  1.391  0.278  0.030 -0.047 -0.082 -0.082
 0.490  1.394  0.279  0.032 -0.044 -0.081 -0.081
 0.492  1.395  0.281  0.034 -0.043 -0.079 -0.079
 0.494  1.397  0.283  0.036 -0.042 -0.078 -0.078
 0.496  1.400  0.284  0.038 -0.040 -0.076 -0.076
 0.498  1.401  0.286  0.039 -0.038 -0.075 -0.075
 0.500  1.404  0.287  0.041 -0.037 -0.074 -0.074
 0.502  1.405  0.289  0.043 -0.035 -0.072 -0.072
 0.504  1.407  0.290  0.045 -0.033 -0.071 -0.071
 0.506  1.408  0.291  0.047 -0.032 -0.070 -0.070
 0.508  1.411  0.292  0.048 -0.030 -0.068 -0.068
 0.510  1.412  0.294  0.049 -0.029 -0.067 -0.067
 0.512  1.414  0.295  0.051 -0.028 -0.066 -0.066
 0.514  1.416  0.296  0.053 -0.026 -0.065 -0.065
 0.516  1.417  0.297  0.054 -0.024 -0.063 -0.063
 0.518  1.418  0.298  0.056 -0.023 -0.062 -0.062
 0.520  1.420  0.300  0.058 -0.021 -0.061 -0.061
 0.522  1.422  0.301  0.059 -0.020 -0.060 -0.060
 0.524  1.423  0.302  0.060 -0.019 -0.059 -0.059
 0.526  1.424  0.303  0.061 -0.018 -0.058 -0.058
 0.528  1.425  0.304  0.063 -0.016 -0.056 -0.056
 0.530  1.426  0.304  0.064 -0.015 -0.056 -0.056
 0.532  1.428  0.306  0.066 -0.014 -0.054 -0.054
 0.534  1.429  0.307  0.067 -0.013 -0.053 -0.053
 0.536  1.430  0.308  0.069 -0.011 -0.052 -0.052
 0.538  1.431  0.308  0.069 -0.011 -0.051 -0.051
 0.540  1.433  0.309  0.070 -0.010 -0.050 -0.050
 0.542  1.434  0.310  0.072 -0.009 -0.049 -0.049
 0.544  1.435  0.310  0.073 -0.008 -0.048 -0.048
 0.546  1.436  0.312  0.074 -0.007 -0.047 -0.047
 0.548  1.437  0.312  0.075 -0.006 -0.047 -0.047
 0.550  1.437  0.313  0.076 -0.005 -0.045 -0.045
 0.552  1.439  0.313  0.078 -0.004 -0.045 -0.045
 0.554  1.440  0.314  0.079 -0.004 -0.043 -0.043
 0.556  1.440  0.314  0.079 -0.003 -0.043 -0.043
 0.558  1.441  0.315  0.080 -0.002 -0.042 -0.042
 0.560  1.441  0.315  0.081 -0.002 -0.041 -0.041
 0.562  1.442  0.315  0.082 -0.002 -0.040 -0.040
 0.564  1.442  0.316  0.083 -0.001 -0.039 -0.039
 0.566  1.443  0.316  0.084 -0.000 -0.039 -0.039
 0.568  1.443  0.316  0.085  0.000 -0.038 -0.038
 0.570  1.445  0.318  0.085  0.000 -0.038 -0.038
 0.572  1.445  0.318  0.086  0.001 -0.036 -0.036
 0.574  1.445  0.318  0.087  0.001 -0.036 -0.036
 0.576  1.446  0.318  0.088  0.001 -0.035 -0.035
 0.578  1.446  0.318  0.088  0.002 -0.034 -0.034
 0.580  1.446  0.319  0.089  0.002 -0.034 -0.034
 0.582  1.446  0.319  0.089  0.002 -0.033 -0.033
 0.584  1.447  0.319  0.089  0.003 -0.032 -0.032
 0.586  1.447  0.319  0.090  0.003 -0.032 -0.032
 0.588  1.447  0.319  0.090  0.003 -0.031 -0.031
 0.590  1.447  0.319  0.091  0.003 -0.030 -0.030
 0.592  1.447  0.319  0.091  0.003 -0.030 -0.030
 0.594  1.448  0.319  0.092  0.003 -0.029 -0.029
 0.596  1.448  0.319  0.092  0.003 -0.029 -0.029
 0.598  1.448  0.319  0.093  0.004 -0.028 -0.028
 0.600  1.448  0.319  0.093  0.004 -0.027 -0.027
 0.602  1.448  0.319  0.093  0.004 -0.026 -0.026
 0.604  1.448  0.319  0.093  0.005 -0.025 -0.025
 0.606  1.448  0.319  0.094  0.005 -0.025 -0.025
 0.608  1.448  0.319  0.094  0.005 -0.024 -0.024
 0.610  1.448  0.319  0.094  0.005 -0.023 -0.023
 0.612  1.448  0.319  0.094  0.005 -0.023 -0.023
 0.614  1.448  0.319  0.094  0.005 -0.022 -0.022
 0.616  1.448  0.319  0.094  0.006 -0.021 -0.021
 0.618  1.448  0.319  0.094  0.006 -0.021 -0.021
 0.620  1.448  0.319  0.094  0.006 -0.019 -0.019
 0.622  1.448  0.319  0.094  0.007 -0.019 -0.019
 0.624  1.448  0.319  0.094  0.007 -0.018 -0.018
 0.626  1.447  0.319  0.094  0.007 -0.018 -0.018
 0.628  1.447  0.319  0.093  0.007 -0.017 -0.017
 0.630  1.447  0.319  0.093  0.007 -0.016 -0.016
 0.632  1.447  0.319  0.093  0.008 -0.016 -0.016
 0.634  1.447  0.318  0.092  0.008 -0.015 -0.015
 0.636  1.446  0.318  0.092  0.009 -0.014 -0.014
 0.638  1.446  0.318  0.092  0.009 -0.013 -0.013
 0.640  1.446  0.318  0.091  0.009 -0.012 -0.012
 0.642  1.446  0.318  0.091  0.010 -0.012 -0.012
 0.644  1.445  0.318  0.090  0.010 -0.011 -0.011
 0.646  1.445  0.316  0.090  0.010 -0.010 -0.010
 0.648  1.445  0.316  0.089  0.010 -0.009 -0.009
 0.650  1.443  0.316  0.089  0.011 -0.009 -0.009
 0.652  1.443  0.316  0.089  0.011 -0.008 -0.008
 0.654  1.443  0.315  0.089  0.012 -0.007 -0.007
 0.656  1.443  0.315  0.088  0.012 -0.007 -0.007
 0.658  1.442  0.315  0.088  0.012 -0.006 -0.006
 0.660  1.442  0.315  0.088  0.012 -0.005 -0.005
 0.662  1.442  0.314  0.087  0.012 -0.005 -0.005
 0.664  1.441  0.314  0.087  0.013 -0.005 -0.005
 0.666  1.441  0.314  0.086  0.013 -0.004 -0.004
 0.668  1.441  0.313  0.086  0.013 -0.003 -0.003
 0.670  1.440  0.313  0.085  0.014 -0.003 -0.003
 0.672  1.440  0.313  0.085  0.014 -0.003 -0.003
 0.674  1.440  0.312  0.085  0.014 -0.002 -0.002
 0.676  1.439  0.312  0.084  0.014 -0.001 -0.001
 0.678  1.439  0.312  0.084  0.014 -0.001 -0.001
 0.680  1.439  0.310  0.084  0.014 -0.001 -0.001
 0.682  1.439  0.310  0.083  0.014 -0.001 -0.001
 0.684  1.437  0.309  0.083  0.014 -0.000 -0.000
 0.686  1.437  0.309  0.083  0.014 -0.000 -0.000
 0.688  1.437  0.309  0.083  0.014  0.000  0.000
 0.690  1.436  0.308  0.082  0.014  0.000  0.000
 0.692  1.436  0.308  0.082  0.014  0.000  0.000
 0.694  1.436  0.307  0.082  0.013  0.001  0.001
 0.696  1.435  0.307  0.082  0.013  0.001  0.001
 0.698  1.435  0.306  0.082  0.013  0.001  0.001
 0.700  1.435  0.306  0.081  0.013  0.001  0.001
 0.702  1.434  0.304  0.081  0.013  0.001  0.001
 0.704  1.434  0.304  0.081  0.012  0.002  0.002
 0.706  1.434  0.303  0.081  0.012  0.002  0.002
 0.708  1.434  0.303  0.081  0.012  0.002  0.002
 0.710  1.433  0.302  0.081  0.012  0.002  0.002
 0.712  1.433  0.302  0.081  0.011  0.002  0.002
 0.714  1.433  0.301  0.080  0.011  0.001  0.001
 0.716  1.431  0.301  0.080  0.010  0.001  0.001
 0.718  1.431  0.300  0.080  0.010  0.001  0.001
 0.720  1.431  0.298  0.080  0.009  0.001  0.001
 0.722  1.431  0.298  0.080  0.009  0.001  0.001
 0.724  1.430  0.297  0.080  0.008  0.001  0.001
 0.726  1.430  0.297  0.080  0.008  0.002  0.002
 0.728  1.430  0.296  0.080  0.007  0.002  0.002
 0.730  1.430  0.296  0.080  0.007  0.002  0.002
 0.732  1.429  0.296  0.080  0.007  0.002  0.002
 0.734  1.429  0.296  0.080  0.007  0.003  0.003
 0.736  1.429  0.295  0.080  0.007  0.004  0.004
 0.738  1.429  0.295  0.080  0.007  0.004  0.004
 0.740  1.428  0.295  0.080  0.007  0.005  0.005
 0.742  1.428  0.295  0.079  0.008  0.006  0.006
 0.744  1.428  0.295  0.079  0.009  0.007  0.007
 0.746  1.428  0.295  0.079  0.009  0.008  0.008
 0.748  1.428  0.295  0.079  0.010  0.010  0.010
 0.750  1.428  0.296  0.079  0.010  0.011  0.011
 0.752  1.426  0.296  0.079  0.012  0.012  0.012
 0.754  1.426  0.296  0.079  0.012  0.013  0.013
 0.756  1.426  0.296  0.079  0.014  0.015  0.015
 0.758  1.426  0.297  0.079  0.014  0.017  0.017
 0.760  1.426  0.297  0.079  0.016  0.018  0.018
 0.762  1.426  0.298  0.079  0.017  0.020  0.020
 0.764  1.426  0.298  0.079  0.019  0.022  0.022
 0.766  1.426  0.300  0.079  0.021  0.024  0.024
 0.768  1.426  0.301  0.079  0.022  0.026  0.026
 0.770  1.426  0.301  0.079  0.024  0.028  0.028
 0.772  1.426  0.302  0.079  0.026  0.030  0.030
 0.774  1.426  0.303  0.079  0.028  0.033  0.033
 0.776  1.425  0.304  0.079  0.031  0.035  0.035
 0.778  1.425  0.306  0.079  0.033  0.038  0.038
 0.780  1.425  0.307  0.079  0.035  0.040  0.040
 0.782  1.425  0.308  0.079  0.038  0.043  0.043
 0.784  1.425  0.309  0.079  0.041  0.046  0.046
 0.786  1.425  0.312  0.079  0.044  0.049  0.049
 0.788  1.425  0.313  0.079  0.047  0.051  0.051
 0.790  1.426  0.314  0.079  0.049  0.055  0.055
 0.792  1.426  0.315  0.079  0.052  0.057  0.057
 0.794  1.428  0.318  0.080  0.056  0.060  0.060
 0.796  1.428  0.319  0.081  0.059  0.063  0.063
 0.798  1.429  0.320  0.081  0.061  0.066  0.066
 0.800  1.430  0.322  0.083  0.065  0.069  0.069
 0.802  1.431  0.324  0.084  0.068  0.071  0.071
 0.804  1.433  0.325  0.085  0.070  0.074  0.074
 0.806  1.434  0.327  0.087  0.073  0.077  0.077
 0.808  1.436  0.328  0.088  0.076  0.079  0.079
