# IsPeriodic    : True
# Period        : 0.617989 days
# Normalization : <g_mag>=0
# 
# Phase u_mag  g_mag  r_mag  i_mag  z_mag  y_mag
 0.000  0.833 -0.386 -0.379 -0.414 -0.418 -0.418
 0.002  0.833 -0.386 -0.379 -0.414 -0.418 -0.418
 0.004  0.834 -0.385 -0.379 -0.414 -0.418 -0.418
 0.006  0.835 -0.385 -0.379 -0.413 -0.418 -0.418
 0.008  0.835 -0.383 -0.379 -0.413 -0.418 -0.418
 0.010  0.836 -0.382 -0.378 -0.413 -0.417 -0.417
 0.012  0.837 -0.380 -0.378 -0.412 -0.417 -0.417
 0.014  0.838 -0.379 -0.378 -0.412 -0.416 -0.416
 0.016  0.840 -0.377 -0.377 -0.411 -0.416 -0.416
 0.018  0.841 -0.375 -0.376 -0.410 -0.415 -0.415
 0.020  0.843 -0.373 -0.376 -0.410 -0.414 -0.414
 0.022  0.844 -0.370 -0.375 -0.409 -0.413 -0.413
 0.024  0.846 -0.368 -0.375 -0.408 -0.412 -0.412
 0.026  0.848 -0.365 -0.374 -0.408 -0.412 -0.412
 0.028  0.850 -0.363 -0.373 -0.407 -0.411 -0.411
 0.030  0.852 -0.360 -0.372 -0.406 -0.410 -0.410
 0.032  0.854 -0.357 -0.371 -0.405 -0.409 -0.409
 0.034  0.855 -0.355 -0.370 -0.405 -0.408 -0.408
 0.036  0.857 -0.352 -0.369 -0.404 -0.407 -0.407
 0.038  0.860 -0.350 -0.368 -0.403 -0.407 -0.407
 0.040  0.862 -0.347 -0.367 -0.402 -0.406 -0.406
 0.042  0.864 -0.344 -0.366 -0.401 -0.405 -0.405
 0.044  0.866 -0.341 -0.364 -0.400 -0.404 -0.404
 0.046  0.868 -0.339 -0.363 -0.400 -0.403 -0.403
 0.048  0.870 -0.336 -0.361 -0.399 -0.402 -0.402
 0.050  0.872 -0.333 -0.360 -0.398 -0.401 -0.401
 0.052  0.874 -0.330 -0.358 -0.397 -0.400 -0.400
 0.054  0.877 -0.327 -0.356 -0.396 -0.400 -0.400
 0.056  0.879 -0.324 -0.355 -0.395 -0.399 -0.399
 0.058  0.881 -0.321 -0.353 -0.395 -0.398 -0.398
 0.060  0.883 -0.318 -0.351 -0.394 -0.397 -0.397
 0.062  0.886 -0.315 -0.349 -0.393 -0.397 -0.397
 0.064  0.889 -0.311 -0.347 -0.392 -0.396 -0.396
 0.066  0.891 -0.308 -0.345 -0.391 -0.395 -0.395
 0.068  0.894 -0.305 -0.344 -0.390 -0.394 -0.394
 0.070  0.897 -0.302 -0.342 -0.389 -0.393 -0.393
 0.072  0.899 -0.299 -0.340 -0.388 -0.393 -0.393
 0.074  0.902 -0.296 -0.338 -0.387 -0.392 -0.392
 0.076  0.905 -0.292 -0.337 -0.386 -0.391 -0.391
 0.078  0.907 -0.289 -0.335 -0.385 -0.390 -0.390
 0.080  0.910 -0.285 -0.333 -0.384 -0.389 -0.389
 0.082  0.913 -0.282 -0.332 -0.383 -0.389 -0.389
 0.084  0.916 -0.279 -0.330 -0.382 -0.388 -0.388
 0.086  0.919 -0.275 -0.328 -0.381 -0.387 -0.387
 0.088  0.922 -0.271 -0.327 -0.380 -0.387 -0.387
 0.090  0.925 -0.268 -0.325 -0.379 -0.386 -0.386
 0.092  0.927 -0.265 -0.324 -0.378 -0.385 -0.385
 0.094  0.930 -0.261 -0.322 -0.377 -0.384 -0.384
 0.096  0.933 -0.258 -0.321 -0.376 -0.383 -0.383
 0.098  0.936 -0.255 -0.319 -0.375 -0.383 -0.383
 0.100  0.939 -0.251 -0.318 -0.374 -0.382 -0.382
 0.102  0.942 -0.248 -0.317 -0.372 -0.381 -0.381
 0.104  0.944 -0.244 -0.315 -0.371 -0.381 -0.381
 0.106  0.948 -0.241 -0.314 -0.371 -0.380 -0.380
 0.108  0.950 -0.238 -0.313 -0.369 -0.379 -0.379
 0.110  0.953 -0.235 -0.312 -0.368 -0.378 -0.378
 0.112  0.955 -0.232 -0.310 -0.367 -0.378 -0.378
 0.114  0.958 -0.229 -0.309 -0.366 -0.377 -0.377
 0.116  0.961 -0.225 -0.308 -0.365 -0.376 -0.376
 0.118  0.963 -0.222 -0.307 -0.364 -0.376 -0.376
 0.120  0.966 -0.219 -0.306 -0.363 -0.375 -0.375
 0.122  0.968 -0.216 -0.305 -0.362 -0.374 -0.374
 0.124  0.970 -0.213 -0.304 -0.361 -0.374 -0.374
 0.126  0.973 -0.210 -0.303 -0.360 -0.373 -0.373
 0.128  0.976 -0.207 -0.302 -0.359 -0.372 -0.372
 0.130  0.978 -0.205 -0.301 -0.358 -0.371 -0.371
 0.132  0.980 -0.202 -0.300 -0.357 -0.371 -0.371
 0.134  0.983 -0.199 -0.299 -0.356 -0.370 -0.370
 0.136  0.985 -0.196 -0.298 -0.355 -0.369 -0.369
 0.138  0.988 -0.193 -0.297 -0.354 -0.369 -0.369
 0.140  0.990 -0.191 -0.296 -0.354 -0.368 -0.368
 0.142  0.992 -0.189 -0.295 -0.352 -0.368 -0.368
 0.144  0.994 -0.186 -0.294 -0.351 -0.367 -0.367
 0.146  0.997 -0.183 -0.293 -0.350 -0.366 -0.366
 0.148  0.999 -0.181 -0.292 -0.350 -0.366 -0.366
 0.150  1.001 -0.178 -0.291 -0.349 -0.365 -0.365
 0.152  1.003 -0.176 -0.290 -0.348 -0.364 -0.364
 0.154  1.005 -0.173 -0.289 -0.346 -0.364 -0.364
 0.156  1.007 -0.171 -0.288 -0.345 -0.363 -0.363
 0.158  1.009 -0.169 -0.287 -0.345 -0.362 -0.362
 0.160  1.011 -0.166 -0.286 -0.344 -0.362 -0.362
 0.162  1.013 -0.164 -0.285 -0.343 -0.361 -0.361
 0.164  1.015 -0.162 -0.284 -0.342 -0.361 -0.361
 0.166  1.017 -0.160 -0.283 -0.341 -0.360 -0.360
 0.168  1.019 -0.157 -0.282 -0.340 -0.359 -0.359
 0.170  1.022 -0.155 -0.281 -0.339 -0.359 -0.359
 0.172  1.024 -0.152 -0.280 -0.338 -0.358 -0.358
 0.174  1.026 -0.150 -0.279 -0.337 -0.357 -0.357
 0.176  1.028 -0.147 -0.278 -0.336 -0.357 -0.357
 0.178  1.030 -0.145 -0.277 -0.335 -0.356 -0.356
 0.180  1.032 -0.143 -0.275 -0.334 -0.356 -0.356
 0.182  1.035 -0.140 -0.274 -0.333 -0.355 -0.355
 0.184  1.037 -0.138 -0.273 -0.333 -0.354 -0.354
 0.186  1.039 -0.135 -0.272 -0.332 -0.354 -0.354
 0.188  1.041 -0.133 -0.271 -0.331 -0.353 -0.353
 0.190  1.043 -0.130 -0.270 -0.330 -0.352 -0.352
 0.192  1.046 -0.128 -0.268 -0.329 -0.352 -0.352
 0.194  1.048 -0.126 -0.267 -0.328 -0.351 -0.351
 0.196  1.050 -0.123 -0.266 -0.327 -0.351 -0.351
 0.198  1.052 -0.120 -0.265 -0.326 -0.350 -0.350
 0.200  1.054 -0.118 -0.264 -0.325 -0.349 -0.349
 0.202  1.057 -0.115 -0.263 -0.324 -0.349 -0.349
 0.204  1.059 -0.112 -0.261 -0.323 -0.348 -0.348
 0.206  1.061 -0.110 -0.260 -0.322 -0.348 -0.348
 0.208  1.064 -0.107 -0.259 -0.321 -0.347 -0.347
 0.210  1.066 -0.104 -0.258 -0.320 -0.347 -0.347
 0.212  1.068 -0.101 -0.257 -0.320 -0.346 -0.346
 0.214  1.071 -0.099 -0.255 -0.319 -0.345 -0.345
 0.216  1.073 -0.096 -0.254 -0.318 -0.345 -0.345
 0.218  1.076 -0.094 -0.253 -0.317 -0.344 -0.344
 0.220  1.078 -0.091 -0.252 -0.316 -0.343 -0.343
 0.222  1.080 -0.087 -0.251 -0.316 -0.343 -0.343
 0.224  1.083 -0.085 -0.249 -0.315 -0.342 -0.342
 0.226  1.085 -0.082 -0.248 -0.314 -0.342 -0.342
 0.228  1.088 -0.079 -0.247 -0.313 -0.341 -0.341
 0.230  1.090 -0.077 -0.246 -0.312 -0.340 -0.340
 0.232  1.093 -0.074 -0.245 -0.311 -0.340 -0.340
 0.234  1.095 -0.071 -0.243 -0.310 -0.339 -0.339
 0.236  1.098 -0.068 -0.242 -0.309 -0.339 -0.339
 0.238  1.100 -0.065 -0.241 -0.308 -0.338 -0.338
 0.240  1.102 -0.062 -0.240 -0.308 -0.338 -0.338
 0.242  1.105 -0.059 -0.239 -0.307 -0.337 -0.337
 0.244  1.107 -0.057 -0.238 -0.306 -0.336 -0.336
 0.246  1.110 -0.054 -0.236 -0.305 -0.336 -0.336
 0.248  1.112 -0.051 -0.235 -0.304 -0.335 -0.335
 0.250  1.114 -0.048 -0.234 -0.303 -0.335 -0.335
 0.252  1.116 -0.046 -0.233 -0.303 -0.334 -0.334
 0.254  1.118 -0.043 -0.232 -0.302 -0.333 -0.333
 0.256  1.121 -0.040 -0.231 -0.301 -0.333 -0.333
 0.258  1.123 -0.038 -0.230 -0.300 -0.332 -0.332
 0.260  1.125 -0.035 -0.228 -0.299 -0.331 -0.331
 0.262  1.127 -0.033 -0.227 -0.299 -0.331 -0.331
 0.264  1.129 -0.031 -0.226 -0.298 -0.330 -0.330
 0.266  1.131 -0.028 -0.225 -0.297 -0.329 -0.329
 0.268  1.133 -0.026 -0.224 -0.296 -0.328 -0.328
 0.270  1.135 -0.023 -0.223 -0.295 -0.328 -0.328
 0.272  1.137 -0.021 -0.221 -0.294 -0.327 -0.327
 0.274  1.139 -0.018 -0.220 -0.294 -0.326 -0.326
 0.276  1.141 -0.016 -0.219 -0.293 -0.326 -0.326
 0.278  1.143 -0.014 -0.218 -0.292 -0.325 -0.325
 0.280  1.145 -0.012 -0.217 -0.291 -0.324 -0.324
 0.282  1.147 -0.009 -0.215 -0.290 -0.323 -0.323
 0.284  1.149 -0.007 -0.214 -0.289 -0.323 -0.323
 0.286  1.151 -0.005 -0.213 -0.289 -0.322 -0.322
 0.288  1.152 -0.003 -0.212 -0.288 -0.321 -0.321
 0.290  1.154 -0.001 -0.210 -0.287 -0.320 -0.320
 0.292  1.156  0.001 -0.209 -0.286 -0.319 -0.319
 0.294  1.158  0.003 -0.208 -0.285 -0.319 -0.319
 0.296  1.159  0.005 -0.207 -0.285 -0.318 -0.318
 0.298  1.161  0.007 -0.206 -0.284 -0.317 -0.317
 0.300  1.163  0.009 -0.204 -0.283 -0.316 -0.316
 0.302  1.164  0.011 -0.203 -0.282 -0.316 -0.316
 0.304  1.166  0.013 -0.202 -0.281 -0.315 -0.315
 0.306  1.167  0.015 -0.200 -0.280 -0.314 -0.314
 0.308  1.169  0.017 -0.199 -0.280 -0.313 -0.313
 0.310  1.171  0.019 -0.197 -0.279 -0.312 -0.312
 0.312  1.173  0.021 -0.196 -0.278 -0.311 -0.311
 0.314  1.174  0.023 -0.195 -0.277 -0.311 -0.311
 0.316  1.176  0.025 -0.194 -0.276 -0.310 -0.310
 0.318  1.177  0.026 -0.192 -0.275 -0.309 -0.309
 0.320  1.179  0.028 -0.191 -0.274 -0.308 -0.308
 0.322  1.180  0.031 -0.189 -0.273 -0.307 -0.307
 0.324  1.182  0.032 -0.188 -0.273 -0.306 -0.306
 0.326  1.184  0.034 -0.186 -0.272 -0.306 -0.306
 0.328  1.185  0.036 -0.185 -0.271 -0.305 -0.305
 0.330  1.187  0.038 -0.183 -0.270 -0.304 -0.304
 0.332  1.189  0.040 -0.182 -0.269 -0.303 -0.303
 0.334  1.190  0.042 -0.180 -0.268 -0.302 -0.302
 0.336  1.192  0.044 -0.179 -0.267 -0.302 -0.302
 0.338  1.193  0.046 -0.177 -0.266 -0.301 -0.301
 0.340  1.195  0.048 -0.176 -0.265 -0.300 -0.300
 0.342  1.197  0.050 -0.174 -0.265 -0.299 -0.299
 0.344  1.198  0.052 -0.172 -0.264 -0.299 -0.299
 0.346  1.200  0.054 -0.171 -0.263 -0.298 -0.298
 0.348  1.202  0.056 -0.169 -0.262 -0.297 -0.297
 0.350  1.203  0.058 -0.168 -0.261 -0.297 -0.297
 0.352  1.205  0.060 -0.166 -0.260 -0.296 -0.296
 0.354  1.206  0.061 -0.165 -0.259 -0.295 -0.295
 0.356  1.208  0.064 -0.163 -0.258 -0.294 -0.294
 0.358  1.210  0.066 -0.162 -0.257 -0.294 -0.294
 0.360  1.211  0.067 -0.160 -0.256 -0.293 -0.293
 0.362  1.213  0.070 -0.159 -0.255 -0.292 -0.292
 0.364  1.215  0.072 -0.158 -0.254 -0.292 -0.292
 0.366  1.216  0.074 -0.156 -0.253 -0.291 -0.291
 0.368  1.218  0.075 -0.155 -0.252 -0.290 -0.290
 0.370  1.220  0.078 -0.153 -0.251 -0.290 -0.290
 0.372  1.221  0.080 -0.152 -0.250 -0.289 -0.289
 0.374  1.223  0.081 -0.150 -0.249 -0.288 -0.288
 0.376  1.224  0.084 -0.149 -0.248 -0.288 -0.288
 0.378  1.226  0.086 -0.148 -0.247 -0.287 -0.287
 0.380  1.227  0.087 -0.147 -0.246 -0.287 -0.287
 0.382  1.229  0.090 -0.146 -0.245 -0.286 -0.286
 0.384  1.231  0.092 -0.144 -0.244 -0.285 -0.285
 0.386  1.233  0.094 -0.143 -0.243 -0.285 -0.285
 0.388  1.234  0.095 -0.142 -0.242 -0.284 -0.284
 0.390  1.236  0.097 -0.141 -0.241 -0.283 -0.283
 0.392  1.237  0.099 -0.140 -0.240 -0.283 -0.283
 0.394  1.238  0.101 -0.139 -0.240 -0.282 -0.282
 0.396  1.240  0.103 -0.138 -0.239 -0.281 -0.281
 0.398  1.241  0.104 -0.137 -0.238 -0.280 -0.280
 0.400  1.243  0.106 -0.136 -0.237 -0.280 -0.280
 0.402  1.245  0.107 -0.135 -0.236 -0.279 -0.279
 0.404  1.246  0.109 -0.133 -0.235 -0.278 -0.278
 0.406  1.248  0.111 -0.132 -0.234 -0.278 -0.278
 0.408  1.249  0.112 -0.132 -0.233 -0.277 -0.277
 0.410  1.251  0.114 -0.131 -0.232 -0.276 -0.276
 0.412  1.252  0.116 -0.130 -0.231 -0.275 -0.275
 0.414  1.253  0.117 -0.129 -0.231 -0.275 -0.275
 0.416  1.255  0.119 -0.128 -0.230 -0.274 -0.274
 0.418  1.257  0.120 -0.127 -0.229 -0.273 -0.273
 0.420  1.258  0.121 -0.126 -0.228 -0.272 -0.272
 0.422  1.259  0.123 -0.126 -0.227 -0.271 -0.271
 0.424  1.261  0.124 -0.125 -0.227 -0.271 -0.271
 0.426  1.262  0.126 -0.124 -0.226 -0.270 -0.270
 0.428  1.263  0.127 -0.123 -0.225 -0.269 -0.269
 0.430  1.265  0.129 -0.122 -0.224 -0.268 -0.268
 0.432  1.266  0.130 -0.121 -0.223 -0.268 -0.268
 0.434  1.267  0.131 -0.121 -0.223 -0.267 -0.267
 0.436  1.269  0.132 -0.120 -0.222 -0.266 -0.266
 0.438  1.270  0.133 -0.119 -0.221 -0.265 -0.265
 0.440  1.272  0.135 -0.118 -0.221 -0.264 -0.264
 0.442  1.273  0.136 -0.118 -0.220 -0.263 -0.263
 0.444  1.274  0.137 -0.117 -0.219 -0.262 -0.262
 0.446  1.276  0.138 -0.116 -0.218 -0.261 -0.261
 0.448  1.277  0.139 -0.115 -0.218 -0.261 -0.261
 0.450  1.278  0.140 -0.114 -0.217 -0.260 -0.260
 0.452  1.279  0.141 -0.113 -0.216 -0.259 -0.259
 0.454  1.280  0.143 -0.113 -0.216 -0.258 -0.258
 0.456  1.282  0.144 -0.112 -0.215 -0.257 -0.257
 0.458  1.283  0.144 -0.111 -0.214 -0.256 -0.256
 0.460  1.284  0.146 -0.110 -0.214 -0.255 -0.255
 0.462  1.285  0.147 -0.109 -0.213 -0.254 -0.254
 0.464  1.286  0.148 -0.109 -0.212 -0.254 -0.254
 0.466  1.287  0.149 -0.108 -0.211 -0.253 -0.253
 0.468  1.288  0.150 -0.107 -0.211 -0.252 -0.252
 0.470  1.289  0.151 -0.106 -0.210 -0.251 -0.251
 0.472  1.290  0.152 -0.105 -0.209 -0.250 -0.250
 0.474  1.291  0.153 -0.105 -0.209 -0.250 -0.250
 0.476  1.292  0.154 -0.104 -0.208 -0.249 -0.249
 0.478  1.293  0.155 -0.103 -0.207 -0.248 -0.248
 0.480  1.295  0.156 -0.102 -0.207 -0.247 -0.247
 0.482  1.295  0.157 -0.101 -0.206 -0.247 -0.247
 0.484  1.296  0.158 -0.101 -0.205 -0.246 -0.246
 0.486  1.297  0.159 -0.100 -0.205 -0.245 -0.245
 0.488  1.298  0.160 -0.099 -0.204 -0.245 -0.245
 0.490  1.299  0.161 -0.098 -0.203 -0.244 -0.244
 0.492  1.299  0.163 -0.097 -0.202 -0.244 -0.244
 0.494  1.300  0.163 -0.097 -0.202 -0.243 -0.243
 0.496  1.301  0.164 -0.096 -0.201 -0.242 -0.242
 0.498  1.301  0.166 -0.095 -0.201 -0.242 -0.242
 0.500  1.302  0.166 -0.095 -0.200 -0.241 -0.241
 0.502  1.303  0.167 -0.094 -0.199 -0.241 -0.241
 0.504  1.303  0.169 -0.093 -0.198 -0.240 -0.240
 0.506  1.304  0.169 -0.093 -0.198 -0.240 -0.240
 0.508  1.304  0.170 -0.092 -0.197 -0.239 -0.239
 0.510  1.305  0.172 -0.091 -0.197 -0.238 -0.238
 0.512  1.305  0.172 -0.090 -0.196 -0.238 -0.238
 0.514  1.306  0.173 -0.090 -0.195 -0.238 -0.238
 0.516  1.307  0.175 -0.089 -0.195 -0.237 -0.237
 0.518  1.307  0.175 -0.089 -0.194 -0.237 -0.237
 0.520  1.308  0.176 -0.088 -0.193 -0.236 -0.236
 0.522  1.308  0.177 -0.088 -0.193 -0.236 -0.236
 0.524  1.309  0.178 -0.087 -0.192 -0.236 -0.236
 0.526  1.309  0.179 -0.087 -0.192 -0.235 -0.235
 0.528  1.309  0.180 -0.086 -0.191 -0.235 -0.235
 0.530  1.310  0.181 -0.086 -0.190 -0.234 -0.234
 0.532  1.310  0.181 -0.085 -0.190 -0.234 -0.234
 0.534  1.311  0.182 -0.085 -0.189 -0.233 -0.233
 0.536  1.311  0.182 -0.084 -0.189 -0.233 -0.233
 0.538  1.312  0.183 -0.084 -0.188 -0.233 -0.233
 0.540  1.312  0.184 -0.084 -0.188 -0.232 -0.232
 0.542  1.312  0.184 -0.083 -0.187 -0.232 -0.232
 0.544  1.313  0.185 -0.083 -0.187 -0.232 -0.232
 0.546  1.313  0.185 -0.083 -0.186 -0.231 -0.231
 0.548  1.314  0.186 -0.082 -0.186 -0.231 -0.231
 0.550  1.314  0.186 -0.082 -0.185 -0.230 -0.230
 0.552  1.314  0.186 -0.082 -0.185 -0.230 -0.230
 0.554  1.315  0.186 -0.081 -0.185 -0.230 -0.230
 0.556  1.315  0.187 -0.081 -0.184 -0.229 -0.229
 0.558  1.316  0.187 -0.081 -0.184 -0.229 -0.229
 0.560  1.316  0.187 -0.081 -0.183 -0.228 -0.228
 0.562  1.316  0.187 -0.081 -0.183 -0.228 -0.228
 0.564  1.317  0.187 -0.080 -0.183 -0.227 -0.227
 0.566  1.317  0.187 -0.080 -0.182 -0.227 -0.227
 0.568  1.317  0.187 -0.080 -0.182 -0.226 -0.226
 0.570  1.318  0.187 -0.079 -0.181 -0.226 -0.226
 0.572  1.318  0.187 -0.079 -0.181 -0.226 -0.226
 0.574  1.319  0.187 -0.079 -0.181 -0.225 -0.225
 0.576  1.319  0.187 -0.079 -0.180 -0.225 -0.225
 0.578  1.320  0.186 -0.078 -0.180 -0.225 -0.225
 0.580  1.320  0.186 -0.078 -0.180 -0.224 -0.224
 0.582  1.320  0.186 -0.078 -0.180 -0.224 -0.224
 0.584  1.321  0.185 -0.078 -0.180 -0.223 -0.223
 0.586  1.321  0.185 -0.077 -0.179 -0.223 -0.223
 0.588  1.321  0.184 -0.077 -0.179 -0.222 -0.222
 0.590  1.322  0.184 -0.077 -0.179 -0.222 -0.222
 0.592  1.322  0.184 -0.077 -0.179 -0.221 -0.221
 0.594  1.322  0.183 -0.076 -0.178 -0.221 -0.221
 0.596  1.323  0.183 -0.076 -0.178 -0.221 -0.221
 0.598  1.323  0.182 -0.076 -0.178 -0.220 -0.220
 0.600  1.323  0.182 -0.075 -0.177 -0.220 -0.220
 0.602  1.324  0.182 -0.075 -0.177 -0.219 -0.219
 0.604  1.324  0.182 -0.075 -0.177 -0.219 -0.219
 0.606  1.324  0.181 -0.074 -0.177 -0.218 -0.218
 0.608  1.324  0.181 -0.074 -0.176 -0.218 -0.218
 0.610  1.325  0.181 -0.073 -0.176 -0.218 -0.218
 0.612  1.325  0.181 -0.073 -0.176 -0.217 -0.217
 0.614  1.325  0.181 -0.073 -0.176 -0.216 -0.216
 0.616  1.325  0.181 -0.072 -0.176 -0.216 -0.216
 0.618  1.326  0.181 -0.072 -0.175 -0.215 -0.215
 0.620  1.326  0.181 -0.072 -0.175 -0.215 -0.215
 0.622  1.326  0.181 -0.071 -0.175 -0.214 -0.214
 0.624  1.326  0.181 -0.071 -0.175 -0.214 -0.214
 0.626  1.326  0.182 -0.070 -0.174 -0.213 -0.213
 0.628  1.326  0.182 -0.070 -0.174 -0.213 -0.213
 0.630  1.327  0.182 -0.070 -0.174 -0.212 -0.212
 0.632  1.327  0.182 -0.069 -0.174 -0.212 -0.212
 0.634  1.327  0.183 -0.069 -0.173 -0.211 -0.211
 0.636  1.327  0.184 -0.068 -0.173 -0.211 -0.211
 0.638  1.327  0.184 -0.068 -0.173 -0.210 -0.210
 0.640  1.327  0.184 -0.067 -0.173 -0.209 -0.209
 0.642  1.327  0.185 -0.067 -0.172 -0.209 -0.209
 0.644  1.327  0.186 -0.066 -0.172 -0.208 -0.208
 0.646  1.328  0.186 -0.066 -0.172 -0.207 -0.207
 0.648  1.328  0.187 -0.065 -0.172 -0.207 -0.207
 0.650  1.328  0.187 -0.064 -0.172 -0.206 -0.206
 0.652  1.328  0.188 -0.064 -0.172 -0.206 -0.206
 0.654  1.328  0.189 -0.063 -0.171 -0.205 -0.205
 0.656  1.328  0.190 -0.063 -0.171 -0.204 -0.204
 0.658  1.328  0.190 -0.062 -0.171 -0.204 -0.204
 0.660  1.328  0.192 -0.061 -0.170 -0.203 -0.203
 0.662  1.328  0.192 -0.061 -0.170 -0.202 -0.202
 0.664  1.328  0.193 -0.060 -0.170 -0.201 -0.201
 0.666  1.328  0.194 -0.059 -0.169 -0.201 -0.201
 0.668  1.328  0.195 -0.058 -0.169 -0.200 -0.200
 0.670  1.328  0.196 -0.058 -0.168 -0.199 -0.199
 0.672  1.328  0.197 -0.057 -0.168 -0.199 -0.199
 0.674  1.329  0.198 -0.056 -0.168 -0.198 -0.198
 0.676  1.329  0.198 -0.055 -0.167 -0.197 -0.197
 0.678  1.329  0.199 -0.054 -0.166 -0.196 -0.196
 0.680  1.329  0.200 -0.054 -0.166 -0.195 -0.195
 0.682  1.330  0.201 -0.053 -0.165 -0.194 -0.194
 0.684  1.330  0.202 -0.052 -0.164 -0.193 -0.193
 0.686  1.330  0.202 -0.051 -0.163 -0.192 -0.192
 0.688  1.330  0.203 -0.050 -0.162 -0.191 -0.191
 0.690  1.331  0.204 -0.049 -0.162 -0.190 -0.190
 0.692  1.332  0.205 -0.048 -0.161 -0.189 -0.189
 0.694  1.332  0.205 -0.047 -0.160 -0.188 -0.188
 0.696  1.332  0.206 -0.046 -0.159 -0.187 -0.187
 0.698  1.333  0.207 -0.046 -0.158 -0.186 -0.186
 0.700  1.333  0.208 -0.044 -0.157 -0.185 -0.185
 0.702  1.333  0.209 -0.043 -0.155 -0.184 -0.184
 0.704  1.334  0.209 -0.042 -0.155 -0.183 -0.183
 0.706  1.334  0.210 -0.041 -0.153 -0.181 -0.181
 0.708  1.335  0.210 -0.040 -0.152 -0.180 -0.180
 0.710  1.335  0.211 -0.040 -0.151 -0.179 -0.179
 0.712  1.336  0.212 -0.038 -0.149 -0.178 -0.178
 0.714  1.337  0.212 -0.038 -0.148 -0.176 -0.176
 0.716  1.337  0.213 -0.037 -0.147 -0.175 -0.175
 0.718  1.338  0.213 -0.036 -0.145 -0.173 -0.173
 0.720  1.338  0.215 -0.035 -0.143 -0.172 -0.172
 0.722  1.339  0.215 -0.034 -0.142 -0.171 -0.171
 0.724  1.340  0.215 -0.034 -0.140 -0.169 -0.169
 0.726  1.340  0.216 -0.033 -0.139 -0.168 -0.168
 0.728  1.341  0.216 -0.032 -0.137 -0.166 -0.166
 0.730  1.342  0.217 -0.032 -0.136 -0.164 -0.164
 0.732  1.342  0.218 -0.031 -0.134 -0.163 -0.163
 0.734  1.344  0.218 -0.030 -0.133 -0.161 -0.161
 0.736  1.344  0.218 -0.030 -0.131 -0.160 -0.160
 0.738  1.345  0.219 -0.030 -0.130 -0.158 -0.158
 0.740  1.345  0.219 -0.029 -0.128 -0.157 -0.157
 0.742  1.346  0.219 -0.029 -0.127 -0.156 -0.156
 0.744  1.347  0.219 -0.028 -0.125 -0.154 -0.154
 0.746  1.347  0.219 -0.028 -0.124 -0.153 -0.153
 0.748  1.348  0.219 -0.028 -0.123 -0.151 -0.151
 0.750  1.348  0.219 -0.027 -0.121 -0.150 -0.150
 0.752  1.349  0.219 -0.027 -0.120 -0.149 -0.149
 0.754  1.349  0.219 -0.027 -0.119 -0.148 -0.148
 0.756  1.350  0.219 -0.026 -0.118 -0.147 -0.147
 0.758  1.350  0.218 -0.026 -0.117 -0.146 -0.146
 0.760  1.351  0.218 -0.026 -0.116 -0.145 -0.145
 0.762  1.351  0.218 -0.026 -0.115 -0.144 -0.144
 0.764  1.351  0.217 -0.026 -0.114 -0.143 -0.143
 0.766  1.352  0.216 -0.026 -0.113 -0.143 -0.143
 0.768  1.352  0.215 -0.026 -0.113 -0.142 -0.142
 0.770  1.352  0.215 -0.026 -0.112 -0.141 -0.141
 0.772  1.353  0.213 -0.026 -0.111 -0.141 -0.141
 0.774  1.353  0.213 -0.026 -0.110 -0.140 -0.140
 0.776  1.353  0.212 -0.026 -0.110 -0.140 -0.140
 0.778  1.353  0.210 -0.027 -0.109 -0.140 -0.140
 0.780  1.353  0.209 -0.027 -0.109 -0.140 -0.140
 0.782  1.353  0.208 -0.028 -0.108 -0.139 -0.139
 0.784  1.354  0.207 -0.029 -0.108 -0.139 -0.139
 0.786  1.354  0.205 -0.030 -0.107 -0.139 -0.139
 0.788  1.354  0.204 -0.031 -0.107 -0.139 -0.139
 0.790  1.354  0.202 -0.032 -0.106 -0.139 -0.139
 0.792  1.354  0.201 -0.034 -0.106 -0.139 -0.139
 0.794  1.354  0.199 -0.035 -0.106 -0.139 -0.139
 0.796  1.354  0.197 -0.037 -0.105 -0.139 -0.139
 0.798  1.354  0.195 -0.040 -0.105 -0.140 -0.140
 0.800  1.354  0.193 -0.042 -0.105 -0.140 -0.140
 0.802  1.354  0.192 -0.044 -0.105 -0.140 -0.140
 0.804  1.354  0.189 -0.047 -0.105 -0.141 -0.141
 0.806  1.353  0.187 -0.050 -0.106 -0.142 -0.142
 0.808  1.352  0.184 -0.053 -0.106 -0.142 -0.142
