# IsPeriodic    : True
# Period        : 0.587713 days
# Normalization : <g_mag>=0
# 
# Phase u_mag  g_mag  r_mag  i_mag  z_mag  y_mag
 0.000  0.717 -0.494 -0.479 -0.420 -0.408 -0.408
 0.002  0.717 -0.493 -0.479 -0.420 -0.408 -0.408
 0.004  0.718 -0.492 -0.479 -0.420 -0.408 -0.408
 0.006  0.719 -0.491 -0.479 -0.420 -0.408 -0.408
 0.008  0.719 -0.489 -0.478 -0.419 -0.407 -0.407
 0.010  0.720 -0.487 -0.477 -0.419 -0.407 -0.407
 0.012  0.722 -0.484 -0.476 -0.418 -0.406 -0.406
 0.014  0.723 -0.480 -0.475 -0.417 -0.405 -0.405
 0.016  0.725 -0.477 -0.474 -0.416 -0.404 -0.404
 0.018  0.727 -0.473 -0.473 -0.415 -0.403 -0.403
 0.020  0.728 -0.470 -0.471 -0.413 -0.402 -0.402
 0.022  0.730 -0.466 -0.470 -0.412 -0.401 -0.401
 0.024  0.733 -0.462 -0.468 -0.410 -0.400 -0.400
 0.026  0.734 -0.458 -0.467 -0.408 -0.399 -0.399
 0.028  0.736 -0.454 -0.465 -0.407 -0.397 -0.397
 0.030  0.739 -0.450 -0.464 -0.406 -0.396 -0.396
 0.032  0.741 -0.446 -0.461 -0.403 -0.395 -0.395
 0.034  0.743 -0.443 -0.460 -0.402 -0.394 -0.394
 0.036  0.745 -0.439 -0.458 -0.400 -0.393 -0.393
 0.038  0.748 -0.435 -0.456 -0.398 -0.391 -0.391
 0.040  0.750 -0.432 -0.454 -0.397 -0.390 -0.390
 0.042  0.753 -0.428 -0.451 -0.395 -0.388 -0.388
 0.044  0.755 -0.424 -0.449 -0.393 -0.387 -0.387
 0.046  0.758 -0.421 -0.447 -0.391 -0.386 -0.386
 0.048  0.760 -0.417 -0.444 -0.390 -0.384 -0.384
 0.050  0.762 -0.413 -0.442 -0.388 -0.383 -0.383
 0.052  0.765 -0.409 -0.439 -0.386 -0.381 -0.381
 0.054  0.768 -0.405 -0.436 -0.385 -0.379 -0.379
 0.056  0.770 -0.400 -0.433 -0.383 -0.378 -0.378
 0.058  0.773 -0.397 -0.430 -0.382 -0.376 -0.376
 0.060  0.776 -0.392 -0.427 -0.380 -0.374 -0.374
 0.062  0.779 -0.388 -0.424 -0.379 -0.372 -0.372
 0.064  0.782 -0.384 -0.421 -0.377 -0.370 -0.370
 0.066  0.785 -0.379 -0.418 -0.376 -0.369 -0.369
 0.068  0.788 -0.375 -0.414 -0.374 -0.367 -0.367
 0.070  0.791 -0.371 -0.411 -0.373 -0.365 -0.365
 0.072  0.794 -0.366 -0.407 -0.371 -0.363 -0.363
 0.074  0.797 -0.362 -0.404 -0.369 -0.361 -0.361
 0.076  0.801 -0.358 -0.400 -0.368 -0.359 -0.359
 0.078  0.804 -0.353 -0.397 -0.366 -0.357 -0.357
 0.080  0.807 -0.349 -0.394 -0.365 -0.355 -0.355
 0.082  0.811 -0.345 -0.390 -0.363 -0.353 -0.353
 0.084  0.814 -0.340 -0.386 -0.362 -0.351 -0.351
 0.086  0.817 -0.336 -0.383 -0.360 -0.349 -0.349
 0.088  0.820 -0.331 -0.380 -0.359 -0.347 -0.347
 0.090  0.824 -0.327 -0.376 -0.357 -0.345 -0.345
 0.092  0.827 -0.323 -0.373 -0.356 -0.343 -0.343
 0.094  0.831 -0.319 -0.370 -0.354 -0.341 -0.341
 0.096  0.834 -0.315 -0.367 -0.353 -0.339 -0.339
 0.098  0.837 -0.310 -0.364 -0.351 -0.337 -0.337
 0.100  0.840 -0.306 -0.360 -0.350 -0.336 -0.336
 0.102  0.844 -0.302 -0.358 -0.348 -0.334 -0.334
 0.104  0.847 -0.298 -0.355 -0.347 -0.332 -0.332
 0.106  0.851 -0.294 -0.352 -0.346 -0.331 -0.331
 0.108  0.854 -0.290 -0.349 -0.344 -0.329 -0.329
 0.110  0.857 -0.286 -0.346 -0.343 -0.327 -0.327
 0.112  0.860 -0.282 -0.343 -0.341 -0.326 -0.326
 0.114  0.863 -0.278 -0.341 -0.340 -0.324 -0.324
 0.116  0.866 -0.275 -0.338 -0.338 -0.323 -0.323
 0.118  0.869 -0.271 -0.335 -0.337 -0.321 -0.321
 0.120  0.872 -0.267 -0.333 -0.336 -0.320 -0.320
 0.122  0.875 -0.264 -0.330 -0.334 -0.318 -0.318
 0.124  0.877 -0.260 -0.327 -0.333 -0.317 -0.317
 0.126  0.880 -0.257 -0.325 -0.331 -0.315 -0.315
 0.128  0.884 -0.253 -0.322 -0.330 -0.314 -0.314
 0.130  0.886 -0.249 -0.320 -0.329 -0.313 -0.313
 0.132  0.889 -0.246 -0.318 -0.327 -0.311 -0.311
 0.134  0.892 -0.243 -0.316 -0.326 -0.310 -0.310
 0.136  0.894 -0.239 -0.313 -0.325 -0.309 -0.309
 0.138  0.898 -0.235 -0.311 -0.323 -0.307 -0.307
 0.140  0.900 -0.233 -0.309 -0.322 -0.306 -0.306
 0.142  0.902 -0.229 -0.307 -0.321 -0.305 -0.305
 0.144  0.905 -0.226 -0.305 -0.319 -0.304 -0.304
 0.146  0.908 -0.222 -0.303 -0.318 -0.303 -0.303
 0.148  0.910 -0.219 -0.301 -0.316 -0.302 -0.302
 0.150  0.913 -0.217 -0.299 -0.315 -0.301 -0.301
 0.152  0.915 -0.214 -0.297 -0.313 -0.299 -0.299
 0.154  0.918 -0.210 -0.295 -0.312 -0.298 -0.298
 0.156  0.920 -0.207 -0.293 -0.311 -0.297 -0.297
 0.158  0.922 -0.204 -0.291 -0.309 -0.296 -0.296
 0.160  0.925 -0.201 -0.289 -0.308 -0.295 -0.295
 0.162  0.927 -0.198 -0.287 -0.307 -0.294 -0.294
 0.164  0.930 -0.195 -0.286 -0.305 -0.293 -0.293
 0.166  0.932 -0.193 -0.283 -0.304 -0.291 -0.291
 0.168  0.935 -0.190 -0.282 -0.303 -0.290 -0.290
 0.170  0.937 -0.187 -0.280 -0.301 -0.289 -0.289
 0.172  0.939 -0.184 -0.278 -0.300 -0.288 -0.288
 0.174  0.942 -0.180 -0.276 -0.299 -0.287 -0.287
 0.176  0.944 -0.177 -0.274 -0.297 -0.286 -0.286
 0.178  0.947 -0.174 -0.272 -0.296 -0.285 -0.285
 0.180  0.949 -0.171 -0.270 -0.295 -0.284 -0.284
 0.182  0.952 -0.169 -0.268 -0.293 -0.282 -0.282
 0.184  0.955 -0.166 -0.266 -0.292 -0.281 -0.281
 0.186  0.957 -0.163 -0.264 -0.291 -0.280 -0.280
 0.188  0.960 -0.160 -0.263 -0.290 -0.279 -0.279
 0.190  0.962 -0.157 -0.260 -0.288 -0.278 -0.278
 0.192  0.965 -0.154 -0.259 -0.287 -0.277 -0.277
 0.194  0.967 -0.151 -0.257 -0.286 -0.276 -0.276
 0.196  0.970 -0.148 -0.255 -0.285 -0.275 -0.275
 0.198  0.973 -0.145 -0.253 -0.284 -0.274 -0.274
 0.200  0.975 -0.142 -0.251 -0.283 -0.273 -0.273
 0.202  0.978 -0.140 -0.250 -0.281 -0.272 -0.272
 0.204  0.981 -0.137 -0.248 -0.281 -0.270 -0.270
 0.206  0.983 -0.134 -0.246 -0.279 -0.269 -0.269
 0.208  0.986 -0.131 -0.244 -0.278 -0.268 -0.268
 0.210  0.989 -0.128 -0.242 -0.277 -0.267 -0.267
 0.212  0.992 -0.125 -0.241 -0.276 -0.266 -0.266
 0.214  0.995 -0.123 -0.239 -0.275 -0.265 -0.265
 0.216  0.997 -0.120 -0.237 -0.274 -0.264 -0.264
 0.218  1.000 -0.117 -0.235 -0.273 -0.263 -0.263
 0.220  1.003 -0.114 -0.233 -0.272 -0.261 -0.261
 0.222  1.006 -0.111 -0.232 -0.271 -0.260 -0.260
 0.224  1.009 -0.108 -0.230 -0.270 -0.259 -0.259
 0.226  1.011 -0.105 -0.228 -0.269 -0.258 -0.258
 0.228  1.014 -0.102 -0.226 -0.268 -0.257 -0.257
 0.230  1.017 -0.100 -0.225 -0.267 -0.256 -0.256
 0.232  1.020 -0.097 -0.223 -0.266 -0.255 -0.255
 0.234  1.023 -0.094 -0.221 -0.265 -0.254 -0.254
 0.236  1.026 -0.092 -0.220 -0.264 -0.253 -0.253
 0.238  1.029 -0.089 -0.218 -0.263 -0.252 -0.252
 0.240  1.031 -0.086 -0.217 -0.262 -0.251 -0.251
 0.242  1.034 -0.084 -0.214 -0.261 -0.250 -0.250
 0.244  1.037 -0.081 -0.213 -0.260 -0.249 -0.249
 0.246  1.040 -0.078 -0.211 -0.259 -0.248 -0.248
 0.248  1.042 -0.076 -0.210 -0.258 -0.247 -0.247
 0.250  1.045 -0.073 -0.208 -0.257 -0.246 -0.246
 0.252  1.048 -0.070 -0.206 -0.256 -0.245 -0.245
 0.254  1.050 -0.068 -0.205 -0.255 -0.244 -0.244
 0.256  1.053 -0.066 -0.204 -0.254 -0.243 -0.243
 0.258  1.055 -0.063 -0.202 -0.253 -0.242 -0.242
 0.260  1.057 -0.061 -0.201 -0.252 -0.241 -0.241
 0.262  1.060 -0.058 -0.199 -0.251 -0.240 -0.240
 0.264  1.062 -0.056 -0.197 -0.250 -0.239 -0.239
 0.266  1.065 -0.054 -0.196 -0.249 -0.238 -0.238
 0.268  1.067 -0.052 -0.194 -0.248 -0.237 -0.237
 0.270  1.070 -0.049 -0.193 -0.247 -0.236 -0.236
 0.272  1.072 -0.046 -0.191 -0.246 -0.235 -0.235
 0.274  1.075 -0.044 -0.190 -0.245 -0.234 -0.234
 0.276  1.077 -0.042 -0.188 -0.243 -0.233 -0.233
 0.278  1.079 -0.040 -0.187 -0.243 -0.232 -0.232
 0.280  1.081 -0.038 -0.186 -0.241 -0.231 -0.231
 0.282  1.084 -0.035 -0.184 -0.240 -0.230 -0.230
 0.284  1.085 -0.033 -0.183 -0.239 -0.229 -0.229
 0.286  1.088 -0.030 -0.181 -0.238 -0.229 -0.229
 0.288  1.090 -0.028 -0.180 -0.237 -0.228 -0.228
 0.290  1.092 -0.026 -0.179 -0.236 -0.227 -0.227
 0.292  1.094 -0.025 -0.177 -0.234 -0.226 -0.226
 0.294  1.096 -0.022 -0.176 -0.233 -0.225 -0.225
 0.296  1.098 -0.020 -0.174 -0.232 -0.224 -0.224
 0.298  1.100 -0.018 -0.173 -0.231 -0.223 -0.223
 0.300  1.102 -0.016 -0.172 -0.229 -0.222 -0.222
 0.302  1.104 -0.014 -0.170 -0.228 -0.222 -0.222
 0.304  1.106 -0.012 -0.169 -0.227 -0.220 -0.220
 0.306  1.107 -0.009 -0.167 -0.226 -0.220 -0.220
 0.308  1.109 -0.008 -0.166 -0.224 -0.219 -0.219
 0.310  1.111 -0.006 -0.165 -0.223 -0.218 -0.218
 0.312  1.113 -0.004 -0.164 -0.222 -0.217 -0.217
 0.314  1.115 -0.001 -0.162 -0.221 -0.216 -0.216
 0.316  1.117  0.001 -0.160 -0.219 -0.215 -0.215
 0.318  1.119  0.003 -0.159 -0.218 -0.214 -0.214
 0.320  1.121  0.004 -0.158 -0.216 -0.214 -0.214
 0.322  1.123  0.007 -0.157 -0.215 -0.213 -0.213
 0.324  1.124  0.009 -0.155 -0.214 -0.212 -0.212
 0.326  1.126  0.011 -0.154 -0.213 -0.211 -0.211
 0.328  1.128  0.013 -0.152 -0.211 -0.210 -0.210
 0.330  1.130  0.015 -0.151 -0.210 -0.209 -0.209
 0.332  1.132  0.017 -0.150 -0.209 -0.208 -0.208
 0.334  1.134  0.019 -0.148 -0.208 -0.208 -0.208
 0.336  1.136  0.021 -0.147 -0.207 -0.207 -0.207
 0.338  1.138  0.023 -0.146 -0.206 -0.206 -0.206
 0.340  1.140  0.025 -0.144 -0.204 -0.205 -0.205
 0.342  1.141  0.027 -0.143 -0.203 -0.204 -0.204
 0.344  1.143  0.029 -0.141 -0.202 -0.203 -0.203
 0.346  1.146  0.031 -0.140 -0.201 -0.202 -0.202
 0.348  1.148  0.033 -0.139 -0.200 -0.201 -0.201
 0.350  1.149  0.035 -0.137 -0.199 -0.201 -0.201
 0.352  1.151  0.037 -0.136 -0.198 -0.200 -0.200
 0.354  1.153  0.039 -0.135 -0.196 -0.199 -0.199
 0.356  1.155  0.041 -0.133 -0.196 -0.198 -0.198
 0.358  1.157  0.043 -0.132 -0.194 -0.197 -0.197
 0.360  1.158  0.045 -0.131 -0.193 -0.196 -0.196
 0.362  1.160  0.047 -0.129 -0.192 -0.195 -0.195
 0.364  1.163  0.049 -0.128 -0.191 -0.195 -0.195
 0.366  1.165  0.051 -0.126 -0.190 -0.194 -0.194
 0.368  1.166  0.053 -0.125 -0.189 -0.193 -0.193
 0.370  1.168  0.055 -0.124 -0.188 -0.192 -0.192
 0.372  1.170  0.057 -0.123 -0.187 -0.191 -0.191
 0.374  1.172  0.059 -0.121 -0.186 -0.190 -0.190
 0.376  1.174  0.060 -0.120 -0.185 -0.189 -0.189
 0.378  1.175  0.063 -0.118 -0.184 -0.188 -0.188
 0.380  1.177  0.065 -0.117 -0.183 -0.187 -0.187
 0.382  1.179  0.067 -0.116 -0.182 -0.187 -0.187
 0.384  1.182  0.068 -0.115 -0.181 -0.186 -0.186
 0.386  1.183  0.071 -0.113 -0.180 -0.185 -0.185
 0.388  1.185  0.073 -0.112 -0.179 -0.184 -0.184
 0.390  1.187  0.075 -0.110 -0.178 -0.183 -0.183
 0.392  1.189  0.076 -0.109 -0.177 -0.182 -0.182
 0.394  1.190  0.079 -0.108 -0.176 -0.181 -0.181
 0.396  1.192  0.081 -0.106 -0.175 -0.180 -0.180
 0.398  1.194  0.083 -0.105 -0.174 -0.179 -0.179
 0.400  1.196  0.084 -0.104 -0.173 -0.178 -0.178
 0.402  1.197  0.087 -0.102 -0.172 -0.177 -0.177
 0.404  1.199  0.089 -0.101 -0.171 -0.176 -0.176
 0.406  1.201  0.091 -0.100 -0.170 -0.175 -0.175
 0.408  1.203  0.093 -0.098 -0.169 -0.174 -0.174
 0.410  1.205  0.095 -0.097 -0.168 -0.173 -0.173
 0.412  1.206  0.097 -0.096 -0.167 -0.172 -0.172
 0.414  1.208  0.099 -0.094 -0.166 -0.171 -0.171
 0.416  1.210  0.101 -0.093 -0.165 -0.170 -0.170
 0.418  1.211  0.103 -0.092 -0.164 -0.169 -0.169
 0.420  1.213  0.105 -0.090 -0.163 -0.168 -0.168
 0.422  1.214  0.107 -0.089 -0.162 -0.167 -0.167
 0.424  1.216  0.109 -0.088 -0.161 -0.166 -0.166
 0.426  1.218  0.111 -0.087 -0.159 -0.165 -0.165
 0.428  1.219  0.113 -0.085 -0.159 -0.164 -0.164
 0.430  1.221  0.116 -0.084 -0.157 -0.163 -0.163
 0.432  1.223  0.117 -0.083 -0.156 -0.162 -0.162
 0.434  1.224  0.119 -0.081 -0.155 -0.161 -0.161
 0.436  1.226  0.121 -0.080 -0.154 -0.160 -0.160
 0.438  1.227  0.124 -0.079 -0.153 -0.159 -0.159
 0.440  1.229  0.126 -0.078 -0.152 -0.158 -0.158
 0.442  1.231  0.128 -0.077 -0.151 -0.157 -0.157
 0.444  1.232  0.129 -0.075 -0.150 -0.156 -0.156
 0.446  1.234  0.132 -0.074 -0.149 -0.155 -0.155
 0.448  1.235  0.134 -0.073 -0.147 -0.154 -0.154
 0.450  1.236  0.135 -0.072 -0.146 -0.154 -0.154
 0.452  1.238  0.137 -0.070 -0.145 -0.152 -0.152
 0.454  1.239  0.139 -0.069 -0.144 -0.152 -0.152
 0.456  1.241  0.140 -0.068 -0.143 -0.151 -0.151
 0.458  1.242  0.143 -0.067 -0.142 -0.150 -0.150
 0.460  1.244  0.144 -0.065 -0.141 -0.149 -0.149
 0.462  1.245  0.145 -0.064 -0.140 -0.148 -0.148
 0.464  1.246  0.147 -0.063 -0.139 -0.147 -0.147
 0.466  1.247  0.148 -0.062 -0.138 -0.146 -0.146
 0.468  1.248  0.150 -0.061 -0.136 -0.145 -0.145
 0.470  1.250  0.151 -0.060 -0.136 -0.145 -0.145
 0.472  1.251  0.153 -0.058 -0.134 -0.143 -0.143
 0.474  1.252  0.154 -0.057 -0.134 -0.143 -0.143
 0.476  1.253  0.156 -0.056 -0.133 -0.142 -0.142
 0.478  1.255  0.157 -0.055 -0.131 -0.141 -0.141
 0.480  1.256  0.158 -0.054 -0.131 -0.140 -0.140
 0.482  1.256  0.159 -0.053 -0.130 -0.139 -0.139
 0.484  1.258  0.161 -0.052 -0.129 -0.139 -0.139
 0.486  1.259  0.161 -0.051 -0.128 -0.138 -0.138
 0.488  1.259  0.163 -0.050 -0.127 -0.137 -0.137
 0.490  1.261  0.164 -0.049 -0.126 -0.136 -0.136
 0.492  1.261  0.164 -0.048 -0.125 -0.136 -0.136
 0.494  1.262  0.166 -0.047 -0.124 -0.135 -0.135
 0.496  1.263  0.167 -0.046 -0.124 -0.134 -0.134
 0.498  1.264  0.167 -0.044 -0.123 -0.133 -0.133
 0.500  1.264  0.168 -0.043 -0.122 -0.133 -0.133
 0.502  1.266  0.169 -0.042 -0.121 -0.132 -0.132
 0.504  1.266  0.169 -0.041 -0.121 -0.131 -0.131
 0.506  1.267  0.170 -0.040 -0.120 -0.130 -0.130
 0.508  1.267  0.171 -0.040 -0.119 -0.130 -0.130
 0.510  1.268  0.172 -0.039 -0.118 -0.129 -0.129
 0.512  1.269  0.172 -0.038 -0.117 -0.128 -0.128
 0.514  1.269  0.173 -0.036 -0.117 -0.128 -0.128
 0.516  1.270  0.173 -0.036 -0.116 -0.127 -0.127
 0.518  1.270  0.174 -0.035 -0.116 -0.126 -0.126
 0.520  1.271  0.175 -0.034 -0.115 -0.126 -0.126
 0.522  1.272  0.175 -0.033 -0.114 -0.125 -0.125
 0.524  1.272  0.175 -0.032 -0.114 -0.124 -0.124
 0.526  1.273  0.176 -0.032 -0.113 -0.124 -0.124
 0.528  1.273  0.177 -0.031 -0.112 -0.123 -0.123
 0.530  1.273  0.177 -0.030 -0.111 -0.123 -0.123
 0.532  1.274  0.177 -0.029 -0.111 -0.122 -0.122
 0.534  1.275  0.177 -0.028 -0.111 -0.121 -0.121
 0.536  1.275  0.178 -0.027 -0.110 -0.121 -0.121
 0.538  1.276  0.179 -0.027 -0.109 -0.120 -0.120
 0.540  1.276  0.179 -0.026 -0.109 -0.120 -0.120
 0.542  1.276  0.180 -0.025 -0.108 -0.119 -0.119
 0.544  1.277  0.180 -0.025 -0.108 -0.119 -0.119
 0.546  1.278  0.180 -0.024 -0.107 -0.118 -0.118
 0.548  1.278  0.181 -0.024 -0.106 -0.117 -0.117
 0.550  1.279  0.181 -0.023 -0.106 -0.117 -0.117
 0.552  1.279  0.182 -0.022 -0.106 -0.116 -0.116
 0.554  1.280  0.182 -0.022 -0.105 -0.116 -0.116
 0.556  1.280  0.183 -0.021 -0.105 -0.116 -0.116
 0.558  1.281  0.183 -0.020 -0.104 -0.115 -0.115
 0.560  1.281  0.183 -0.020 -0.104 -0.114 -0.114
 0.562  1.281  0.183 -0.019 -0.103 -0.114 -0.114
 0.564  1.282  0.184 -0.019 -0.103 -0.114 -0.114
 0.566  1.283  0.184 -0.018 -0.102 -0.113 -0.113
 0.568  1.283  0.184 -0.018 -0.102 -0.113 -0.113
 0.570  1.283  0.185 -0.018 -0.101 -0.112 -0.112
 0.572  1.284  0.185 -0.017 -0.101 -0.112 -0.112
 0.574  1.284  0.185 -0.017 -0.101 -0.111 -0.111
 0.576  1.284  0.185 -0.016 -0.100 -0.111 -0.111
 0.578  1.285  0.185 -0.016 -0.100 -0.111 -0.111
 0.580  1.286  0.186 -0.016 -0.099 -0.110 -0.110
 0.582  1.286  0.186 -0.015 -0.099 -0.110 -0.110
 0.584  1.286  0.186 -0.015 -0.099 -0.110 -0.110
 0.586  1.287  0.187 -0.015 -0.098 -0.109 -0.109
 0.588  1.287  0.187 -0.015 -0.098 -0.109 -0.109
 0.590  1.287  0.187 -0.014 -0.097 -0.108 -0.108
 0.592  1.288  0.187 -0.014 -0.097 -0.108 -0.108
 0.594  1.288  0.188 -0.013 -0.097 -0.108 -0.108
 0.596  1.289  0.188 -0.013 -0.096 -0.108 -0.108
 0.598  1.289  0.188 -0.013 -0.096 -0.107 -0.107
 0.600  1.289  0.188 -0.013 -0.096 -0.107 -0.107
 0.602  1.290  0.188 -0.013 -0.095 -0.107 -0.107
 0.604  1.290  0.188 -0.013 -0.095 -0.106 -0.106
 0.606  1.290  0.188 -0.012 -0.095 -0.106 -0.106
 0.608  1.290  0.188 -0.012 -0.094 -0.106 -0.106
 0.610  1.291  0.188 -0.012 -0.094 -0.105 -0.105
 0.612  1.291  0.189 -0.012 -0.094 -0.105 -0.105
 0.614  1.292  0.189 -0.012 -0.093 -0.105 -0.105
 0.616  1.292  0.189 -0.012 -0.093 -0.105 -0.105
 0.618  1.292  0.189 -0.012 -0.093 -0.104 -0.104
 0.620  1.292  0.189 -0.012 -0.092 -0.104 -0.104
 0.622  1.292  0.189 -0.012 -0.092 -0.104 -0.104
 0.624  1.293  0.189 -0.012 -0.091 -0.104 -0.104
 0.626  1.293  0.190 -0.012 -0.091 -0.103 -0.103
 0.628  1.293  0.190 -0.013 -0.091 -0.103 -0.103
 0.630  1.293  0.190 -0.013 -0.090 -0.103 -0.103
 0.632  1.293  0.190 -0.013 -0.090 -0.102 -0.102
 0.634  1.293  0.190 -0.013 -0.090 -0.102 -0.102
 0.636  1.293  0.190 -0.013 -0.089 -0.102 -0.102
 0.638  1.294  0.190 -0.013 -0.089 -0.102 -0.102
 0.640  1.294  0.190 -0.014 -0.089 -0.102 -0.102
 0.642  1.294  0.190 -0.014 -0.088 -0.102 -0.102
 0.644  1.294  0.190 -0.015 -0.088 -0.101 -0.101
 0.646  1.295  0.190 -0.015 -0.087 -0.101 -0.101
 0.648  1.295  0.190 -0.015 -0.087 -0.101 -0.101
 0.650  1.295  0.190 -0.015 -0.086 -0.101 -0.101
 0.652  1.295  0.190 -0.016 -0.086 -0.101 -0.101
 0.654  1.295  0.190 -0.016 -0.086 -0.101 -0.101
 0.656  1.295  0.190 -0.016 -0.086 -0.101 -0.101
 0.658  1.295  0.190 -0.016 -0.085 -0.100 -0.100
 0.660  1.295  0.190 -0.016 -0.085 -0.100 -0.100
 0.662  1.295  0.189 -0.017 -0.084 -0.100 -0.100
 0.664  1.295  0.189 -0.017 -0.084 -0.100 -0.100
 0.666  1.295  0.189 -0.017 -0.084 -0.099 -0.099
 0.668  1.295  0.189 -0.017 -0.083 -0.099 -0.099
 0.670  1.295  0.189 -0.018 -0.083 -0.099 -0.099
 0.672  1.295  0.188 -0.018 -0.082 -0.099 -0.099
 0.674  1.296  0.188 -0.018 -0.081 -0.099 -0.099
 0.676  1.296  0.188 -0.018 -0.081 -0.099 -0.099
 0.678  1.297  0.188 -0.018 -0.080 -0.099 -0.099
 0.680  1.297  0.188 -0.018 -0.080 -0.098 -0.098
 0.682  1.297  0.187 -0.019 -0.079 -0.098 -0.098
 0.684  1.297  0.187 -0.019 -0.079 -0.098 -0.098
 0.686  1.298  0.187 -0.019 -0.078 -0.098 -0.098
 0.688  1.298  0.186 -0.019 -0.077 -0.098 -0.098
 0.690  1.298  0.186 -0.019 -0.076 -0.098 -0.098
 0.692  1.299  0.185 -0.019 -0.075 -0.098 -0.098
 0.694  1.299  0.185 -0.019 -0.074 -0.097 -0.097
 0.696  1.300  0.185 -0.019 -0.073 -0.097 -0.097
 0.698  1.300  0.184 -0.019 -0.072 -0.097 -0.097
 0.700  1.301  0.184 -0.020 -0.071 -0.097 -0.097
 0.702  1.301  0.183 -0.020 -0.070 -0.097 -0.097
 0.704  1.301  0.183 -0.020 -0.069 -0.096 -0.096
 0.706  1.302  0.183 -0.020 -0.068 -0.096 -0.096
 0.708  1.303  0.182 -0.020 -0.067 -0.096 -0.096
 0.710  1.303  0.181 -0.020 -0.066 -0.096 -0.096
 0.712  1.304  0.180 -0.020 -0.064 -0.096 -0.096
 0.714  1.305  0.180 -0.020 -0.063 -0.096 -0.096
 0.716  1.306  0.180 -0.020 -0.061 -0.096 -0.096
 0.718  1.306  0.179 -0.020 -0.060 -0.095 -0.095
 0.720  1.307  0.178 -0.020 -0.059 -0.095 -0.095
 0.722  1.308  0.177 -0.020 -0.057 -0.095 -0.095
 0.724  1.309  0.177 -0.020 -0.056 -0.095 -0.095
 0.726  1.309  0.176 -0.020 -0.054 -0.095 -0.095
 0.728  1.311  0.175 -0.020 -0.052 -0.094 -0.094
 0.730  1.311  0.175 -0.020 -0.051 -0.094 -0.094
 0.732  1.312  0.175 -0.020 -0.049 -0.094 -0.094
 0.734  1.313  0.174 -0.020 -0.047 -0.093 -0.093
 0.736  1.314  0.174 -0.020 -0.046 -0.093 -0.093
 0.738  1.314  0.174 -0.020 -0.044 -0.093 -0.093
 0.740  1.315  0.173 -0.020 -0.042 -0.092 -0.092
 0.742  1.316  0.173 -0.021 -0.041 -0.092 -0.092
 0.744  1.317  0.173 -0.021 -0.039 -0.091 -0.091
 0.746  1.317  0.173 -0.021 -0.037 -0.091 -0.091
 0.748  1.318  0.173 -0.021 -0.035 -0.090 -0.090
 0.750  1.318  0.173 -0.021 -0.034 -0.090 -0.090
 0.752  1.319  0.174 -0.021 -0.032 -0.089 -0.089
 0.754  1.320  0.174 -0.021 -0.031 -0.089 -0.089
 0.756  1.320  0.174 -0.021 -0.029 -0.088 -0.088
 0.758  1.321  0.175 -0.021 -0.028 -0.087 -0.087
 0.760  1.321  0.175 -0.021 -0.026 -0.087 -0.087
 0.762  1.322  0.175 -0.021 -0.025 -0.086 -0.086
 0.764  1.322  0.176 -0.021 -0.024 -0.086 -0.086
 0.766  1.323  0.177 -0.021 -0.022 -0.085 -0.085
 0.768  1.323  0.177 -0.021 -0.021 -0.084 -0.084
 0.770  1.323  0.178 -0.021 -0.020 -0.083 -0.083
 0.772  1.324  0.179 -0.021 -0.019 -0.083 -0.083
 0.774  1.324  0.180 -0.021 -0.017 -0.082 -0.082
 0.776  1.324  0.181 -0.021 -0.017 -0.081 -0.081
 0.778  1.325  0.183 -0.021 -0.016 -0.080 -0.080
 0.780  1.325  0.183 -0.022 -0.014 -0.079 -0.079
 0.782  1.325  0.185 -0.022 -0.014 -0.078 -0.078
 0.784  1.325  0.186 -0.022 -0.013 -0.077 -0.077
 0.786  1.325  0.188 -0.021 -0.012 -0.076 -0.076
 0.788  1.325  0.188 -0.021 -0.011 -0.075 -0.075
 0.790  1.325  0.190 -0.021 -0.010 -0.074 -0.074
 0.792  1.326  0.191 -0.021 -0.009 -0.074 -0.074
 0.794  1.326  0.193 -0.020 -0.009 -0.072 -0.072
 0.796  1.326  0.195 -0.020 -0.008 -0.071 -0.071
 0.798  1.326  0.196 -0.020 -0.007 -0.071 -0.071
 0.800  1.326  0.198 -0.019 -0.006 -0.069 -0.069
 0.802  1.325  0.199 -0.018 -0.006 -0.068 -0.068
 0.804  1.325  0.201 -0.018 -0.005 -0.067 -0.067
 0.806  1.325  0.202 -0.017 -0.004 -0.066 -0.066
 0.808  1.323  0.204 -0.016 -0.004 -0.065 -0.065
