# IsPeriodic    : True
# Period        : 0.635455 days
# Normalization : <g_mag>=0
# 
# Phase u_mag  g_mag  r_mag  i_mag  z_mag  y_mag
 0.000  0.815 -0.347 -0.424 -0.411 -0.406 -0.406
 0.002  0.815 -0.347 -0.424 -0.411 -0.406 -0.406
 0.004  0.816 -0.347 -0.424 -0.411 -0.406 -0.406
 0.006  0.817 -0.346 -0.424 -0.411 -0.406 -0.406
 0.008  0.817 -0.346 -0.423 -0.411 -0.405 -0.405
 0.010  0.818 -0.345 -0.423 -0.411 -0.405 -0.405
 0.012  0.819 -0.345 -0.422 -0.411 -0.404 -0.404
 0.014  0.820 -0.343 -0.422 -0.410 -0.403 -0.403
 0.016  0.822 -0.342 -0.421 -0.410 -0.403 -0.403
 0.018  0.823 -0.341 -0.420 -0.410 -0.402 -0.402
 0.020  0.825 -0.340 -0.419 -0.409 -0.401 -0.401
 0.022  0.827 -0.339 -0.419 -0.409 -0.400 -0.400
 0.024  0.829 -0.338 -0.417 -0.409 -0.400 -0.400
 0.026  0.830 -0.336 -0.416 -0.408 -0.399 -0.399
 0.028  0.832 -0.335 -0.416 -0.408 -0.398 -0.398
 0.030  0.834 -0.333 -0.414 -0.407 -0.397 -0.397
 0.032  0.836 -0.331 -0.413 -0.406 -0.396 -0.396
 0.034  0.838 -0.330 -0.412 -0.406 -0.395 -0.395
 0.036  0.840 -0.328 -0.411 -0.405 -0.394 -0.394
 0.038  0.842 -0.326 -0.410 -0.405 -0.393 -0.393
 0.040  0.844 -0.324 -0.409 -0.404 -0.392 -0.392
 0.042  0.846 -0.322 -0.407 -0.403 -0.391 -0.391
 0.044  0.849 -0.320 -0.406 -0.402 -0.390 -0.390
 0.046  0.851 -0.317 -0.405 -0.401 -0.389 -0.389
 0.048  0.853 -0.316 -0.403 -0.400 -0.388 -0.388
 0.050  0.855 -0.313 -0.402 -0.399 -0.388 -0.388
 0.052  0.857 -0.311 -0.400 -0.398 -0.387 -0.387
 0.054  0.860 -0.308 -0.399 -0.397 -0.386 -0.386
 0.056  0.862 -0.306 -0.397 -0.396 -0.385 -0.385
 0.058  0.865 -0.303 -0.396 -0.395 -0.384 -0.384
 0.060  0.867 -0.301 -0.394 -0.394 -0.383 -0.383
 0.062  0.869 -0.298 -0.392 -0.392 -0.382 -0.382
 0.064  0.872 -0.295 -0.390 -0.391 -0.382 -0.382
 0.066  0.875 -0.292 -0.389 -0.390 -0.381 -0.381
 0.068  0.877 -0.288 -0.387 -0.389 -0.380 -0.380
 0.070  0.880 -0.285 -0.384 -0.387 -0.379 -0.379
 0.072  0.883 -0.282 -0.383 -0.386 -0.378 -0.378
 0.074  0.886 -0.279 -0.381 -0.385 -0.377 -0.377
 0.076  0.889 -0.276 -0.379 -0.383 -0.377 -0.377
 0.078  0.891 -0.272 -0.377 -0.382 -0.376 -0.376
 0.080  0.894 -0.269 -0.374 -0.381 -0.375 -0.375
 0.082  0.897 -0.265 -0.372 -0.379 -0.374 -0.374
 0.084  0.900 -0.262 -0.370 -0.378 -0.373 -0.373
 0.086  0.903 -0.258 -0.368 -0.376 -0.372 -0.372
 0.088  0.906 -0.255 -0.366 -0.375 -0.372 -0.372
 0.090  0.909 -0.251 -0.364 -0.374 -0.371 -0.371
 0.092  0.912 -0.248 -0.362 -0.373 -0.370 -0.370
 0.094  0.915 -0.244 -0.359 -0.372 -0.369 -0.369
 0.096  0.918 -0.241 -0.357 -0.371 -0.368 -0.368
 0.098  0.921 -0.238 -0.355 -0.369 -0.368 -0.368
 0.100  0.923 -0.235 -0.353 -0.368 -0.367 -0.367
 0.102  0.927 -0.232 -0.352 -0.367 -0.366 -0.366
 0.104  0.929 -0.228 -0.350 -0.366 -0.365 -0.365
 0.106  0.933 -0.225 -0.348 -0.365 -0.365 -0.365
 0.108  0.935 -0.222 -0.346 -0.364 -0.364 -0.364
 0.110  0.938 -0.219 -0.344 -0.363 -0.363 -0.363
 0.112  0.941 -0.216 -0.342 -0.362 -0.362 -0.362
 0.114  0.943 -0.213 -0.340 -0.361 -0.362 -0.362
 0.116  0.946 -0.210 -0.339 -0.360 -0.361 -0.361
 0.118  0.949 -0.207 -0.337 -0.359 -0.360 -0.360
 0.120  0.951 -0.204 -0.335 -0.358 -0.359 -0.359
 0.122  0.954 -0.202 -0.333 -0.358 -0.359 -0.359
 0.124  0.956 -0.199 -0.332 -0.357 -0.358 -0.358
 0.126  0.959 -0.196 -0.330 -0.356 -0.357 -0.357
 0.128  0.961 -0.193 -0.328 -0.355 -0.356 -0.356
 0.130  0.964 -0.191 -0.327 -0.354 -0.356 -0.356
 0.132  0.966 -0.188 -0.325 -0.354 -0.355 -0.355
 0.134  0.969 -0.186 -0.324 -0.353 -0.354 -0.354
 0.136  0.971 -0.183 -0.322 -0.352 -0.353 -0.353
 0.138  0.974 -0.181 -0.321 -0.351 -0.353 -0.353
 0.140  0.976 -0.178 -0.319 -0.351 -0.352 -0.352
 0.142  0.978 -0.176 -0.318 -0.350 -0.351 -0.351
 0.144  0.981 -0.174 -0.316 -0.350 -0.351 -0.351
 0.146  0.983 -0.171 -0.315 -0.349 -0.350 -0.350
 0.148  0.985 -0.169 -0.314 -0.348 -0.349 -0.349
 0.150  0.987 -0.167 -0.313 -0.348 -0.349 -0.349
 0.152  0.989 -0.164 -0.312 -0.347 -0.348 -0.348
 0.154  0.991 -0.162 -0.310 -0.347 -0.347 -0.347
 0.156  0.994 -0.160 -0.309 -0.346 -0.347 -0.347
 0.158  0.996 -0.158 -0.307 -0.345 -0.346 -0.346
 0.160  0.998 -0.156 -0.306 -0.344 -0.345 -0.345
 0.162  1.000 -0.153 -0.305 -0.344 -0.345 -0.345
 0.164  1.002 -0.152 -0.304 -0.343 -0.344 -0.344
 0.166  1.004 -0.149 -0.303 -0.342 -0.343 -0.343
 0.168  1.006 -0.147 -0.301 -0.342 -0.342 -0.342
 0.170  1.008 -0.145 -0.300 -0.341 -0.342 -0.342
 0.172  1.011 -0.142 -0.299 -0.341 -0.341 -0.341
 0.174  1.013 -0.140 -0.298 -0.340 -0.341 -0.341
 0.176  1.015 -0.138 -0.296 -0.339 -0.340 -0.340
 0.178  1.017 -0.135 -0.295 -0.338 -0.339 -0.339
 0.180  1.019 -0.133 -0.294 -0.337 -0.339 -0.339
 0.182  1.022 -0.131 -0.293 -0.337 -0.338 -0.338
 0.184  1.024 -0.129 -0.291 -0.336 -0.337 -0.337
 0.186  1.026 -0.126 -0.290 -0.335 -0.337 -0.337
 0.188  1.028 -0.124 -0.289 -0.334 -0.336 -0.336
 0.190  1.030 -0.122 -0.287 -0.334 -0.335 -0.335
 0.192  1.033 -0.119 -0.286 -0.333 -0.335 -0.335
 0.194  1.035 -0.116 -0.284 -0.332 -0.334 -0.334
 0.196  1.037 -0.114 -0.283 -0.331 -0.333 -0.333
 0.198  1.040 -0.112 -0.282 -0.330 -0.333 -0.333
 0.200  1.042 -0.109 -0.280 -0.330 -0.332 -0.332
 0.202  1.045 -0.107 -0.279 -0.329 -0.331 -0.331
 0.204  1.047 -0.104 -0.278 -0.328 -0.331 -0.331
 0.206  1.049 -0.102 -0.277 -0.327 -0.330 -0.330
 0.208  1.052 -0.100 -0.275 -0.326 -0.330 -0.330
 0.210  1.054 -0.097 -0.274 -0.325 -0.329 -0.329
 0.212  1.057 -0.094 -0.272 -0.325 -0.328 -0.328
 0.214  1.059 -0.091 -0.271 -0.324 -0.327 -0.327
 0.216  1.061 -0.089 -0.270 -0.323 -0.327 -0.327
 0.218  1.064 -0.086 -0.268 -0.322 -0.326 -0.326
 0.220  1.066 -0.084 -0.267 -0.321 -0.326 -0.326
 0.222  1.069 -0.081 -0.265 -0.320 -0.325 -0.325
 0.224  1.072 -0.079 -0.264 -0.319 -0.325 -0.325
 0.226  1.074 -0.076 -0.262 -0.318 -0.324 -0.324
 0.228  1.076 -0.074 -0.261 -0.318 -0.323 -0.323
 0.230  1.079 -0.071 -0.259 -0.317 -0.322 -0.322
 0.232  1.082 -0.068 -0.258 -0.316 -0.322 -0.322
 0.234  1.084 -0.066 -0.257 -0.315 -0.321 -0.321
 0.236  1.087 -0.063 -0.255 -0.314 -0.321 -0.321
 0.238  1.089 -0.061 -0.254 -0.313 -0.320 -0.320
 0.240  1.091 -0.058 -0.253 -0.312 -0.319 -0.319
 0.242  1.094 -0.056 -0.251 -0.311 -0.319 -0.319
 0.244  1.096 -0.054 -0.250 -0.310 -0.318 -0.318
 0.246  1.099 -0.051 -0.248 -0.310 -0.317 -0.317
 0.248  1.101 -0.049 -0.247 -0.309 -0.317 -0.317
 0.250  1.104 -0.047 -0.246 -0.308 -0.316 -0.316
 0.252  1.106 -0.045 -0.244 -0.307 -0.315 -0.315
 0.254  1.108 -0.042 -0.243 -0.306 -0.315 -0.315
 0.256  1.110 -0.040 -0.241 -0.305 -0.314 -0.314
 0.258  1.112 -0.038 -0.240 -0.304 -0.313 -0.313
 0.260  1.114 -0.036 -0.239 -0.303 -0.313 -0.313
 0.262  1.116 -0.034 -0.237 -0.302 -0.312 -0.312
 0.264  1.119 -0.032 -0.236 -0.302 -0.311 -0.311
 0.266  1.121 -0.030 -0.234 -0.301 -0.310 -0.310
 0.268  1.123 -0.028 -0.233 -0.300 -0.310 -0.310
 0.270  1.125 -0.026 -0.232 -0.299 -0.309 -0.309
 0.272  1.127 -0.024 -0.230 -0.298 -0.308 -0.308
 0.274  1.129 -0.022 -0.229 -0.297 -0.307 -0.307
 0.276  1.131 -0.020 -0.228 -0.296 -0.307 -0.307
 0.278  1.133 -0.018 -0.226 -0.296 -0.306 -0.306
 0.280  1.135 -0.017 -0.225 -0.295 -0.305 -0.305
 0.282  1.137 -0.015 -0.223 -0.294 -0.304 -0.304
 0.284  1.139 -0.013 -0.222 -0.293 -0.303 -0.303
 0.286  1.141 -0.012 -0.221 -0.292 -0.303 -0.303
 0.288  1.143 -0.010 -0.219 -0.291 -0.302 -0.302
 0.290  1.145 -0.008 -0.218 -0.291 -0.301 -0.301
 0.292  1.146 -0.006 -0.216 -0.290 -0.300 -0.300
 0.294  1.148 -0.005 -0.215 -0.289 -0.299 -0.299
 0.296  1.150 -0.003 -0.214 -0.288 -0.298 -0.298
 0.298  1.152 -0.002 -0.212 -0.287 -0.297 -0.297
 0.300  1.153 -0.001 -0.211 -0.286 -0.297 -0.297
 0.302  1.155  0.001 -0.209 -0.285 -0.296 -0.296
 0.304  1.157  0.003 -0.208 -0.284 -0.295 -0.295
 0.306  1.158  0.005 -0.207 -0.283 -0.294 -0.294
 0.308  1.160  0.006 -0.205 -0.282 -0.293 -0.293
 0.310  1.161  0.008 -0.204 -0.281 -0.292 -0.292
 0.312  1.164  0.009 -0.203 -0.280 -0.291 -0.291
 0.314  1.165  0.011 -0.201 -0.279 -0.290 -0.290
 0.316  1.167  0.013 -0.200 -0.279 -0.290 -0.290
 0.318  1.168  0.015 -0.199 -0.278 -0.289 -0.289
 0.320  1.170  0.016 -0.198 -0.277 -0.288 -0.288
 0.322  1.172  0.018 -0.196 -0.276 -0.287 -0.287
 0.324  1.173  0.020 -0.195 -0.275 -0.286 -0.286
 0.326  1.175  0.021 -0.193 -0.274 -0.285 -0.285
 0.328  1.176  0.023 -0.192 -0.273 -0.284 -0.284
 0.330  1.178  0.025 -0.191 -0.272 -0.284 -0.284
 0.332  1.180  0.027 -0.190 -0.271 -0.283 -0.283
 0.334  1.182  0.028 -0.189 -0.270 -0.282 -0.282
 0.336  1.183  0.030 -0.187 -0.269 -0.281 -0.281
 0.338  1.185  0.032 -0.186 -0.268 -0.280 -0.280
 0.340  1.187  0.034 -0.185 -0.267 -0.279 -0.279
 0.342  1.188  0.036 -0.184 -0.265 -0.278 -0.278
 0.344  1.190  0.038 -0.182 -0.264 -0.278 -0.278
 0.346  1.192  0.040 -0.181 -0.263 -0.277 -0.277
 0.348  1.193  0.042 -0.180 -0.262 -0.276 -0.276
 0.350  1.195  0.043 -0.179 -0.261 -0.275 -0.275
 0.352  1.197  0.046 -0.178 -0.260 -0.275 -0.275
 0.354  1.198  0.048 -0.176 -0.259 -0.274 -0.274
 0.356  1.200  0.050 -0.175 -0.258 -0.273 -0.273
 0.358  1.201  0.052 -0.174 -0.257 -0.273 -0.273
 0.360  1.203  0.054 -0.173 -0.256 -0.272 -0.272
 0.362  1.205  0.056 -0.172 -0.255 -0.271 -0.271
 0.364  1.207  0.058 -0.171 -0.254 -0.270 -0.270
 0.366  1.208  0.060 -0.169 -0.252 -0.270 -0.270
 0.368  1.210  0.062 -0.168 -0.251 -0.269 -0.269
 0.370  1.212  0.064 -0.167 -0.250 -0.268 -0.268
 0.372  1.213  0.066 -0.166 -0.249 -0.267 -0.267
 0.374  1.215  0.068 -0.165 -0.248 -0.267 -0.267
 0.376  1.216  0.070 -0.164 -0.247 -0.266 -0.266
 0.378  1.218  0.072 -0.163 -0.246 -0.265 -0.265
 0.380  1.220  0.074 -0.162 -0.245 -0.265 -0.265
 0.382  1.221  0.076 -0.161 -0.244 -0.264 -0.264
 0.384  1.223  0.078 -0.159 -0.243 -0.263 -0.263
 0.386  1.225  0.080 -0.158 -0.242 -0.263 -0.263
 0.388  1.227  0.082 -0.157 -0.241 -0.262 -0.262
 0.390  1.228  0.083 -0.156 -0.240 -0.261 -0.261
 0.392  1.230  0.085 -0.155 -0.239 -0.261 -0.261
 0.394  1.231  0.087 -0.154 -0.238 -0.260 -0.260
 0.396  1.232  0.089 -0.153 -0.237 -0.259 -0.259
 0.398  1.234  0.090 -0.152 -0.236 -0.258 -0.258
 0.400  1.236  0.092 -0.151 -0.235 -0.258 -0.258
 0.402  1.237  0.094 -0.150 -0.235 -0.257 -0.257
 0.404  1.239  0.095 -0.149 -0.234 -0.256 -0.256
 0.406  1.241  0.097 -0.148 -0.233 -0.255 -0.255
 0.408  1.242  0.099 -0.147 -0.232 -0.254 -0.254
 0.410  1.244  0.100 -0.146 -0.231 -0.254 -0.254
 0.412  1.245  0.101 -0.145 -0.230 -0.253 -0.253
 0.414  1.246  0.103 -0.144 -0.229 -0.252 -0.252
 0.416  1.248  0.104 -0.143 -0.229 -0.251 -0.251
 0.418  1.250  0.106 -0.142 -0.228 -0.250 -0.250
 0.420  1.251  0.107 -0.141 -0.227 -0.249 -0.249
 0.422  1.252  0.108 -0.140 -0.226 -0.249 -0.249
 0.424  1.254  0.110 -0.139 -0.225 -0.248 -0.248
 0.426  1.255  0.111 -0.139 -0.224 -0.247 -0.247
 0.428  1.257  0.112 -0.137 -0.223 -0.246 -0.246
 0.430  1.258  0.114 -0.137 -0.223 -0.245 -0.245
 0.432  1.260  0.115 -0.136 -0.222 -0.244 -0.244
 0.434  1.261  0.116 -0.135 -0.221 -0.244 -0.244
 0.436  1.262  0.117 -0.134 -0.221 -0.243 -0.243
 0.438  1.264  0.118 -0.133 -0.220 -0.241 -0.241
 0.440  1.265  0.119 -0.132 -0.219 -0.241 -0.241
 0.442  1.267  0.121 -0.131 -0.218 -0.240 -0.240
 0.444  1.268  0.122 -0.130 -0.217 -0.239 -0.239
 0.446  1.269  0.123 -0.130 -0.217 -0.238 -0.238
 0.448  1.270  0.124 -0.129 -0.216 -0.237 -0.237
 0.450  1.272  0.125 -0.128 -0.215 -0.236 -0.236
 0.452  1.273  0.126 -0.127 -0.215 -0.235 -0.235
 0.454  1.274  0.127 -0.126 -0.214 -0.234 -0.234
 0.456  1.275  0.128 -0.125 -0.213 -0.233 -0.233
 0.458  1.277  0.129 -0.124 -0.213 -0.232 -0.232
 0.460  1.278  0.130 -0.123 -0.212 -0.231 -0.231
 0.462  1.279  0.131 -0.123 -0.211 -0.230 -0.230
 0.464  1.280  0.132 -0.122 -0.210 -0.229 -0.229
 0.466  1.281  0.133 -0.121 -0.210 -0.229 -0.229
 0.468  1.282  0.134 -0.120 -0.209 -0.228 -0.228
 0.470  1.283  0.135 -0.119 -0.208 -0.227 -0.227
 0.472  1.284  0.136 -0.119 -0.208 -0.226 -0.226
 0.474  1.285  0.137 -0.118 -0.207 -0.225 -0.225
 0.476  1.286  0.137 -0.117 -0.207 -0.224 -0.224
 0.478  1.288  0.138 -0.116 -0.206 -0.224 -0.224
 0.480  1.289  0.139 -0.116 -0.205 -0.223 -0.223
 0.482  1.289  0.140 -0.115 -0.205 -0.222 -0.222
 0.484  1.290  0.141 -0.114 -0.204 -0.221 -0.221
 0.486  1.291  0.142 -0.113 -0.203 -0.221 -0.221
 0.488  1.292  0.143 -0.112 -0.203 -0.220 -0.220
 0.490  1.293  0.144 -0.112 -0.202 -0.220 -0.220
 0.492  1.293  0.144 -0.111 -0.202 -0.219 -0.219
 0.494  1.294  0.145 -0.110 -0.201 -0.218 -0.218
 0.496  1.295  0.146 -0.109 -0.200 -0.218 -0.218
 0.498  1.296  0.147 -0.109 -0.200 -0.217 -0.217
 0.500  1.296  0.147 -0.108 -0.199 -0.216 -0.216
 0.502  1.297  0.148 -0.107 -0.199 -0.216 -0.216
 0.504  1.298  0.149 -0.107 -0.198 -0.215 -0.215
 0.506  1.298  0.149 -0.106 -0.198 -0.215 -0.215
 0.508  1.299  0.150 -0.105 -0.197 -0.214 -0.214
 0.510  1.299  0.151 -0.105 -0.197 -0.213 -0.213
 0.512  1.300  0.151 -0.104 -0.196 -0.213 -0.213
 0.514  1.300  0.152 -0.103 -0.195 -0.212 -0.212
 0.516  1.301  0.153 -0.103 -0.195 -0.212 -0.212
 0.518  1.301  0.154 -0.102 -0.194 -0.212 -0.212
 0.520  1.302  0.154 -0.101 -0.194 -0.211 -0.211
 0.522  1.303  0.155 -0.100 -0.193 -0.211 -0.211
 0.524  1.303  0.155 -0.100 -0.193 -0.210 -0.210
 0.526  1.304  0.156 -0.099 -0.192 -0.210 -0.210
 0.528  1.304  0.156 -0.099 -0.192 -0.209 -0.209
 0.530  1.304  0.157 -0.098 -0.191 -0.209 -0.209
 0.532  1.305  0.158 -0.098 -0.191 -0.209 -0.209
 0.534  1.305  0.158 -0.097 -0.190 -0.208 -0.208
 0.536  1.306  0.158 -0.097 -0.190 -0.208 -0.208
 0.538  1.306  0.159 -0.096 -0.189 -0.207 -0.207
 0.540  1.307  0.159 -0.096 -0.188 -0.207 -0.207
 0.542  1.307  0.160 -0.095 -0.188 -0.206 -0.206
 0.544  1.307  0.160 -0.095 -0.187 -0.206 -0.206
 0.546  1.308  0.160 -0.094 -0.187 -0.206 -0.206
 0.548  1.308  0.161 -0.094 -0.186 -0.205 -0.205
 0.550  1.309  0.161 -0.093 -0.186 -0.205 -0.205
 0.552  1.309  0.162 -0.093 -0.185 -0.204 -0.204
 0.554  1.309  0.162 -0.093 -0.185 -0.204 -0.204
 0.556  1.310  0.162 -0.092 -0.184 -0.203 -0.203
 0.558  1.311  0.162 -0.092 -0.184 -0.203 -0.203
 0.560  1.311  0.163 -0.091 -0.183 -0.202 -0.202
 0.562  1.311  0.163 -0.091 -0.183 -0.202 -0.202
 0.564  1.312  0.163 -0.091 -0.182 -0.201 -0.201
 0.566  1.312  0.163 -0.090 -0.182 -0.201 -0.201
 0.568  1.312  0.163 -0.090 -0.181 -0.200 -0.200
 0.570  1.313  0.164 -0.090 -0.181 -0.200 -0.200
 0.572  1.313  0.164 -0.089 -0.180 -0.200 -0.200
 0.574  1.314  0.164 -0.089 -0.180 -0.199 -0.199
 0.576  1.314  0.165 -0.089 -0.179 -0.199 -0.199
 0.578  1.314  0.165 -0.089 -0.179 -0.198 -0.198
 0.580  1.315  0.165 -0.089 -0.178 -0.198 -0.198
 0.582  1.315  0.165 -0.089 -0.177 -0.197 -0.197
 0.584  1.315  0.165 -0.088 -0.177 -0.197 -0.197
 0.586  1.316  0.165 -0.088 -0.176 -0.197 -0.197
 0.588  1.316  0.165 -0.088 -0.176 -0.196 -0.196
 0.590  1.316  0.165 -0.088 -0.175 -0.196 -0.196
 0.592  1.317  0.165 -0.087 -0.175 -0.195 -0.195
 0.594  1.317  0.165 -0.087 -0.174 -0.195 -0.195
 0.596  1.318  0.165 -0.087 -0.174 -0.194 -0.194
 0.598  1.318  0.166 -0.087 -0.173 -0.194 -0.194
 0.600  1.318  0.166 -0.087 -0.172 -0.193 -0.193
 0.602  1.319  0.166 -0.087 -0.172 -0.193 -0.193
 0.604  1.319  0.166 -0.086 -0.171 -0.192 -0.192
 0.606  1.319  0.166 -0.086 -0.170 -0.192 -0.192
 0.608  1.319  0.166 -0.086 -0.169 -0.191 -0.191
 0.610  1.320  0.166 -0.086 -0.169 -0.191 -0.191
 0.612  1.320  0.166 -0.085 -0.168 -0.190 -0.190
 0.614  1.320  0.166 -0.085 -0.168 -0.190 -0.190
 0.616  1.320  0.166 -0.085 -0.167 -0.189 -0.189
 0.618  1.321  0.166 -0.084 -0.166 -0.189 -0.189
 0.620  1.321  0.167 -0.084 -0.165 -0.188 -0.188
 0.622  1.321  0.167 -0.084 -0.165 -0.188 -0.188
 0.624  1.321  0.167 -0.084 -0.164 -0.187 -0.187
 0.626  1.321  0.167 -0.084 -0.163 -0.186 -0.186
 0.628  1.321  0.167 -0.083 -0.162 -0.186 -0.186
 0.630  1.322  0.167 -0.083 -0.161 -0.185 -0.185
 0.632  1.322  0.167 -0.083 -0.161 -0.185 -0.185
 0.634  1.322  0.167 -0.082 -0.160 -0.184 -0.184
 0.636  1.322  0.167 -0.082 -0.159 -0.183 -0.183
 0.638  1.322  0.168 -0.082 -0.158 -0.183 -0.183
 0.640  1.322  0.168 -0.082 -0.158 -0.182 -0.182
 0.642  1.322  0.168 -0.082 -0.157 -0.181 -0.181
 0.644  1.322  0.168 -0.081 -0.156 -0.181 -0.181
 0.646  1.323  0.168 -0.081 -0.155 -0.180 -0.180
 0.648  1.323  0.169 -0.081 -0.154 -0.179 -0.179
 0.650  1.323  0.169 -0.080 -0.153 -0.179 -0.179
 0.652  1.323  0.169 -0.080 -0.152 -0.178 -0.178
 0.654  1.323  0.169 -0.080 -0.151 -0.177 -0.177
 0.656  1.323  0.169 -0.080 -0.150 -0.177 -0.177
 0.658  1.323  0.169 -0.079 -0.150 -0.176 -0.176
 0.660  1.323  0.170 -0.079 -0.149 -0.175 -0.175
 0.662  1.323  0.170 -0.078 -0.147 -0.174 -0.174
 0.664  1.323  0.170 -0.078 -0.146 -0.174 -0.174
 0.666  1.323  0.171 -0.077 -0.145 -0.173 -0.173
 0.668  1.323  0.171 -0.077 -0.144 -0.172 -0.172
 0.670  1.323  0.172 -0.076 -0.144 -0.171 -0.171
 0.672  1.323  0.173 -0.075 -0.143 -0.171 -0.171
 0.674  1.324  0.173 -0.075 -0.142 -0.170 -0.170
 0.676  1.324  0.174 -0.073 -0.140 -0.169 -0.169
 0.678  1.324  0.175 -0.073 -0.139 -0.168 -0.168
 0.680  1.324  0.176 -0.072 -0.138 -0.167 -0.167
 0.682  1.325  0.177 -0.071 -0.137 -0.166 -0.166
 0.684  1.325  0.177 -0.070 -0.136 -0.165 -0.165
 0.686  1.326  0.178 -0.068 -0.135 -0.164 -0.164
 0.688  1.326  0.180 -0.067 -0.134 -0.163 -0.163
 0.690  1.326  0.181 -0.066 -0.133 -0.162 -0.162
 0.692  1.327  0.182 -0.065 -0.131 -0.161 -0.161
 0.694  1.327  0.183 -0.064 -0.130 -0.160 -0.160
 0.696  1.327  0.184 -0.062 -0.129 -0.158 -0.158
 0.698  1.328  0.185 -0.061 -0.128 -0.157 -0.157
 0.700  1.328  0.187 -0.059 -0.127 -0.156 -0.156
 0.702  1.328  0.188 -0.058 -0.125 -0.155 -0.155
 0.704  1.329  0.190 -0.057 -0.124 -0.154 -0.154
 0.706  1.329  0.191 -0.055 -0.123 -0.152 -0.152
 0.708  1.330  0.193 -0.053 -0.122 -0.151 -0.151
 0.710  1.330  0.195 -0.051 -0.121 -0.149 -0.149
 0.712  1.331  0.196 -0.050 -0.119 -0.148 -0.148
 0.714  1.332  0.198 -0.048 -0.118 -0.147 -0.147
 0.716  1.332  0.200 -0.046 -0.117 -0.145 -0.145
 0.718  1.333  0.202 -0.043 -0.115 -0.144 -0.144
 0.720  1.334  0.204 -0.041 -0.114 -0.142 -0.142
 0.722  1.335  0.206 -0.039 -0.113 -0.141 -0.141
 0.724  1.335  0.208 -0.037 -0.112 -0.139 -0.139
 0.726  1.336  0.210 -0.035 -0.111 -0.137 -0.137
 0.728  1.337  0.211 -0.033 -0.109 -0.136 -0.136
 0.730  1.337  0.214 -0.031 -0.108 -0.134 -0.134
 0.732  1.338  0.216 -0.030 -0.107 -0.133 -0.133
 0.734  1.339  0.217 -0.028 -0.106 -0.131 -0.131
 0.736  1.339  0.218 -0.026 -0.105 -0.129 -0.129
 0.738  1.340  0.220 -0.025 -0.104 -0.128 -0.128
 0.740  1.340  0.221 -0.023 -0.103 -0.126 -0.126
 0.742  1.342  0.223 -0.022 -0.102 -0.125 -0.125
 0.744  1.342  0.224 -0.020 -0.102 -0.123 -0.123
 0.746  1.343  0.225 -0.019 -0.101 -0.122 -0.122
 0.748  1.343  0.227 -0.018 -0.100 -0.120 -0.120
 0.750  1.344  0.228 -0.017 -0.099 -0.119 -0.119
 0.752  1.344  0.228 -0.016 -0.098 -0.117 -0.117
 0.754  1.345  0.229 -0.016 -0.098 -0.116 -0.116
 0.756  1.345  0.230 -0.015 -0.097 -0.115 -0.115
 0.758  1.346  0.231 -0.015 -0.097 -0.114 -0.114
 0.760  1.346  0.231 -0.014 -0.096 -0.113 -0.113
 0.762  1.347  0.231 -0.014 -0.096 -0.112 -0.112
 0.764  1.347  0.232 -0.014 -0.095 -0.111 -0.111
 0.766  1.347  0.232 -0.014 -0.095 -0.111 -0.111
 0.768  1.348  0.232 -0.015 -0.094 -0.110 -0.110
 0.770  1.348  0.232 -0.015 -0.094 -0.109 -0.109
 0.772  1.349  0.232 -0.015 -0.093 -0.109 -0.109
 0.774  1.349  0.232 -0.016 -0.093 -0.108 -0.108
 0.776  1.349  0.232 -0.016 -0.092 -0.108 -0.108
 0.778  1.349  0.232 -0.017 -0.092 -0.108 -0.108
 0.780  1.349  0.232 -0.018 -0.092 -0.108 -0.108
 0.782  1.349  0.231 -0.019 -0.092 -0.107 -0.107
 0.784  1.350  0.231 -0.020 -0.091 -0.107 -0.107
 0.786  1.350  0.230 -0.021 -0.091 -0.107 -0.107
 0.788  1.350  0.229 -0.023 -0.091 -0.107 -0.107
 0.790  1.350  0.228 -0.024 -0.092 -0.107 -0.107
 0.792  1.350  0.228 -0.026 -0.092 -0.107 -0.107
 0.794  1.350  0.227 -0.028 -0.092 -0.107 -0.107
 0.796  1.350  0.225 -0.029 -0.093 -0.107 -0.107
 0.798  1.350  0.224 -0.031 -0.094 -0.108 -0.108
 0.800  1.350  0.222 -0.033 -0.095 -0.108 -0.108
 0.802  1.350  0.221 -0.035 -0.096 -0.108 -0.108
 0.804  1.350  0.219 -0.038 -0.097 -0.109 -0.109
 0.806  1.349  0.217 -0.040 -0.099 -0.110 -0.110
 0.808  1.348  0.214 -0.043 -0.100 -0.110 -0.110
