# IsPeriodic    : True
# Period        : 0.627314 days
# Normalization : <g_mag>=0
# 
# Phase u_mag  g_mag  r_mag  i_mag  z_mag  y_mag
 0.000  0.409 -0.735 -0.666 -0.549 -0.493 -0.493
 0.002  0.409 -0.735 -0.666 -0.549 -0.493 -0.493
 0.004  0.409 -0.735 -0.664 -0.548 -0.492 -0.492
 0.006  0.410 -0.734 -0.662 -0.547 -0.492 -0.492
 0.008  0.411 -0.732 -0.660 -0.547 -0.491 -0.491
 0.010  0.413 -0.730 -0.657 -0.545 -0.491 -0.491
 0.012  0.414 -0.728 -0.653 -0.544 -0.490 -0.490
 0.014  0.417 -0.726 -0.649 -0.542 -0.489 -0.489
 0.016  0.419 -0.724 -0.645 -0.540 -0.488 -0.488
 0.018  0.422 -0.721 -0.641 -0.538 -0.487 -0.487
 0.020  0.425 -0.718 -0.637 -0.536 -0.486 -0.486
 0.022  0.428 -0.716 -0.632 -0.534 -0.484 -0.484
 0.024  0.431 -0.712 -0.627 -0.531 -0.482 -0.482
 0.026  0.435 -0.709 -0.623 -0.529 -0.481 -0.481
 0.028  0.439 -0.705 -0.619 -0.527 -0.479 -0.479
 0.030  0.442 -0.701 -0.614 -0.524 -0.477 -0.477
 0.032  0.446 -0.697 -0.610 -0.522 -0.475 -0.475
 0.034  0.451 -0.693 -0.606 -0.520 -0.473 -0.473
 0.036  0.455 -0.689 -0.602 -0.518 -0.470 -0.470
 0.038  0.460 -0.685 -0.598 -0.515 -0.468 -0.468
 0.040  0.464 -0.679 -0.594 -0.513 -0.465 -0.465
 0.042  0.470 -0.674 -0.591 -0.510 -0.462 -0.462
 0.044  0.475 -0.670 -0.586 -0.507 -0.459 -0.459
 0.046  0.481 -0.664 -0.582 -0.504 -0.455 -0.455
 0.048  0.486 -0.658 -0.578 -0.502 -0.452 -0.452
 0.050  0.492 -0.653 -0.574 -0.499 -0.449 -0.449
 0.052  0.498 -0.647 -0.570 -0.495 -0.446 -0.446
 0.054  0.505 -0.640 -0.565 -0.493 -0.442 -0.442
 0.056  0.512 -0.634 -0.561 -0.489 -0.439 -0.439
 0.058  0.518 -0.627 -0.557 -0.486 -0.435 -0.435
 0.060  0.525 -0.621 -0.552 -0.482 -0.432 -0.432
 0.062  0.533 -0.614 -0.548 -0.479 -0.428 -0.428
 0.064  0.541 -0.606 -0.543 -0.475 -0.425 -0.425
 0.066  0.547 -0.599 -0.538 -0.472 -0.421 -0.421
 0.068  0.556 -0.591 -0.534 -0.468 -0.417 -0.417
 0.070  0.564 -0.583 -0.530 -0.464 -0.414 -0.414
 0.072  0.572 -0.576 -0.526 -0.460 -0.412 -0.412
 0.074  0.580 -0.568 -0.522 -0.457 -0.408 -0.408
 0.076  0.588 -0.560 -0.517 -0.453 -0.405 -0.405
 0.078  0.597 -0.552 -0.513 -0.449 -0.403 -0.403
 0.080  0.605 -0.544 -0.509 -0.445 -0.400 -0.400
 0.082  0.614 -0.536 -0.505 -0.441 -0.397 -0.397
 0.084  0.621 -0.528 -0.501 -0.438 -0.394 -0.394
 0.086  0.629 -0.521 -0.496 -0.433 -0.392 -0.392
 0.088  0.637 -0.513 -0.492 -0.430 -0.389 -0.389
 0.090  0.645 -0.506 -0.487 -0.427 -0.387 -0.387
 0.092  0.652 -0.498 -0.483 -0.423 -0.385 -0.385
 0.094  0.660 -0.491 -0.479 -0.420 -0.382 -0.382
 0.096  0.667 -0.484 -0.475 -0.416 -0.380 -0.380
 0.098  0.675 -0.478 -0.471 -0.413 -0.378 -0.378
 0.100  0.681 -0.472 -0.467 -0.410 -0.375 -0.375
 0.102  0.688 -0.465 -0.463 -0.407 -0.373 -0.373
 0.104  0.695 -0.458 -0.458 -0.404 -0.371 -0.371
 0.106  0.701 -0.452 -0.454 -0.400 -0.369 -0.369
 0.108  0.708 -0.446 -0.450 -0.398 -0.367 -0.367
 0.110  0.715 -0.440 -0.446 -0.395 -0.365 -0.365
 0.112  0.721 -0.434 -0.443 -0.391 -0.364 -0.364
 0.114  0.727 -0.428 -0.439 -0.389 -0.362 -0.362
 0.116  0.733 -0.422 -0.434 -0.386 -0.361 -0.361
 0.118  0.739 -0.416 -0.430 -0.384 -0.360 -0.360
 0.120  0.746 -0.411 -0.427 -0.381 -0.358 -0.358
 0.122  0.751 -0.405 -0.423 -0.378 -0.356 -0.356
 0.124  0.757 -0.400 -0.419 -0.376 -0.355 -0.355
 0.126  0.762 -0.394 -0.415 -0.373 -0.354 -0.354
 0.128  0.768 -0.389 -0.411 -0.371 -0.353 -0.353
 0.130  0.773 -0.385 -0.408 -0.369 -0.351 -0.351
 0.132  0.778 -0.380 -0.404 -0.367 -0.350 -0.350
 0.134  0.783 -0.376 -0.401 -0.365 -0.349 -0.349
 0.136  0.788 -0.371 -0.396 -0.363 -0.347 -0.347
 0.138  0.793 -0.367 -0.393 -0.361 -0.346 -0.346
 0.140  0.798 -0.362 -0.390 -0.359 -0.345 -0.345
 0.142  0.802 -0.357 -0.386 -0.357 -0.344 -0.344
 0.144  0.806 -0.353 -0.382 -0.355 -0.342 -0.342
 0.146  0.811 -0.349 -0.378 -0.353 -0.340 -0.340
 0.148  0.815 -0.345 -0.375 -0.351 -0.339 -0.339
 0.150  0.820 -0.340 -0.372 -0.350 -0.338 -0.338
 0.152  0.824 -0.337 -0.368 -0.348 -0.336 -0.336
 0.154  0.829 -0.332 -0.365 -0.347 -0.335 -0.335
 0.156  0.833 -0.328 -0.361 -0.345 -0.333 -0.333
 0.158  0.837 -0.324 -0.358 -0.343 -0.331 -0.331
 0.160  0.842 -0.320 -0.354 -0.342 -0.330 -0.330
 0.162  0.845 -0.315 -0.351 -0.340 -0.328 -0.328
 0.164  0.850 -0.312 -0.348 -0.338 -0.327 -0.327
 0.166  0.854 -0.307 -0.344 -0.336 -0.325 -0.325
 0.168  0.859 -0.302 -0.341 -0.335 -0.323 -0.323
 0.170  0.863 -0.298 -0.338 -0.333 -0.322 -0.322
 0.172  0.867 -0.294 -0.335 -0.331 -0.320 -0.320
 0.174  0.872 -0.290 -0.331 -0.329 -0.318 -0.318
 0.176  0.875 -0.285 -0.329 -0.328 -0.317 -0.317
 0.178  0.880 -0.281 -0.325 -0.326 -0.315 -0.315
 0.180  0.884 -0.276 -0.322 -0.324 -0.313 -0.313
 0.182  0.888 -0.272 -0.319 -0.322 -0.312 -0.312
 0.184  0.893 -0.268 -0.316 -0.320 -0.310 -0.310
 0.186  0.897 -0.264 -0.313 -0.318 -0.308 -0.308
 0.188  0.902 -0.259 -0.310 -0.317 -0.306 -0.306
 0.190  0.905 -0.254 -0.306 -0.315 -0.304 -0.304
 0.192  0.910 -0.250 -0.304 -0.313 -0.302 -0.302
 0.194  0.914 -0.245 -0.301 -0.311 -0.300 -0.300
 0.196  0.918 -0.241 -0.297 -0.309 -0.298 -0.298
 0.198  0.923 -0.236 -0.295 -0.307 -0.296 -0.296
 0.200  0.927 -0.232 -0.292 -0.306 -0.294 -0.294
 0.202  0.931 -0.227 -0.289 -0.304 -0.292 -0.292
 0.204  0.935 -0.222 -0.286 -0.302 -0.290 -0.290
 0.206  0.939 -0.218 -0.283 -0.300 -0.288 -0.288
 0.208  0.944 -0.213 -0.281 -0.298 -0.286 -0.286
 0.210  0.947 -0.209 -0.278 -0.296 -0.285 -0.285
 0.212  0.952 -0.204 -0.275 -0.294 -0.283 -0.283
 0.214  0.956 -0.199 -0.272 -0.292 -0.281 -0.281
 0.216  0.960 -0.195 -0.269 -0.291 -0.279 -0.279
 0.218  0.965 -0.190 -0.267 -0.289 -0.277 -0.277
 0.220  0.968 -0.186 -0.264 -0.287 -0.276 -0.276
 0.222  0.973 -0.181 -0.261 -0.284 -0.274 -0.274
 0.224  0.977 -0.177 -0.259 -0.282 -0.272 -0.272
 0.226  0.980 -0.172 -0.256 -0.281 -0.270 -0.270
 0.228  0.985 -0.167 -0.254 -0.279 -0.268 -0.268
 0.230  0.989 -0.163 -0.251 -0.277 -0.267 -0.267
 0.232  0.993 -0.158 -0.249 -0.275 -0.265 -0.265
 0.234  0.997 -0.154 -0.246 -0.273 -0.264 -0.264
 0.236  1.000 -0.149 -0.244 -0.271 -0.262 -0.262
 0.238  1.005 -0.145 -0.241 -0.269 -0.260 -0.260
 0.240  1.008 -0.141 -0.239 -0.267 -0.259 -0.259
 0.242  1.013 -0.137 -0.236 -0.266 -0.257 -0.257
 0.244  1.016 -0.132 -0.234 -0.264 -0.256 -0.256
 0.246  1.019 -0.129 -0.231 -0.262 -0.254 -0.254
 0.248  1.024 -0.124 -0.229 -0.260 -0.252 -0.252
 0.250  1.027 -0.119 -0.226 -0.258 -0.251 -0.251
 0.252  1.030 -0.116 -0.224 -0.256 -0.249 -0.249
 0.254  1.035 -0.111 -0.221 -0.255 -0.248 -0.248
 0.256  1.038 -0.108 -0.219 -0.253 -0.246 -0.246
 0.258  1.041 -0.103 -0.217 -0.251 -0.245 -0.245
 0.260  1.045 -0.100 -0.215 -0.249 -0.243 -0.243
 0.262  1.048 -0.095 -0.212 -0.248 -0.242 -0.242
 0.264  1.052 -0.092 -0.210 -0.246 -0.240 -0.240
 0.266  1.056 -0.088 -0.207 -0.244 -0.239 -0.239
 0.268  1.059 -0.084 -0.206 -0.242 -0.238 -0.238
 0.270  1.062 -0.080 -0.203 -0.241 -0.236 -0.236
 0.272  1.066 -0.077 -0.201 -0.239 -0.234 -0.234
 0.274  1.069 -0.072 -0.199 -0.238 -0.233 -0.233
 0.276  1.072 -0.069 -0.197 -0.236 -0.232 -0.232
 0.278  1.076 -0.066 -0.194 -0.234 -0.231 -0.231
 0.280  1.079 -0.062 -0.193 -0.232 -0.229 -0.229
 0.282  1.082 -0.059 -0.190 -0.231 -0.227 -0.227
 0.284  1.085 -0.055 -0.188 -0.229 -0.226 -0.226
 0.286  1.088 -0.052 -0.186 -0.227 -0.225 -0.225
 0.288  1.091 -0.048 -0.184 -0.226 -0.224 -0.224
 0.290  1.095 -0.045 -0.182 -0.224 -0.222 -0.222
 0.292  1.098 -0.040 -0.180 -0.222 -0.220 -0.220
 0.294  1.101 -0.037 -0.178 -0.221 -0.219 -0.219
 0.296  1.103 -0.034 -0.176 -0.219 -0.218 -0.218
 0.298  1.107 -0.030 -0.174 -0.218 -0.216 -0.216
 0.300  1.110 -0.028 -0.172 -0.216 -0.215 -0.215
 0.302  1.113 -0.024 -0.170 -0.214 -0.213 -0.213
 0.304  1.116 -0.021 -0.168 -0.213 -0.212 -0.212
 0.306  1.119 -0.018 -0.166 -0.211 -0.210 -0.210
 0.308  1.122 -0.014 -0.164 -0.209 -0.209 -0.209
 0.310  1.126 -0.011 -0.162 -0.207 -0.207 -0.207
 0.312  1.128 -0.007 -0.160 -0.206 -0.206 -0.206
 0.314  1.131 -0.004 -0.158 -0.204 -0.204 -0.204
 0.316  1.134 -0.000 -0.155 -0.202 -0.203 -0.203
 0.318  1.138  0.003 -0.154 -0.201 -0.201 -0.201
 0.320  1.140  0.006 -0.151 -0.199 -0.200 -0.200
 0.322  1.143  0.010 -0.150 -0.198 -0.198 -0.198
 0.324  1.147  0.013 -0.147 -0.196 -0.197 -0.197
 0.326  1.149  0.016 -0.145 -0.194 -0.195 -0.195
 0.328  1.152  0.019 -0.143 -0.192 -0.194 -0.194
 0.330  1.155  0.023 -0.141 -0.191 -0.192 -0.192
 0.332  1.159  0.026 -0.139 -0.189 -0.191 -0.191
 0.334  1.161  0.029 -0.136 -0.187 -0.189 -0.189
 0.336  1.164  0.033 -0.135 -0.185 -0.188 -0.188
 0.338  1.168  0.036 -0.132 -0.184 -0.186 -0.186
 0.340  1.170  0.039 -0.131 -0.182 -0.184 -0.184
 0.342  1.173  0.042 -0.128 -0.180 -0.183 -0.183
 0.344  1.175  0.045 -0.126 -0.178 -0.182 -0.182
 0.346  1.179  0.049 -0.124 -0.176 -0.180 -0.180
 0.348  1.182  0.052 -0.122 -0.175 -0.179 -0.179
 0.350  1.184  0.055 -0.120 -0.173 -0.177 -0.177
 0.352  1.188  0.058 -0.117 -0.171 -0.175 -0.175
 0.354  1.191  0.061 -0.115 -0.169 -0.173 -0.173
 0.356  1.193  0.065 -0.112 -0.168 -0.172 -0.172
 0.358  1.196  0.067 -0.111 -0.166 -0.170 -0.170
 0.360  1.199  0.071 -0.108 -0.164 -0.169 -0.169
 0.362  1.202  0.074 -0.106 -0.162 -0.168 -0.168
 0.364  1.205  0.076 -0.104 -0.160 -0.166 -0.166
 0.366  1.208  0.080 -0.102 -0.159 -0.164 -0.164
 0.368  1.211  0.083 -0.099 -0.157 -0.163 -0.163
 0.370  1.213  0.087 -0.098 -0.155 -0.161 -0.161
 0.372  1.216  0.089 -0.095 -0.153 -0.159 -0.159
 0.374  1.219  0.092 -0.093 -0.151 -0.158 -0.158
 0.376  1.222  0.096 -0.090 -0.150 -0.156 -0.156
 0.378  1.224  0.098 -0.089 -0.148 -0.154 -0.154
 0.380  1.227  0.101 -0.086 -0.147 -0.153 -0.153
 0.382  1.230  0.105 -0.084 -0.144 -0.151 -0.151
 0.384  1.233  0.107 -0.082 -0.143 -0.150 -0.150
 0.386  1.235  0.111 -0.079 -0.141 -0.148 -0.148
 0.388  1.239  0.114 -0.077 -0.140 -0.146 -0.146
 0.390  1.241  0.116 -0.075 -0.138 -0.145 -0.145
 0.392  1.244  0.120 -0.073 -0.136 -0.143 -0.143
 0.394  1.246  0.123 -0.070 -0.134 -0.141 -0.141
 0.396  1.250  0.126 -0.069 -0.133 -0.139 -0.139
 0.398  1.252  0.129 -0.066 -0.131 -0.138 -0.138
 0.400  1.255  0.132 -0.064 -0.129 -0.136 -0.136
 0.402  1.257  0.135 -0.062 -0.128 -0.134 -0.134
 0.404  1.261  0.138 -0.060 -0.126 -0.133 -0.133
 0.406  1.263  0.142 -0.057 -0.124 -0.131 -0.131
 0.408  1.265  0.144 -0.056 -0.123 -0.129 -0.129
 0.410  1.268  0.147 -0.053 -0.121 -0.128 -0.128
 0.412  1.271  0.150 -0.051 -0.120 -0.126 -0.126
 0.414  1.273  0.153 -0.049 -0.118 -0.124 -0.124
 0.416  1.276  0.156 -0.046 -0.116 -0.123 -0.123
 0.418  1.278  0.159 -0.045 -0.115 -0.121 -0.121
 0.420  1.282  0.162 -0.042 -0.113 -0.119 -0.119
 0.422  1.284  0.164 -0.041 -0.111 -0.118 -0.118
 0.424  1.286  0.168 -0.038 -0.110 -0.116 -0.116
 0.426  1.290  0.171 -0.036 -0.109 -0.114 -0.114
 0.428  1.292  0.174 -0.034 -0.107 -0.112 -0.112
 0.430  1.294  0.177 -0.032 -0.105 -0.111 -0.111
 0.432  1.296  0.179 -0.030 -0.104 -0.109 -0.109
 0.434  1.299  0.183 -0.027 -0.102 -0.108 -0.108
 0.436  1.302  0.185 -0.025 -0.101 -0.106 -0.106
 0.438  1.304  0.188 -0.023 -0.099 -0.105 -0.105
 0.440  1.306  0.191 -0.021 -0.098 -0.103 -0.103
 0.442  1.309  0.193 -0.019 -0.096 -0.102 -0.102
 0.444  1.312  0.196 -0.017 -0.095 -0.100 -0.100
 0.446  1.314  0.199 -0.015 -0.093 -0.099 -0.099
 0.448  1.316  0.201 -0.013 -0.091 -0.097 -0.097
 0.450  1.318  0.204 -0.011 -0.090 -0.096 -0.096
 0.452  1.321  0.207 -0.009 -0.089 -0.094 -0.094
 0.454  1.323  0.209 -0.008 -0.087 -0.093 -0.093
 0.456  1.325  0.211 -0.005 -0.085 -0.091 -0.091
 0.458  1.327  0.214 -0.003 -0.084 -0.090 -0.090
 0.460  1.329  0.216 -0.002 -0.082 -0.089 -0.089
 0.462  1.332  0.218 -0.000 -0.081 -0.087 -0.087
 0.464  1.334  0.220  0.002 -0.079 -0.085 -0.085
 0.466  1.336  0.223  0.004 -0.078 -0.084 -0.084
 0.468  1.338  0.225  0.006 -0.076 -0.083 -0.083
 0.470  1.340  0.227  0.007 -0.075 -0.082 -0.082
 0.472  1.343  0.230  0.009 -0.073 -0.080 -0.080
 0.474  1.345  0.231  0.011 -0.071 -0.079 -0.079
 0.476  1.347  0.233  0.012 -0.070 -0.078 -0.078
 0.478  1.348  0.235  0.014 -0.069 -0.076 -0.076
 0.480  1.350  0.237  0.016 -0.067 -0.075 -0.075
 0.482  1.353  0.239  0.017 -0.065 -0.074 -0.074
 0.484  1.355  0.241  0.018 -0.064 -0.073 -0.073
 0.486  1.356  0.242  0.020 -0.062 -0.071 -0.071
 0.488  1.358  0.245  0.021 -0.060 -0.070 -0.070
 0.490  1.360  0.246  0.023 -0.059 -0.069 -0.069
 0.492  1.362  0.248  0.025 -0.058 -0.067 -0.067
 0.494  1.364  0.249  0.025 -0.056 -0.066 -0.066
 0.496  1.366  0.251  0.027 -0.054 -0.066 -0.066
 0.498  1.367  0.253  0.029 -0.053 -0.064 -0.064
 0.500  1.369  0.254  0.030 -0.051 -0.063 -0.063
 0.502  1.370  0.255  0.031 -0.049 -0.062 -0.062
 0.504  1.373  0.257  0.032 -0.048 -0.060 -0.060
 0.506  1.374  0.258  0.034 -0.047 -0.060 -0.060
 0.508  1.376  0.259  0.034 -0.045 -0.058 -0.058
 0.510  1.377  0.261  0.036 -0.044 -0.057 -0.057
 0.512  1.379  0.262  0.037 -0.042 -0.057 -0.057
 0.514  1.380  0.264  0.038 -0.041 -0.055 -0.055
 0.516  1.381  0.265  0.039 -0.040 -0.054 -0.054
 0.518  1.383  0.266  0.040 -0.038 -0.053 -0.053
 0.520  1.385  0.267  0.041 -0.037 -0.052 -0.052
 0.522  1.386  0.269  0.042 -0.036 -0.051 -0.051
 0.524  1.387  0.270  0.044 -0.034 -0.050 -0.050
 0.526  1.388  0.271  0.044 -0.033 -0.049 -0.049
 0.528  1.389  0.272  0.045 -0.032 -0.048 -0.048
 0.530  1.390  0.273  0.046 -0.031 -0.047 -0.047
 0.532  1.391  0.274  0.047 -0.029 -0.046 -0.046
 0.534  1.393  0.275  0.048 -0.029 -0.045 -0.045
 0.536  1.394  0.277  0.049 -0.027 -0.044 -0.044
 0.538  1.395  0.277  0.049 -0.027 -0.044 -0.044
 0.540  1.396  0.278  0.050 -0.026 -0.042 -0.042
 0.542  1.397  0.279  0.051 -0.025 -0.042 -0.042
 0.544  1.398  0.280  0.052 -0.024 -0.040 -0.040
 0.546  1.399  0.281  0.052 -0.023 -0.040 -0.040
 0.548  1.400  0.281  0.053 -0.022 -0.039 -0.039
 0.550  1.400  0.282  0.053 -0.021 -0.038 -0.038
 0.552  1.401  0.283  0.053 -0.020 -0.037 -0.037
 0.554  1.403  0.283  0.054 -0.020 -0.037 -0.037
 0.556  1.403  0.285  0.055 -0.019 -0.036 -0.036
 0.558  1.404  0.286  0.055 -0.018 -0.035 -0.035
 0.560  1.404  0.286  0.056 -0.018 -0.034 -0.034
 0.562  1.405  0.287  0.056 -0.018 -0.033 -0.033
 0.564  1.405  0.287  0.057 -0.017 -0.033 -0.033
 0.566  1.406  0.288  0.057 -0.016 -0.032 -0.032
 0.568  1.406  0.288  0.058 -0.016 -0.031 -0.031
 0.570  1.407  0.289  0.058 -0.016 -0.030 -0.030
 0.572  1.407  0.289  0.058 -0.015 -0.030 -0.030
 0.574  1.407  0.290  0.058 -0.015 -0.029 -0.029
 0.576  1.408  0.290  0.058 -0.014 -0.028 -0.028
 0.578  1.408  0.291  0.058 -0.014 -0.027 -0.027
 0.580  1.408  0.291  0.058 -0.013 -0.026 -0.026
 0.582  1.408  0.291  0.058 -0.013 -0.026 -0.026
 0.584  1.409  0.293  0.059 -0.013 -0.025 -0.025
 0.586  1.409  0.293  0.059 -0.013 -0.024 -0.024
 0.588  1.409  0.293  0.059 -0.013 -0.023 -0.023
 0.590  1.409  0.294  0.059 -0.012 -0.023 -0.023
 0.592  1.409  0.294  0.059 -0.012 -0.022 -0.022
 0.594  1.410  0.294  0.059 -0.011 -0.021 -0.021
 0.596  1.410  0.295  0.060 -0.011 -0.020 -0.020
 0.598  1.410  0.295  0.060 -0.011 -0.019 -0.019
 0.600  1.410  0.295  0.060 -0.011 -0.019 -0.019
 0.602  1.410  0.295  0.060 -0.011 -0.018 -0.018
 0.604  1.410  0.296  0.060 -0.010 -0.017 -0.017
 0.606  1.410  0.296  0.061 -0.010 -0.017 -0.017
 0.608  1.410  0.296  0.061 -0.009 -0.015 -0.015
 0.610  1.410  0.296  0.061 -0.009 -0.015 -0.015
 0.612  1.410  0.296  0.061 -0.009 -0.014 -0.014
 0.614  1.410  0.297  0.062 -0.009 -0.014 -0.014
 0.616  1.410  0.297  0.062 -0.009 -0.013 -0.013
 0.618  1.410  0.297  0.062 -0.008 -0.012 -0.012
 0.620  1.410  0.297  0.062 -0.008 -0.012 -0.012
 0.622  1.410  0.297  0.063 -0.007 -0.010 -0.010
 0.624  1.410  0.297  0.063 -0.007 -0.010 -0.010
 0.626  1.409  0.297  0.063 -0.007 -0.009 -0.009
 0.628  1.409  0.297  0.063 -0.007 -0.008 -0.008
 0.630  1.409  0.297  0.063 -0.007 -0.008 -0.008
 0.632  1.409  0.297  0.063 -0.007 -0.007 -0.007
 0.634  1.409  0.297  0.064 -0.006 -0.006 -0.006
 0.636  1.408  0.297  0.064 -0.006 -0.006 -0.006
 0.638  1.408  0.297  0.064 -0.005 -0.005 -0.005
 0.640  1.408  0.297  0.065 -0.005 -0.005 -0.005
 0.642  1.408  0.297  0.065 -0.005 -0.004 -0.004
 0.644  1.407  0.297  0.065 -0.005 -0.003 -0.003
 0.646  1.407  0.297  0.066 -0.005 -0.003 -0.003
 0.648  1.407  0.297  0.066 -0.005 -0.002 -0.002
 0.650  1.406  0.297  0.066 -0.004 -0.001 -0.001
 0.652  1.406  0.297  0.067 -0.004 -0.001 -0.001
 0.654  1.406  0.297  0.067 -0.004 -0.001 -0.001
 0.656  1.406  0.296  0.067 -0.004 -0.000 -0.000
 0.658  1.405  0.296  0.068 -0.003  0.001  0.001
 0.660  1.405  0.296  0.068 -0.003  0.001  0.001
 0.662  1.405  0.295  0.068 -0.003  0.002  0.002
 0.664  1.404  0.295  0.068 -0.003  0.002  0.002
 0.666  1.404  0.294  0.068 -0.003  0.003  0.003
 0.668  1.404  0.294  0.068 -0.002  0.003  0.003
 0.670  1.403  0.293  0.069 -0.002  0.004  0.004
 0.672  1.403  0.293  0.069 -0.002  0.004  0.004
 0.674  1.403  0.291  0.069 -0.002  0.004  0.004
 0.676  1.401  0.291  0.069 -0.002  0.004  0.004
 0.678  1.401  0.290  0.069 -0.002  0.005  0.005
 0.680  1.401  0.289  0.069 -0.002  0.006  0.006
 0.682  1.401  0.288  0.069 -0.002  0.006  0.006
 0.684  1.400  0.288  0.070 -0.002  0.006  0.006
 0.686  1.400  0.287  0.070 -0.002  0.006  0.006
 0.688  1.400  0.286  0.070 -0.002  0.007  0.007
 0.690  1.399  0.285  0.070 -0.002  0.007  0.007
 0.692  1.399  0.283  0.070 -0.002  0.008  0.008
 0.694  1.399  0.282  0.070 -0.002  0.008  0.008
 0.696  1.398  0.281  0.070 -0.003  0.008  0.008
 0.698  1.398  0.280  0.070 -0.003  0.008  0.008
 0.700  1.398  0.279  0.070 -0.003  0.009  0.009
 0.702  1.397  0.277  0.070 -0.003  0.009  0.009
 0.704  1.397  0.275  0.070 -0.003  0.010  0.010
 0.706  1.397  0.274  0.070 -0.004  0.010  0.010
 0.708  1.397  0.273  0.069 -0.004  0.010  0.010
 0.710  1.396  0.271  0.069 -0.004  0.011  0.011
 0.712  1.396  0.270  0.069 -0.005  0.012  0.012
 0.714  1.396  0.269  0.069 -0.005  0.012  0.012
 0.716  1.395  0.266  0.069 -0.005  0.013  0.013
 0.718  1.395  0.265  0.068 -0.005  0.014  0.014
 0.720  1.395  0.264  0.068 -0.005  0.015  0.015
 0.722  1.395  0.263  0.068 -0.005  0.015  0.015
 0.724  1.394  0.262  0.068 -0.005  0.017  0.017
 0.726  1.394  0.261  0.068 -0.005  0.017  0.017
 0.728  1.394  0.259  0.068 -0.005  0.019  0.019
 0.730  1.394  0.258  0.068 -0.005  0.020  0.020
 0.732  1.393  0.258  0.068 -0.005  0.021  0.021
 0.734  1.393  0.257  0.068 -0.005  0.022  0.022
 0.736  1.393  0.257  0.068 -0.005  0.023  0.023
 0.738  1.393  0.257  0.068 -0.004  0.024  0.024
 0.740  1.391  0.257  0.069 -0.004  0.026  0.026
 0.742  1.391  0.257  0.070 -0.003  0.028  0.028
 0.744  1.391  0.258  0.070 -0.002  0.029  0.029
 0.746  1.391  0.258  0.071 -0.002  0.030  0.030
 0.748  1.391  0.259  0.072 -0.001  0.032  0.032
 0.750  1.391  0.259  0.072  0.000  0.033  0.033
 0.752  1.390  0.261  0.073  0.001  0.035  0.035
 0.754  1.390  0.262  0.075  0.002  0.037  0.037
 0.756  1.390  0.263  0.076  0.003  0.038  0.038
 0.758  1.390  0.264  0.077  0.004  0.040  0.040
 0.760  1.390  0.265  0.078  0.005  0.042  0.042
 0.762  1.390  0.267  0.080  0.007  0.044  0.044
 0.764  1.390  0.269  0.082  0.008  0.046  0.046
 0.766  1.390  0.271  0.082  0.009  0.048  0.048
 0.768  1.390  0.273  0.084  0.011  0.050  0.050
 0.770  1.390  0.274  0.087  0.013  0.053  0.053
 0.772  1.390  0.278  0.088  0.014  0.055  0.055
 0.774  1.390  0.280  0.090  0.016  0.056  0.056
 0.776  1.389  0.282  0.092  0.018  0.059  0.059
 0.778  1.389  0.286  0.095  0.020  0.061  0.061
 0.780  1.389  0.288  0.096  0.022  0.064  0.064
 0.782  1.389  0.291  0.099  0.024  0.065  0.065
 0.784  1.389  0.295  0.101  0.027  0.068  0.068
 0.786  1.389  0.297  0.104  0.029  0.070  0.070
 0.788  1.389  0.301  0.106  0.031  0.073  0.073
 0.790  1.390  0.304  0.110  0.033  0.075  0.075
 0.792  1.390  0.307  0.112  0.035  0.077  0.077
 0.794  1.391  0.311  0.115  0.038  0.080  0.080
 0.796  1.391  0.314  0.117  0.040  0.082  0.082
 0.798  1.393  0.318  0.120  0.042  0.085  0.085
 0.800  1.394  0.321  0.123  0.045  0.087  0.087
 0.802  1.395  0.325  0.125  0.048  0.090  0.090
 0.804  1.396  0.328  0.128  0.050  0.092  0.092
 0.806  1.397  0.330  0.130  0.053  0.095  0.095
 0.808  1.399  0.334  0.133  0.055  0.098  0.098
