# IsPeriodic    : True
# Period        : 0.687576 days
# Normalization : <g_mag>=0
# 
# Phase u_mag  g_mag  r_mag  i_mag  z_mag  y_mag
 0.000  0.907 -0.232 -0.380 -0.431 -0.429 -0.429
 0.002  0.907 -0.232 -0.380 -0.431 -0.429 -0.429
 0.004  0.908 -0.232 -0.380 -0.431 -0.429 -0.429
 0.006  0.908 -0.232 -0.380 -0.431 -0.428 -0.428
 0.008  0.908 -0.231 -0.380 -0.431 -0.428 -0.428
 0.010  0.909 -0.231 -0.380 -0.430 -0.428 -0.428
 0.012  0.910 -0.231 -0.379 -0.430 -0.427 -0.427
 0.014  0.911 -0.230 -0.379 -0.429 -0.427 -0.427
 0.016  0.912 -0.230 -0.379 -0.429 -0.426 -0.426
 0.018  0.913 -0.229 -0.379 -0.429 -0.426 -0.426
 0.020  0.915 -0.228 -0.378 -0.428 -0.425 -0.425
 0.022  0.916 -0.228 -0.378 -0.427 -0.425 -0.425
 0.024  0.918 -0.227 -0.377 -0.427 -0.424 -0.424
 0.026  0.919 -0.226 -0.377 -0.426 -0.423 -0.423
 0.028  0.920 -0.226 -0.377 -0.426 -0.423 -0.423
 0.030  0.922 -0.225 -0.376 -0.425 -0.422 -0.422
 0.032  0.923 -0.224 -0.375 -0.425 -0.421 -0.421
 0.034  0.925 -0.223 -0.375 -0.424 -0.421 -0.421
 0.036  0.926 -0.222 -0.374 -0.423 -0.420 -0.420
 0.038  0.928 -0.221 -0.374 -0.423 -0.419 -0.419
 0.040  0.930 -0.220 -0.373 -0.422 -0.418 -0.418
 0.042  0.931 -0.219 -0.372 -0.422 -0.418 -0.418
 0.044  0.933 -0.218 -0.371 -0.421 -0.417 -0.417
 0.046  0.935 -0.217 -0.371 -0.421 -0.416 -0.416
 0.048  0.936 -0.216 -0.370 -0.420 -0.416 -0.416
 0.050  0.938 -0.214 -0.369 -0.420 -0.415 -0.415
 0.052  0.940 -0.213 -0.368 -0.419 -0.414 -0.414
 0.054  0.942 -0.212 -0.367 -0.418 -0.414 -0.414
 0.056  0.943 -0.210 -0.366 -0.418 -0.413 -0.413
 0.058  0.945 -0.209 -0.365 -0.417 -0.412 -0.412
 0.060  0.947 -0.207 -0.364 -0.417 -0.412 -0.412
 0.062  0.949 -0.206 -0.363 -0.416 -0.411 -0.411
 0.064  0.951 -0.204 -0.362 -0.415 -0.411 -0.411
 0.066  0.953 -0.202 -0.361 -0.415 -0.410 -0.410
 0.068  0.955 -0.200 -0.360 -0.414 -0.409 -0.409
 0.070  0.957 -0.199 -0.358 -0.414 -0.409 -0.409
 0.072  0.959 -0.197 -0.357 -0.413 -0.408 -0.408
 0.074  0.962 -0.195 -0.356 -0.412 -0.407 -0.407
 0.076  0.964 -0.193 -0.354 -0.412 -0.407 -0.407
 0.078  0.966 -0.192 -0.353 -0.411 -0.406 -0.406
 0.080  0.968 -0.190 -0.352 -0.411 -0.405 -0.405
 0.082  0.971 -0.188 -0.350 -0.410 -0.405 -0.405
 0.084  0.973 -0.186 -0.349 -0.409 -0.404 -0.404
 0.086  0.975 -0.184 -0.348 -0.409 -0.404 -0.404
 0.088  0.977 -0.182 -0.347 -0.408 -0.403 -0.403
 0.090  0.980 -0.181 -0.345 -0.408 -0.403 -0.403
 0.092  0.982 -0.179 -0.344 -0.407 -0.402 -0.402
 0.094  0.984 -0.177 -0.343 -0.406 -0.401 -0.401
 0.096  0.986 -0.175 -0.342 -0.405 -0.401 -0.401
 0.098  0.989 -0.173 -0.340 -0.405 -0.400 -0.400
 0.100  0.991 -0.171 -0.339 -0.404 -0.400 -0.400
 0.102  0.994 -0.170 -0.338 -0.404 -0.399 -0.399
 0.104  0.996 -0.168 -0.337 -0.403 -0.399 -0.399
 0.106  0.998 -0.166 -0.336 -0.402 -0.398 -0.398
 0.108  1.000 -0.165 -0.335 -0.402 -0.397 -0.397
 0.110  1.002 -0.163 -0.334 -0.401 -0.397 -0.397
 0.112  1.004 -0.161 -0.333 -0.400 -0.396 -0.396
 0.114  1.006 -0.159 -0.332 -0.399 -0.396 -0.396
 0.116  1.008 -0.157 -0.331 -0.399 -0.395 -0.395
 0.118  1.011 -0.156 -0.330 -0.398 -0.394 -0.394
 0.120  1.013 -0.154 -0.329 -0.397 -0.394 -0.394
 0.122  1.015 -0.153 -0.328 -0.396 -0.393 -0.393
 0.124  1.016 -0.151 -0.327 -0.395 -0.393 -0.393
 0.126  1.018 -0.149 -0.326 -0.395 -0.392 -0.392
 0.128  1.020 -0.147 -0.325 -0.394 -0.392 -0.392
 0.130  1.022 -0.146 -0.325 -0.393 -0.391 -0.391
 0.132  1.024 -0.144 -0.324 -0.392 -0.391 -0.391
 0.134  1.026 -0.143 -0.323 -0.391 -0.390 -0.390
 0.136  1.028 -0.141 -0.322 -0.390 -0.390 -0.390
 0.138  1.030 -0.139 -0.321 -0.390 -0.389 -0.389
 0.140  1.032 -0.138 -0.321 -0.389 -0.388 -0.388
 0.142  1.033 -0.136 -0.320 -0.388 -0.388 -0.388
 0.144  1.035 -0.135 -0.319 -0.387 -0.388 -0.388
 0.146  1.037 -0.133 -0.318 -0.386 -0.387 -0.387
 0.148  1.039 -0.132 -0.317 -0.385 -0.386 -0.386
 0.150  1.040 -0.130 -0.317 -0.384 -0.386 -0.386
 0.152  1.042 -0.129 -0.316 -0.383 -0.385 -0.385
 0.154  1.044 -0.127 -0.315 -0.382 -0.385 -0.385
 0.156  1.045 -0.125 -0.314 -0.381 -0.384 -0.384
 0.158  1.047 -0.124 -0.314 -0.381 -0.384 -0.384
 0.160  1.049 -0.122 -0.313 -0.379 -0.383 -0.383
 0.162  1.050 -0.121 -0.312 -0.378 -0.383 -0.383
 0.164  1.052 -0.119 -0.311 -0.378 -0.382 -0.382
 0.166  1.054 -0.117 -0.311 -0.377 -0.382 -0.382
 0.168  1.055 -0.116 -0.310 -0.376 -0.381 -0.381
 0.170  1.057 -0.114 -0.309 -0.375 -0.381 -0.381
 0.172  1.059 -0.112 -0.308 -0.374 -0.380 -0.380
 0.174  1.060 -0.111 -0.307 -0.373 -0.380 -0.380
 0.176  1.062 -0.109 -0.306 -0.372 -0.380 -0.380
 0.178  1.064 -0.107 -0.305 -0.371 -0.379 -0.379
 0.180  1.065 -0.106 -0.304 -0.370 -0.378 -0.378
 0.182  1.067 -0.104 -0.303 -0.369 -0.378 -0.378
 0.184  1.069 -0.102 -0.303 -0.369 -0.378 -0.378
 0.186  1.071 -0.101 -0.301 -0.368 -0.377 -0.377
 0.188  1.072 -0.099 -0.301 -0.367 -0.376 -0.376
 0.190  1.074 -0.097 -0.300 -0.366 -0.376 -0.376
 0.192  1.076 -0.095 -0.299 -0.366 -0.376 -0.376
 0.194  1.078 -0.094 -0.298 -0.365 -0.375 -0.375
 0.196  1.079 -0.092 -0.297 -0.364 -0.375 -0.375
 0.198  1.082 -0.090 -0.296 -0.363 -0.374 -0.374
 0.200  1.083 -0.088 -0.295 -0.363 -0.374 -0.374
 0.202  1.085 -0.087 -0.293 -0.362 -0.373 -0.373
 0.204  1.087 -0.085 -0.292 -0.361 -0.373 -0.373
 0.206  1.089 -0.083 -0.291 -0.360 -0.372 -0.372
 0.208  1.091 -0.082 -0.290 -0.360 -0.372 -0.372
 0.210  1.092 -0.080 -0.289 -0.359 -0.371 -0.371
 0.212  1.094 -0.078 -0.288 -0.358 -0.371 -0.371
 0.214  1.096 -0.076 -0.287 -0.358 -0.370 -0.370
 0.216  1.098 -0.074 -0.286 -0.357 -0.370 -0.370
 0.218  1.100 -0.072 -0.284 -0.357 -0.369 -0.369
 0.220  1.102 -0.070 -0.283 -0.356 -0.369 -0.369
 0.222  1.104 -0.069 -0.282 -0.355 -0.368 -0.368
 0.224  1.106 -0.067 -0.281 -0.355 -0.368 -0.368
 0.226  1.108 -0.065 -0.279 -0.354 -0.368 -0.368
 0.228  1.110 -0.063 -0.278 -0.354 -0.367 -0.367
 0.230  1.112 -0.061 -0.277 -0.353 -0.366 -0.366
 0.232  1.114 -0.060 -0.276 -0.352 -0.366 -0.366
 0.234  1.116 -0.058 -0.275 -0.352 -0.366 -0.366
 0.236  1.118 -0.056 -0.274 -0.351 -0.365 -0.365
 0.238  1.120 -0.054 -0.273 -0.351 -0.365 -0.365
 0.240  1.121 -0.052 -0.271 -0.350 -0.364 -0.364
 0.242  1.123 -0.050 -0.270 -0.349 -0.364 -0.364
 0.244  1.125 -0.049 -0.269 -0.349 -0.363 -0.363
 0.246  1.127 -0.047 -0.268 -0.348 -0.363 -0.363
 0.248  1.129 -0.045 -0.266 -0.348 -0.362 -0.362
 0.250  1.131 -0.043 -0.265 -0.347 -0.362 -0.362
 0.252  1.133 -0.042 -0.264 -0.346 -0.361 -0.361
 0.254  1.134 -0.040 -0.263 -0.346 -0.361 -0.361
 0.256  1.136 -0.038 -0.262 -0.345 -0.360 -0.360
 0.258  1.138 -0.036 -0.260 -0.344 -0.359 -0.359
 0.260  1.139 -0.034 -0.259 -0.344 -0.359 -0.359
 0.262  1.141 -0.032 -0.258 -0.343 -0.359 -0.359
 0.264  1.143 -0.031 -0.257 -0.342 -0.358 -0.358
 0.266  1.144 -0.029 -0.256 -0.342 -0.357 -0.357
 0.268  1.146 -0.027 -0.255 -0.341 -0.357 -0.357
 0.270  1.148 -0.025 -0.253 -0.340 -0.356 -0.356
 0.272  1.149 -0.024 -0.252 -0.339 -0.356 -0.356
 0.274  1.151 -0.022 -0.251 -0.339 -0.355 -0.355
 0.276  1.153 -0.020 -0.250 -0.338 -0.355 -0.355
 0.278  1.154 -0.018 -0.249 -0.337 -0.354 -0.354
 0.280  1.155 -0.016 -0.247 -0.336 -0.353 -0.353
 0.282  1.157 -0.015 -0.246 -0.336 -0.353 -0.353
 0.284  1.158 -0.013 -0.245 -0.335 -0.352 -0.352
 0.286  1.160 -0.011 -0.244 -0.334 -0.352 -0.352
 0.288  1.161 -0.010 -0.242 -0.333 -0.351 -0.351
 0.290  1.163 -0.008 -0.241 -0.332 -0.350 -0.350
 0.292  1.164 -0.006 -0.240 -0.331 -0.350 -0.350
 0.294  1.165 -0.004 -0.239 -0.330 -0.349 -0.349
 0.296  1.167 -0.003 -0.238 -0.330 -0.348 -0.348
 0.298  1.168 -0.001 -0.237 -0.329 -0.348 -0.348
 0.300  1.170  0.001 -0.236 -0.328 -0.347 -0.347
 0.302  1.171  0.002 -0.234 -0.327 -0.347 -0.347
 0.304  1.172  0.004 -0.233 -0.326 -0.346 -0.346
 0.306  1.173  0.006 -0.232 -0.325 -0.345 -0.345
 0.308  1.175  0.007 -0.231 -0.324 -0.345 -0.345
 0.310  1.176  0.009 -0.230 -0.323 -0.344 -0.344
 0.312  1.177  0.010 -0.229 -0.322 -0.343 -0.343
 0.314  1.179  0.012 -0.228 -0.321 -0.343 -0.343
 0.316  1.180  0.013 -0.227 -0.321 -0.342 -0.342
 0.318  1.181  0.015 -0.226 -0.320 -0.341 -0.341
 0.320  1.182  0.016 -0.225 -0.319 -0.341 -0.341
 0.322  1.184  0.017 -0.224 -0.318 -0.340 -0.340
 0.324  1.185  0.019 -0.223 -0.317 -0.339 -0.339
 0.326  1.186  0.020 -0.222 -0.316 -0.339 -0.339
 0.328  1.187  0.021 -0.221 -0.315 -0.338 -0.338
 0.330  1.189  0.023 -0.220 -0.315 -0.337 -0.337
 0.332  1.190  0.024 -0.219 -0.314 -0.337 -0.337
 0.334  1.192  0.025 -0.218 -0.313 -0.336 -0.336
 0.336  1.193  0.027 -0.217 -0.312 -0.335 -0.335
 0.338  1.194  0.028 -0.216 -0.311 -0.335 -0.335
 0.340  1.195  0.029 -0.216 -0.310 -0.334 -0.334
 0.342  1.197  0.031 -0.215 -0.309 -0.334 -0.334
 0.344  1.198  0.032 -0.214 -0.309 -0.333 -0.333
 0.346  1.199  0.033 -0.213 -0.308 -0.332 -0.332
 0.348  1.201  0.034 -0.212 -0.307 -0.332 -0.332
 0.350  1.202  0.035 -0.212 -0.306 -0.331 -0.331
 0.352  1.203  0.037 -0.211 -0.305 -0.331 -0.331
 0.354  1.204  0.037 -0.210 -0.305 -0.330 -0.330
 0.356  1.206  0.039 -0.209 -0.304 -0.330 -0.330
 0.358  1.207  0.040 -0.208 -0.303 -0.329 -0.329
 0.360  1.208  0.041 -0.208 -0.302 -0.328 -0.328
 0.362  1.209  0.042 -0.207 -0.301 -0.328 -0.328
 0.364  1.211  0.043 -0.206 -0.300 -0.327 -0.327
 0.366  1.212  0.044 -0.205 -0.300 -0.327 -0.327
 0.368  1.214  0.045 -0.205 -0.299 -0.326 -0.326
 0.370  1.215  0.046 -0.204 -0.298 -0.326 -0.326
 0.372  1.216  0.047 -0.203 -0.297 -0.325 -0.325
 0.374  1.217  0.048 -0.203 -0.297 -0.325 -0.325
 0.376  1.219  0.049 -0.202 -0.296 -0.324 -0.324
 0.378  1.220  0.051 -0.201 -0.295 -0.324 -0.324
 0.380  1.221  0.051 -0.201 -0.294 -0.323 -0.323
 0.382  1.222  0.053 -0.200 -0.294 -0.323 -0.323
 0.384  1.224  0.054 -0.199 -0.293 -0.322 -0.322
 0.386  1.225  0.055 -0.199 -0.292 -0.322 -0.322
 0.388  1.226  0.056 -0.198 -0.291 -0.321 -0.321
 0.390  1.228  0.057 -0.197 -0.291 -0.321 -0.321
 0.392  1.229  0.058 -0.197 -0.290 -0.320 -0.320
 0.394  1.230  0.059 -0.196 -0.289 -0.320 -0.320
 0.396  1.231  0.061 -0.195 -0.288 -0.319 -0.319
 0.398  1.232  0.062 -0.194 -0.288 -0.318 -0.318
 0.400  1.233  0.063 -0.194 -0.287 -0.318 -0.318
 0.402  1.235  0.064 -0.193 -0.286 -0.317 -0.317
 0.404  1.236  0.065 -0.192 -0.285 -0.317 -0.317
 0.406  1.237  0.067 -0.192 -0.285 -0.316 -0.316
 0.408  1.238  0.068 -0.191 -0.284 -0.316 -0.316
 0.410  1.240  0.069 -0.190 -0.283 -0.315 -0.315
 0.412  1.241  0.070 -0.190 -0.283 -0.314 -0.314
 0.414  1.242  0.071 -0.189 -0.282 -0.314 -0.314
 0.416  1.243  0.073 -0.188 -0.281 -0.313 -0.313
 0.418  1.244  0.074 -0.187 -0.280 -0.313 -0.313
 0.420  1.245  0.075 -0.187 -0.280 -0.312 -0.312
 0.422  1.246  0.077 -0.186 -0.279 -0.311 -0.311
 0.424  1.248  0.078 -0.185 -0.279 -0.311 -0.311
 0.426  1.249  0.079 -0.185 -0.278 -0.310 -0.310
 0.428  1.250  0.081 -0.184 -0.277 -0.310 -0.310
 0.430  1.251  0.082 -0.183 -0.276 -0.309 -0.309
 0.432  1.252  0.083 -0.183 -0.276 -0.308 -0.308
 0.434  1.253  0.085 -0.182 -0.275 -0.308 -0.308
 0.436  1.254  0.086 -0.181 -0.274 -0.307 -0.307
 0.438  1.255  0.087 -0.180 -0.274 -0.306 -0.306
 0.440  1.256  0.088 -0.180 -0.273 -0.305 -0.305
 0.442  1.258  0.089 -0.179 -0.273 -0.305 -0.305
 0.444  1.258  0.091 -0.178 -0.272 -0.304 -0.304
 0.446  1.260  0.092 -0.178 -0.271 -0.303 -0.303
 0.448  1.260  0.093 -0.177 -0.270 -0.303 -0.303
 0.450  1.261  0.094 -0.177 -0.270 -0.302 -0.302
 0.452  1.263  0.095 -0.176 -0.269 -0.301 -0.301
 0.454  1.263  0.097 -0.175 -0.269 -0.300 -0.300
 0.456  1.264  0.098 -0.175 -0.268 -0.300 -0.300
 0.458  1.265  0.099 -0.174 -0.267 -0.299 -0.299
 0.460  1.266  0.100 -0.173 -0.267 -0.298 -0.298
 0.462  1.267  0.101 -0.173 -0.266 -0.298 -0.298
 0.464  1.268  0.102 -0.172 -0.265 -0.297 -0.297
 0.466  1.269  0.103 -0.171 -0.265 -0.296 -0.296
 0.468  1.270  0.104 -0.171 -0.264 -0.296 -0.296
 0.470  1.270  0.105 -0.170 -0.264 -0.295 -0.295
 0.472  1.271  0.106 -0.169 -0.263 -0.295 -0.295
 0.474  1.272  0.107 -0.169 -0.262 -0.294 -0.294
 0.476  1.273  0.107 -0.168 -0.262 -0.293 -0.293
 0.478  1.274  0.109 -0.168 -0.261 -0.293 -0.293
 0.480  1.275  0.109 -0.167 -0.260 -0.292 -0.292
 0.482  1.275  0.110 -0.166 -0.260 -0.292 -0.292
 0.484  1.276  0.111 -0.166 -0.259 -0.291 -0.291
 0.486  1.277  0.112 -0.165 -0.258 -0.291 -0.291
 0.488  1.277  0.113 -0.165 -0.258 -0.290 -0.290
 0.490  1.278  0.113 -0.164 -0.257 -0.290 -0.290
 0.492  1.278  0.114 -0.164 -0.257 -0.289 -0.289
 0.494  1.279  0.114 -0.163 -0.256 -0.289 -0.289
 0.496  1.280  0.115 -0.162 -0.255 -0.288 -0.288
 0.498  1.280  0.116 -0.162 -0.255 -0.288 -0.288
 0.500  1.280  0.117 -0.161 -0.254 -0.287 -0.287
 0.502  1.281  0.117 -0.161 -0.254 -0.287 -0.287
 0.504  1.282  0.118 -0.160 -0.253 -0.286 -0.286
 0.506  1.282  0.118 -0.160 -0.252 -0.286 -0.286
 0.508  1.282  0.119 -0.159 -0.252 -0.285 -0.285
 0.510  1.283  0.120 -0.159 -0.251 -0.285 -0.285
 0.512  1.283  0.120 -0.158 -0.250 -0.285 -0.285
 0.514  1.284  0.121 -0.157 -0.250 -0.284 -0.284
 0.516  1.284  0.122 -0.157 -0.249 -0.284 -0.284
 0.518  1.285  0.122 -0.157 -0.249 -0.284 -0.284
 0.520  1.285  0.123 -0.156 -0.248 -0.283 -0.283
 0.522  1.285  0.123 -0.156 -0.247 -0.283 -0.283
 0.524  1.286  0.124 -0.155 -0.247 -0.283 -0.283
 0.526  1.286  0.124 -0.155 -0.246 -0.282 -0.282
 0.528  1.286  0.125 -0.154 -0.246 -0.282 -0.282
 0.530  1.287  0.126 -0.154 -0.245 -0.282 -0.282
 0.532  1.287  0.126 -0.153 -0.245 -0.281 -0.281
 0.534  1.287  0.126 -0.153 -0.244 -0.281 -0.281
 0.536  1.288  0.127 -0.152 -0.243 -0.281 -0.281
 0.538  1.288  0.128 -0.152 -0.243 -0.280 -0.280
 0.540  1.289  0.128 -0.151 -0.242 -0.280 -0.280
 0.542  1.289  0.129 -0.151 -0.242 -0.280 -0.280
 0.544  1.289  0.129 -0.151 -0.241 -0.279 -0.279
 0.546  1.289  0.130 -0.150 -0.241 -0.279 -0.279
 0.548  1.290  0.130 -0.150 -0.240 -0.279 -0.279
 0.550  1.290  0.131 -0.149 -0.240 -0.279 -0.279
 0.552  1.290  0.131 -0.149 -0.239 -0.278 -0.278
 0.554  1.291  0.132 -0.149 -0.239 -0.278 -0.278
 0.556  1.291  0.132 -0.148 -0.238 -0.277 -0.277
 0.558  1.292  0.132 -0.148 -0.238 -0.277 -0.277
 0.560  1.292  0.133 -0.147 -0.237 -0.277 -0.277
 0.562  1.292  0.134 -0.147 -0.237 -0.277 -0.277
 0.564  1.292  0.134 -0.147 -0.236 -0.276 -0.276
 0.566  1.293  0.134 -0.146 -0.236 -0.276 -0.276
 0.568  1.293  0.135 -0.146 -0.235 -0.275 -0.275
 0.570  1.293  0.135 -0.145 -0.235 -0.275 -0.275
 0.572  1.294  0.136 -0.145 -0.234 -0.275 -0.275
 0.574  1.294  0.136 -0.145 -0.234 -0.275 -0.275
 0.576  1.294  0.136 -0.144 -0.234 -0.274 -0.274
 0.578  1.294  0.137 -0.144 -0.233 -0.274 -0.274
 0.580  1.295  0.137 -0.144 -0.233 -0.273 -0.273
 0.582  1.295  0.138 -0.143 -0.232 -0.273 -0.273
 0.584  1.295  0.138 -0.143 -0.232 -0.273 -0.273
 0.586  1.296  0.138 -0.142 -0.231 -0.273 -0.273
 0.588  1.296  0.139 -0.142 -0.231 -0.272 -0.272
 0.590  1.296  0.139 -0.142 -0.231 -0.272 -0.272
 0.592  1.297  0.140 -0.142 -0.230 -0.271 -0.271
 0.594  1.297  0.140 -0.141 -0.230 -0.271 -0.271
 0.596  1.297  0.140 -0.141 -0.229 -0.271 -0.271
 0.598  1.297  0.140 -0.140 -0.229 -0.271 -0.271
 0.600  1.297  0.141 -0.140 -0.228 -0.270 -0.270
 0.602  1.298  0.141 -0.140 -0.228 -0.270 -0.270
 0.604  1.298  0.141 -0.139 -0.228 -0.269 -0.269
 0.606  1.298  0.142 -0.139 -0.227 -0.269 -0.269
 0.608  1.298  0.142 -0.138 -0.227 -0.268 -0.268
 0.610  1.299  0.142 -0.138 -0.227 -0.268 -0.268
 0.612  1.299  0.142 -0.137 -0.226 -0.268 -0.268
 0.614  1.299  0.142 -0.137 -0.226 -0.267 -0.267
 0.616  1.299  0.142 -0.136 -0.225 -0.267 -0.267
 0.618  1.299  0.143 -0.136 -0.225 -0.266 -0.266
 0.620  1.299  0.143 -0.136 -0.225 -0.266 -0.266
 0.622  1.299  0.143 -0.135 -0.225 -0.266 -0.266
 0.624  1.300  0.143 -0.135 -0.224 -0.265 -0.265
 0.626  1.300  0.143 -0.134 -0.224 -0.265 -0.265
 0.628  1.300  0.144 -0.134 -0.223 -0.264 -0.264
 0.630  1.300  0.144 -0.133 -0.223 -0.264 -0.264
 0.632  1.300  0.144 -0.133 -0.223 -0.264 -0.264
 0.634  1.300  0.144 -0.132 -0.222 -0.263 -0.263
 0.636  1.300  0.144 -0.132 -0.222 -0.263 -0.263
 0.638  1.301  0.144 -0.131 -0.222 -0.262 -0.262
 0.640  1.301  0.144 -0.131 -0.222 -0.262 -0.262
 0.642  1.301  0.144 -0.130 -0.221 -0.261 -0.261
 0.644  1.301  0.144 -0.130 -0.221 -0.261 -0.261
 0.646  1.301  0.144 -0.129 -0.221 -0.260 -0.260
 0.648  1.301  0.144 -0.129 -0.220 -0.260 -0.260
 0.650  1.301  0.144 -0.128 -0.220 -0.259 -0.259
 0.652  1.301  0.144 -0.127 -0.220 -0.259 -0.259
 0.654  1.301  0.144 -0.127 -0.219 -0.258 -0.258
 0.656  1.301  0.144 -0.126 -0.219 -0.258 -0.258
 0.658  1.301  0.144 -0.126 -0.219 -0.257 -0.257
 0.660  1.301  0.144 -0.125 -0.219 -0.256 -0.256
 0.662  1.301  0.145 -0.124 -0.219 -0.256 -0.256
 0.664  1.302  0.145 -0.124 -0.218 -0.255 -0.255
 0.666  1.302  0.145 -0.123 -0.218 -0.255 -0.255
 0.668  1.302  0.146 -0.122 -0.218 -0.254 -0.254
 0.670  1.302  0.146 -0.121 -0.217 -0.254 -0.254
 0.672  1.302  0.146 -0.121 -0.217 -0.253 -0.253
 0.674  1.302  0.146 -0.120 -0.216 -0.252 -0.252
 0.676  1.302  0.147 -0.119 -0.216 -0.252 -0.252
 0.678  1.302  0.147 -0.118 -0.216 -0.251 -0.251
 0.680  1.302  0.148 -0.117 -0.216 -0.250 -0.250
 0.682  1.303  0.148 -0.116 -0.215 -0.250 -0.250
 0.684  1.303  0.149 -0.116 -0.215 -0.249 -0.249
 0.686  1.303  0.149 -0.115 -0.214 -0.248 -0.248
 0.688  1.303  0.150 -0.114 -0.214 -0.247 -0.247
 0.690  1.304  0.150 -0.113 -0.213 -0.246 -0.246
 0.692  1.304  0.151 -0.112 -0.213 -0.246 -0.246
 0.694  1.304  0.152 -0.111 -0.213 -0.245 -0.245
 0.696  1.304  0.152 -0.110 -0.212 -0.244 -0.244
 0.698  1.305  0.153 -0.109 -0.212 -0.243 -0.243
 0.700  1.305  0.154 -0.107 -0.211 -0.242 -0.242
 0.702  1.305  0.154 -0.106 -0.211 -0.241 -0.241
 0.704  1.306  0.155 -0.105 -0.210 -0.240 -0.240
 0.706  1.306  0.156 -0.104 -0.210 -0.239 -0.239
 0.708  1.307  0.157 -0.103 -0.210 -0.238 -0.238
 0.710  1.307  0.158 -0.102 -0.209 -0.237 -0.237
 0.712  1.307  0.159 -0.101 -0.208 -0.236 -0.236
 0.714  1.308  0.160 -0.099 -0.208 -0.235 -0.235
 0.716  1.309  0.160 -0.098 -0.207 -0.234 -0.234
 0.718  1.309  0.162 -0.097 -0.207 -0.233 -0.233
 0.720  1.309  0.162 -0.096 -0.206 -0.232 -0.232
 0.722  1.310  0.163 -0.094 -0.205 -0.231 -0.231
 0.724  1.311  0.164 -0.094 -0.205 -0.229 -0.229
 0.726  1.311  0.165 -0.093 -0.204 -0.228 -0.228
 0.728  1.312  0.165 -0.092 -0.204 -0.227 -0.227
 0.730  1.312  0.166 -0.092 -0.203 -0.226 -0.226
 0.732  1.313  0.166 -0.091 -0.203 -0.225 -0.225
 0.734  1.314  0.167 -0.091 -0.202 -0.223 -0.223
 0.736  1.314  0.167 -0.091 -0.202 -0.222 -0.222
 0.738  1.314  0.167 -0.091 -0.201 -0.221 -0.221
 0.740  1.315  0.167 -0.092 -0.201 -0.220 -0.220
 0.742  1.316  0.167 -0.092 -0.201 -0.219 -0.219
 0.744  1.316  0.167 -0.093 -0.201 -0.218 -0.218
 0.746  1.316  0.167 -0.094 -0.200 -0.217 -0.217
 0.748  1.317  0.166 -0.094 -0.200 -0.215 -0.215
 0.750  1.317  0.166 -0.095 -0.200 -0.214 -0.214
 0.752  1.318  0.166 -0.097 -0.201 -0.213 -0.213
 0.754  1.318  0.165 -0.098 -0.201 -0.213 -0.213
 0.756  1.319  0.164 -0.099 -0.201 -0.212 -0.212
 0.758  1.319  0.164 -0.101 -0.201 -0.211 -0.211
 0.760  1.319  0.163 -0.103 -0.202 -0.210 -0.210
 0.762  1.320  0.162 -0.105 -0.202 -0.210 -0.210
 0.764  1.320  0.161 -0.107 -0.203 -0.209 -0.209
 0.766  1.320  0.160 -0.109 -0.204 -0.209 -0.209
 0.768  1.321  0.159 -0.112 -0.204 -0.208 -0.208
 0.770  1.321  0.158 -0.114 -0.205 -0.207 -0.207
 0.772  1.321  0.156 -0.117 -0.206 -0.207 -0.207
 0.774  1.321  0.155 -0.120 -0.207 -0.207 -0.207
 0.776  1.321  0.154 -0.123 -0.208 -0.207 -0.207
 0.778  1.321  0.152 -0.126 -0.210 -0.206 -0.206
 0.780  1.321  0.150 -0.130 -0.211 -0.206 -0.206
 0.782  1.321  0.148 -0.133 -0.212 -0.206 -0.206
 0.784  1.322  0.147 -0.137 -0.213 -0.206 -0.206
 0.786  1.322  0.145 -0.141 -0.215 -0.206 -0.206
 0.788  1.322  0.143 -0.144 -0.216 -0.206 -0.206
 0.790  1.322  0.140 -0.149 -0.218 -0.206 -0.206
 0.792  1.322  0.138 -0.153 -0.219 -0.206 -0.206
 0.794  1.322  0.136 -0.156 -0.221 -0.206 -0.206
 0.796  1.322  0.134 -0.160 -0.223 -0.206 -0.206
 0.798  1.322  0.131 -0.164 -0.225 -0.206 -0.206
 0.800  1.322  0.128 -0.168 -0.227 -0.207 -0.207
 0.802  1.322  0.125 -0.173 -0.229 -0.207 -0.207
 0.804  1.322  0.122 -0.177 -0.231 -0.207 -0.207
 0.806  1.321  0.120 -0.181 -0.233 -0.208 -0.208
 0.808  1.321  0.116 -0.185 -0.235 -0.208 -0.208
