# IsPeriodic    : True
# Period        : 0.623365 days
# Normalization : <g_mag>=0
# 
# Phase u_mag  g_mag  r_mag  i_mag  z_mag  y_mag
 0.000  0.556 -0.427 -0.477 -0.465 -0.526 -0.526
 0.002  0.556 -0.427 -0.477 -0.465 -0.526 -0.526
 0.004  0.556 -0.427 -0.477 -0.464 -0.526 -0.526
 0.006  0.557 -0.426 -0.477 -0.464 -0.526 -0.526
 0.008  0.558 -0.425 -0.476 -0.464 -0.526 -0.526
 0.010  0.559 -0.425 -0.476 -0.463 -0.525 -0.525
 0.012  0.561 -0.424 -0.475 -0.462 -0.525 -0.525
 0.014  0.562 -0.423 -0.475 -0.462 -0.524 -0.524
 0.016  0.565 -0.421 -0.474 -0.461 -0.524 -0.524
 0.018  0.567 -0.420 -0.474 -0.459 -0.524 -0.524
 0.020  0.569 -0.418 -0.473 -0.459 -0.523 -0.523
 0.022  0.571 -0.417 -0.472 -0.458 -0.523 -0.523
 0.024  0.574 -0.415 -0.471 -0.456 -0.522 -0.522
 0.026  0.577 -0.413 -0.470 -0.455 -0.521 -0.521
 0.028  0.579 -0.412 -0.470 -0.454 -0.521 -0.521
 0.030  0.582 -0.410 -0.469 -0.453 -0.520 -0.520
 0.032  0.585 -0.408 -0.468 -0.452 -0.519 -0.519
 0.034  0.587 -0.405 -0.467 -0.450 -0.519 -0.519
 0.036  0.590 -0.403 -0.465 -0.449 -0.518 -0.518
 0.038  0.593 -0.401 -0.464 -0.448 -0.518 -0.518
 0.040  0.596 -0.398 -0.463 -0.447 -0.517 -0.517
 0.042  0.599 -0.396 -0.461 -0.445 -0.516 -0.516
 0.044  0.602 -0.393 -0.460 -0.444 -0.515 -0.515
 0.046  0.605 -0.391 -0.459 -0.443 -0.515 -0.515
 0.048  0.608 -0.388 -0.457 -0.441 -0.513 -0.513
 0.050  0.611 -0.386 -0.456 -0.440 -0.513 -0.513
 0.052  0.614 -0.383 -0.454 -0.438 -0.511 -0.511
 0.054  0.618 -0.379 -0.452 -0.437 -0.510 -0.510
 0.056  0.621 -0.376 -0.451 -0.435 -0.510 -0.510
 0.058  0.624 -0.373 -0.449 -0.434 -0.508 -0.508
 0.060  0.627 -0.370 -0.447 -0.432 -0.507 -0.507
 0.062  0.631 -0.366 -0.445 -0.431 -0.506 -0.506
 0.064  0.635 -0.363 -0.443 -0.429 -0.505 -0.505
 0.066  0.638 -0.359 -0.441 -0.428 -0.504 -0.504
 0.068  0.642 -0.355 -0.439 -0.426 -0.502 -0.502
 0.070  0.646 -0.351 -0.437 -0.425 -0.501 -0.501
 0.072  0.650 -0.347 -0.435 -0.423 -0.500 -0.500
 0.074  0.653 -0.343 -0.433 -0.422 -0.498 -0.498
 0.076  0.658 -0.339 -0.431 -0.420 -0.497 -0.497
 0.078  0.662 -0.335 -0.428 -0.418 -0.496 -0.496
 0.080  0.665 -0.331 -0.426 -0.417 -0.495 -0.495
 0.082  0.670 -0.326 -0.424 -0.415 -0.493 -0.493
 0.084  0.674 -0.322 -0.421 -0.413 -0.492 -0.492
 0.086  0.678 -0.318 -0.419 -0.411 -0.491 -0.491
 0.088  0.682 -0.314 -0.417 -0.410 -0.490 -0.490
 0.090  0.686 -0.309 -0.415 -0.408 -0.488 -0.488
 0.092  0.690 -0.305 -0.413 -0.406 -0.487 -0.487
 0.094  0.695 -0.301 -0.411 -0.404 -0.486 -0.486
 0.096  0.698 -0.297 -0.409 -0.402 -0.485 -0.485
 0.098  0.703 -0.293 -0.406 -0.401 -0.483 -0.483
 0.100  0.706 -0.289 -0.404 -0.399 -0.482 -0.482
 0.102  0.711 -0.285 -0.402 -0.397 -0.481 -0.481
 0.104  0.715 -0.281 -0.400 -0.396 -0.480 -0.480
 0.106  0.719 -0.277 -0.397 -0.394 -0.479 -0.479
 0.108  0.723 -0.273 -0.395 -0.393 -0.478 -0.478
 0.110  0.727 -0.269 -0.393 -0.391 -0.477 -0.477
 0.112  0.730 -0.266 -0.391 -0.390 -0.475 -0.475
 0.114  0.734 -0.262 -0.389 -0.388 -0.474 -0.474
 0.116  0.738 -0.259 -0.387 -0.387 -0.474 -0.474
 0.118  0.742 -0.255 -0.385 -0.385 -0.472 -0.472
 0.120  0.745 -0.252 -0.382 -0.384 -0.471 -0.471
 0.122  0.749 -0.248 -0.380 -0.382 -0.470 -0.470
 0.124  0.752 -0.244 -0.378 -0.381 -0.469 -0.469
 0.126  0.756 -0.242 -0.376 -0.379 -0.468 -0.468
 0.128  0.759 -0.238 -0.373 -0.378 -0.467 -0.467
 0.130  0.762 -0.235 -0.371 -0.377 -0.466 -0.466
 0.132  0.766 -0.232 -0.369 -0.375 -0.465 -0.465
 0.134  0.770 -0.229 -0.367 -0.374 -0.464 -0.464
 0.136  0.773 -0.225 -0.365 -0.373 -0.464 -0.464
 0.138  0.777 -0.222 -0.362 -0.372 -0.462 -0.462
 0.140  0.780 -0.219 -0.360 -0.370 -0.462 -0.462
 0.142  0.783 -0.217 -0.358 -0.369 -0.461 -0.461
 0.144  0.786 -0.214 -0.356 -0.368 -0.460 -0.460
 0.146  0.789 -0.211 -0.354 -0.367 -0.459 -0.459
 0.148  0.792 -0.208 -0.352 -0.366 -0.458 -0.458
 0.150  0.795 -0.205 -0.350 -0.365 -0.457 -0.457
 0.152  0.798 -0.202 -0.348 -0.363 -0.456 -0.456
 0.154  0.801 -0.199 -0.346 -0.363 -0.456 -0.456
 0.156  0.804 -0.197 -0.343 -0.362 -0.454 -0.454
 0.158  0.807 -0.195 -0.341 -0.360 -0.454 -0.454
 0.160  0.810 -0.192 -0.339 -0.360 -0.453 -0.453
 0.162  0.813 -0.189 -0.337 -0.359 -0.452 -0.452
 0.164  0.816 -0.187 -0.335 -0.357 -0.451 -0.451
 0.166  0.819 -0.184 -0.333 -0.357 -0.450 -0.450
 0.168  0.822 -0.181 -0.332 -0.356 -0.449 -0.449
 0.170  0.825 -0.178 -0.330 -0.354 -0.448 -0.448
 0.172  0.828 -0.175 -0.328 -0.354 -0.447 -0.447
 0.174  0.831 -0.172 -0.326 -0.353 -0.446 -0.446
 0.176  0.834 -0.170 -0.324 -0.351 -0.446 -0.446
 0.178  0.837 -0.167 -0.322 -0.351 -0.444 -0.444
 0.180  0.840 -0.164 -0.320 -0.349 -0.444 -0.444
 0.182  0.844 -0.161 -0.319 -0.348 -0.443 -0.443
 0.184  0.847 -0.158 -0.317 -0.347 -0.442 -0.442
 0.186  0.850 -0.155 -0.315 -0.346 -0.441 -0.441
 0.188  0.853 -0.152 -0.314 -0.345 -0.440 -0.440
 0.190  0.856 -0.150 -0.312 -0.344 -0.439 -0.439
 0.192  0.860 -0.147 -0.310 -0.343 -0.438 -0.438
 0.194  0.863 -0.143 -0.309 -0.342 -0.437 -0.437
 0.196  0.866 -0.140 -0.307 -0.341 -0.436 -0.436
 0.198  0.869 -0.137 -0.306 -0.339 -0.435 -0.435
 0.200  0.872 -0.135 -0.304 -0.338 -0.434 -0.434
 0.202  0.876 -0.132 -0.302 -0.337 -0.433 -0.433
 0.204  0.879 -0.128 -0.301 -0.336 -0.432 -0.432
 0.206  0.882 -0.125 -0.299 -0.335 -0.431 -0.431
 0.208  0.886 -0.123 -0.298 -0.333 -0.430 -0.430
 0.210  0.889 -0.119 -0.297 -0.332 -0.429 -0.429
 0.212  0.892 -0.116 -0.295 -0.331 -0.428 -0.428
 0.214  0.896 -0.113 -0.294 -0.330 -0.428 -0.428
 0.216  0.899 -0.110 -0.293 -0.328 -0.426 -0.426
 0.218  0.903 -0.106 -0.291 -0.327 -0.426 -0.426
 0.220  0.906 -0.103 -0.290 -0.326 -0.425 -0.425
 0.222  0.910 -0.100 -0.289 -0.324 -0.424 -0.424
 0.224  0.913 -0.097 -0.287 -0.323 -0.423 -0.423
 0.226  0.916 -0.093 -0.286 -0.322 -0.421 -0.421
 0.228  0.920 -0.090 -0.284 -0.321 -0.421 -0.421
 0.230  0.924 -0.087 -0.283 -0.319 -0.420 -0.420
 0.232  0.927 -0.084 -0.281 -0.318 -0.419 -0.419
 0.234  0.930 -0.081 -0.280 -0.317 -0.418 -0.418
 0.236  0.934 -0.078 -0.279 -0.315 -0.417 -0.417
 0.238  0.938 -0.075 -0.277 -0.314 -0.416 -0.416
 0.240  0.941 -0.072 -0.276 -0.312 -0.415 -0.415
 0.242  0.945 -0.069 -0.275 -0.311 -0.414 -0.414
 0.244  0.948 -0.066 -0.273 -0.310 -0.413 -0.413
 0.246  0.951 -0.063 -0.272 -0.309 -0.412 -0.412
 0.248  0.954 -0.061 -0.270 -0.307 -0.411 -0.411
 0.250  0.958 -0.058 -0.269 -0.306 -0.410 -0.410
 0.252  0.961 -0.055 -0.268 -0.305 -0.409 -0.409
 0.254  0.964 -0.052 -0.266 -0.303 -0.408 -0.408
 0.256  0.967 -0.049 -0.264 -0.302 -0.408 -0.408
 0.258  0.970 -0.047 -0.263 -0.301 -0.406 -0.406
 0.260  0.973 -0.044 -0.261 -0.300 -0.406 -0.406
 0.262  0.976 -0.042 -0.260 -0.298 -0.405 -0.405
 0.264  0.979 -0.039 -0.258 -0.297 -0.404 -0.404
 0.266  0.982 -0.037 -0.257 -0.296 -0.403 -0.403
 0.268  0.985 -0.034 -0.256 -0.294 -0.402 -0.402
 0.270  0.988 -0.032 -0.254 -0.293 -0.401 -0.401
 0.272  0.991 -0.030 -0.253 -0.292 -0.400 -0.400
 0.274  0.994 -0.027 -0.251 -0.291 -0.400 -0.400
 0.276  0.997 -0.025 -0.250 -0.290 -0.398 -0.398
 0.278  0.999 -0.023 -0.248 -0.288 -0.398 -0.398
 0.280  1.002 -0.021 -0.247 -0.287 -0.397 -0.397
 0.282  1.005 -0.018 -0.245 -0.286 -0.396 -0.396
 0.284  1.007 -0.016 -0.243 -0.285 -0.395 -0.395
 0.286  1.010 -0.014 -0.242 -0.284 -0.394 -0.394
 0.288  1.013 -0.012 -0.240 -0.282 -0.393 -0.393
 0.290  1.016 -0.010 -0.239 -0.282 -0.393 -0.393
 0.292  1.018 -0.008 -0.237 -0.280 -0.392 -0.392
 0.294  1.020 -0.006 -0.236 -0.279 -0.391 -0.391
 0.296  1.022 -0.004 -0.235 -0.278 -0.390 -0.390
 0.298  1.025 -0.002 -0.233 -0.277 -0.389 -0.389
 0.300  1.028 -0.001 -0.232 -0.275 -0.388 -0.388
 0.302  1.030  0.001 -0.230 -0.275 -0.387 -0.387
 0.304  1.032  0.004 -0.229 -0.273 -0.387 -0.387
 0.306  1.034  0.006 -0.227 -0.272 -0.385 -0.385
 0.308  1.037  0.007 -0.225 -0.271 -0.385 -0.385
 0.310  1.039  0.009 -0.224 -0.270 -0.384 -0.384
 0.312  1.042  0.011 -0.222 -0.269 -0.383 -0.383
 0.314  1.044  0.014 -0.221 -0.268 -0.382 -0.382
 0.316  1.046  0.016 -0.219 -0.267 -0.381 -0.381
 0.318  1.048  0.018 -0.218 -0.266 -0.380 -0.380
 0.320  1.051  0.020 -0.217 -0.264 -0.379 -0.379
 0.322  1.053  0.022 -0.215 -0.263 -0.378 -0.378
 0.324  1.055  0.024 -0.214 -0.262 -0.377 -0.377
 0.326  1.057  0.026 -0.212 -0.261 -0.376 -0.376
 0.328  1.060  0.029 -0.211 -0.260 -0.375 -0.375
 0.330  1.063  0.031 -0.210 -0.259 -0.374 -0.374
 0.332  1.065  0.033 -0.208 -0.258 -0.374 -0.374
 0.334  1.067  0.035 -0.206 -0.257 -0.372 -0.372
 0.336  1.069  0.037 -0.205 -0.255 -0.371 -0.371
 0.338  1.072  0.040 -0.203 -0.254 -0.370 -0.370
 0.340  1.074  0.042 -0.202 -0.253 -0.369 -0.369
 0.342  1.076  0.044 -0.201 -0.252 -0.369 -0.369
 0.344  1.078  0.046 -0.199 -0.251 -0.367 -0.367
 0.346  1.081  0.049 -0.198 -0.250 -0.366 -0.366
 0.348  1.084  0.051 -0.196 -0.248 -0.366 -0.366
 0.350  1.086  0.054 -0.195 -0.247 -0.364 -0.364
 0.352  1.088  0.056 -0.194 -0.246 -0.364 -0.364
 0.354  1.090  0.059 -0.192 -0.245 -0.362 -0.362
 0.356  1.093  0.061 -0.191 -0.244 -0.361 -0.361
 0.358  1.095  0.063 -0.190 -0.243 -0.360 -0.360
 0.360  1.097  0.066 -0.188 -0.242 -0.359 -0.359
 0.362  1.099  0.068 -0.186 -0.240 -0.358 -0.358
 0.364  1.102  0.071 -0.185 -0.239 -0.357 -0.357
 0.366  1.104  0.074 -0.184 -0.238 -0.356 -0.356
 0.368  1.107  0.076 -0.182 -0.237 -0.355 -0.355
 0.370  1.109  0.079 -0.181 -0.236 -0.354 -0.354
 0.372  1.111  0.081 -0.180 -0.234 -0.353 -0.353
 0.374  1.113  0.084 -0.178 -0.233 -0.352 -0.352
 0.376  1.116  0.086 -0.177 -0.232 -0.351 -0.351
 0.378  1.118  0.088 -0.176 -0.231 -0.350 -0.350
 0.380  1.120  0.091 -0.175 -0.230 -0.349 -0.349
 0.382  1.122  0.093 -0.173 -0.229 -0.348 -0.348
 0.384  1.125  0.096 -0.172 -0.227 -0.347 -0.347
 0.386  1.128  0.098 -0.171 -0.226 -0.346 -0.346
 0.388  1.130  0.101 -0.170 -0.225 -0.345 -0.345
 0.390  1.132  0.103 -0.168 -0.224 -0.344 -0.344
 0.392  1.134  0.105 -0.167 -0.223 -0.343 -0.343
 0.394  1.136  0.107 -0.165 -0.221 -0.342 -0.342
 0.396  1.138  0.109 -0.164 -0.221 -0.341 -0.341
 0.398  1.140  0.111 -0.163 -0.219 -0.340 -0.340
 0.400  1.143  0.113 -0.162 -0.218 -0.339 -0.339
 0.402  1.145  0.116 -0.161 -0.217 -0.339 -0.339
 0.404  1.147  0.117 -0.159 -0.216 -0.338 -0.338
 0.406  1.149  0.119 -0.158 -0.215 -0.337 -0.337
 0.408  1.152  0.121 -0.157 -0.214 -0.336 -0.336
 0.410  1.154  0.123 -0.156 -0.212 -0.335 -0.335
 0.412  1.155  0.125 -0.155 -0.211 -0.334 -0.334
 0.414  1.157  0.127 -0.154 -0.210 -0.333 -0.333
 0.416  1.160  0.128 -0.152 -0.209 -0.332 -0.332
 0.418  1.162  0.130 -0.151 -0.208 -0.331 -0.331
 0.420  1.163  0.132 -0.150 -0.207 -0.330 -0.330
 0.422  1.166  0.133 -0.149 -0.206 -0.330 -0.330
 0.424  1.168  0.135 -0.148 -0.205 -0.328 -0.328
 0.426  1.170  0.137 -0.146 -0.203 -0.328 -0.328
 0.428  1.172  0.138 -0.145 -0.202 -0.327 -0.327
 0.430  1.174  0.140 -0.144 -0.201 -0.326 -0.326
 0.432  1.176  0.141 -0.143 -0.200 -0.325 -0.325
 0.434  1.178  0.143 -0.142 -0.199 -0.324 -0.324
 0.436  1.180  0.144 -0.141 -0.198 -0.323 -0.323
 0.438  1.181  0.145 -0.140 -0.197 -0.322 -0.322
 0.440  1.184  0.147 -0.139 -0.196 -0.321 -0.321
 0.442  1.186  0.148 -0.138 -0.194 -0.321 -0.321
 0.444  1.187  0.150 -0.137 -0.194 -0.320 -0.320
 0.446  1.190  0.151 -0.135 -0.192 -0.319 -0.319
 0.448  1.191  0.153 -0.134 -0.191 -0.318 -0.318
 0.450  1.193  0.154 -0.133 -0.190 -0.317 -0.317
 0.452  1.195  0.155 -0.132 -0.189 -0.316 -0.316
 0.454  1.196  0.156 -0.131 -0.188 -0.315 -0.315
 0.456  1.198  0.158 -0.130 -0.187 -0.315 -0.315
 0.458  1.200  0.159 -0.129 -0.186 -0.314 -0.314
 0.460  1.202  0.160 -0.128 -0.185 -0.313 -0.313
 0.462  1.203  0.161 -0.127 -0.184 -0.312 -0.312
 0.464  1.205  0.163 -0.126 -0.183 -0.311 -0.311
 0.466  1.206  0.163 -0.124 -0.182 -0.310 -0.310
 0.468  1.208  0.165 -0.123 -0.181 -0.310 -0.310
 0.470  1.209  0.166 -0.122 -0.180 -0.309 -0.309
 0.472  1.211  0.167 -0.121 -0.179 -0.308 -0.308
 0.474  1.212  0.168 -0.120 -0.178 -0.307 -0.307
 0.476  1.214  0.169 -0.119 -0.177 -0.306 -0.306
 0.478  1.215  0.170 -0.118 -0.176 -0.305 -0.305
 0.480  1.216  0.171 -0.117 -0.175 -0.305 -0.305
 0.482  1.217  0.173 -0.116 -0.174 -0.303 -0.303
 0.484  1.219  0.173 -0.115 -0.173 -0.303 -0.303
 0.486  1.220  0.175 -0.114 -0.173 -0.302 -0.302
 0.488  1.221  0.175 -0.113 -0.172 -0.301 -0.301
 0.490  1.222  0.177 -0.112 -0.171 -0.300 -0.300
 0.492  1.223  0.178 -0.111 -0.170 -0.299 -0.299
 0.494  1.224  0.178 -0.110 -0.169 -0.298 -0.298
 0.496  1.225  0.180 -0.109 -0.168 -0.298 -0.298
 0.498  1.226  0.180 -0.108 -0.167 -0.297 -0.297
 0.500  1.227  0.181 -0.107 -0.167 -0.296 -0.296
 0.502  1.228  0.182 -0.106 -0.166 -0.295 -0.295
 0.504  1.229  0.183 -0.105 -0.165 -0.294 -0.294
 0.506  1.230  0.184 -0.104 -0.164 -0.294 -0.294
 0.508  1.231  0.185 -0.103 -0.163 -0.293 -0.293
 0.510  1.231  0.185 -0.102 -0.162 -0.292 -0.292
 0.512  1.232  0.186 -0.101 -0.161 -0.291 -0.291
 0.514  1.233  0.188 -0.100 -0.161 -0.290 -0.290
 0.516  1.234  0.188 -0.100 -0.160 -0.290 -0.290
 0.518  1.234  0.189 -0.099 -0.159 -0.289 -0.289
 0.520  1.235  0.190 -0.098 -0.158 -0.288 -0.288
 0.522  1.236  0.190 -0.097 -0.158 -0.287 -0.287
 0.524  1.237  0.191 -0.096 -0.157 -0.287 -0.287
 0.526  1.237  0.192 -0.095 -0.156 -0.286 -0.286
 0.528  1.237  0.192 -0.094 -0.156 -0.285 -0.285
 0.530  1.238  0.193 -0.094 -0.155 -0.285 -0.285
 0.532  1.239  0.194 -0.093 -0.155 -0.284 -0.284
 0.534  1.240  0.194 -0.092 -0.154 -0.283 -0.283
 0.536  1.240  0.195 -0.091 -0.153 -0.282 -0.282
 0.538  1.241  0.195 -0.090 -0.152 -0.282 -0.282
 0.540  1.242  0.196 -0.090 -0.152 -0.281 -0.281
 0.542  1.242  0.197 -0.089 -0.151 -0.280 -0.280
 0.544  1.243  0.197 -0.088 -0.150 -0.280 -0.280
 0.546  1.243  0.197 -0.087 -0.150 -0.279 -0.279
 0.548  1.244  0.198 -0.086 -0.149 -0.279 -0.279
 0.550  1.245  0.198 -0.085 -0.149 -0.278 -0.278
 0.552  1.245  0.199 -0.085 -0.148 -0.277 -0.277
 0.554  1.246  0.199 -0.084 -0.147 -0.277 -0.277
 0.556  1.246  0.200 -0.083 -0.147 -0.276 -0.276
 0.558  1.247  0.200 -0.083 -0.146 -0.276 -0.276
 0.560  1.247  0.200 -0.082 -0.146 -0.275 -0.275
 0.562  1.248  0.200 -0.081 -0.145 -0.274 -0.274
 0.564  1.249  0.201 -0.081 -0.145 -0.274 -0.274
 0.566  1.249  0.201 -0.080 -0.144 -0.273 -0.273
 0.568  1.249  0.201 -0.079 -0.143 -0.273 -0.273
 0.570  1.250  0.202 -0.079 -0.143 -0.272 -0.272
 0.572  1.251  0.202 -0.078 -0.143 -0.272 -0.272
 0.574  1.252  0.202 -0.077 -0.142 -0.271 -0.271
 0.576  1.252  0.202 -0.077 -0.142 -0.271 -0.271
 0.578  1.252  0.202 -0.076 -0.141 -0.270 -0.270
 0.580  1.253  0.202 -0.076 -0.140 -0.270 -0.270
 0.582  1.253  0.202 -0.075 -0.140 -0.269 -0.269
 0.584  1.254  0.202 -0.075 -0.140 -0.269 -0.269
 0.586  1.255  0.203 -0.074 -0.139 -0.268 -0.268
 0.588  1.255  0.203 -0.074 -0.139 -0.267 -0.267
 0.590  1.255  0.203 -0.073 -0.138 -0.267 -0.267
 0.592  1.256  0.203 -0.073 -0.138 -0.267 -0.267
 0.594  1.256  0.203 -0.072 -0.137 -0.266 -0.266
 0.596  1.257  0.203 -0.072 -0.137 -0.266 -0.266
 0.598  1.258  0.204 -0.072 -0.137 -0.265 -0.265
 0.600  1.258  0.204 -0.071 -0.136 -0.264 -0.264
 0.602  1.258  0.204 -0.071 -0.136 -0.264 -0.264
 0.604  1.258  0.204 -0.071 -0.135 -0.263 -0.263
 0.606  1.259  0.204 -0.070 -0.135 -0.263 -0.263
 0.608  1.259  0.204 -0.070 -0.134 -0.262 -0.262
 0.610  1.260  0.205 -0.070 -0.134 -0.262 -0.262
 0.612  1.260  0.205 -0.070 -0.134 -0.261 -0.261
 0.614  1.261  0.205 -0.069 -0.133 -0.261 -0.261
 0.616  1.261  0.205 -0.069 -0.133 -0.260 -0.260
 0.618  1.261  0.205 -0.068 -0.133 -0.260 -0.260
 0.620  1.261  0.205 -0.068 -0.132 -0.259 -0.259
 0.622  1.261  0.205 -0.068 -0.132 -0.259 -0.259
 0.624  1.262  0.205 -0.068 -0.131 -0.258 -0.258
 0.626  1.262  0.205 -0.068 -0.131 -0.258 -0.258
 0.628  1.262  0.206 -0.068 -0.131 -0.257 -0.257
 0.630  1.263  0.206 -0.067 -0.130 -0.256 -0.256
 0.632  1.263  0.206 -0.067 -0.130 -0.256 -0.256
 0.634  1.263  0.206 -0.067 -0.129 -0.256 -0.256
 0.636  1.263  0.206 -0.067 -0.129 -0.255 -0.255
 0.638  1.264  0.207 -0.067 -0.128 -0.254 -0.254
 0.640  1.264  0.207 -0.067 -0.128 -0.254 -0.254
 0.642  1.264  0.207 -0.067 -0.128 -0.253 -0.253
 0.644  1.264  0.207 -0.067 -0.127 -0.253 -0.253
 0.646  1.264  0.207 -0.067 -0.127 -0.252 -0.252
 0.648  1.264  0.207 -0.067 -0.127 -0.252 -0.252
 0.650  1.264  0.207 -0.067 -0.126 -0.251 -0.251
 0.652  1.264  0.207 -0.067 -0.126 -0.251 -0.251
 0.654  1.264  0.208 -0.067 -0.125 -0.250 -0.250
 0.656  1.264  0.208 -0.067 -0.125 -0.249 -0.249
 0.658  1.264  0.208 -0.067 -0.125 -0.249 -0.249
 0.660  1.264  0.209 -0.067 -0.125 -0.248 -0.248
 0.662  1.264  0.210 -0.066 -0.124 -0.248 -0.248
 0.664  1.265  0.210 -0.066 -0.124 -0.247 -0.247
 0.666  1.265  0.210 -0.066 -0.123 -0.246 -0.246
 0.668  1.265  0.211 -0.066 -0.122 -0.246 -0.246
 0.670  1.265  0.212 -0.065 -0.122 -0.245 -0.245
 0.672  1.265  0.212 -0.065 -0.121 -0.244 -0.244
 0.674  1.266  0.213 -0.064 -0.120 -0.244 -0.244
 0.676  1.266  0.214 -0.064 -0.119 -0.243 -0.243
 0.678  1.267  0.215 -0.064 -0.119 -0.243 -0.243
 0.680  1.267  0.216 -0.063 -0.118 -0.242 -0.242
 0.682  1.267  0.217 -0.063 -0.116 -0.241 -0.241
 0.684  1.267  0.218 -0.062 -0.116 -0.240 -0.240
 0.686  1.268  0.220 -0.062 -0.114 -0.240 -0.240
 0.688  1.268  0.221 -0.061 -0.113 -0.239 -0.239
 0.690  1.269  0.222 -0.060 -0.112 -0.238 -0.238
 0.692  1.270  0.224 -0.060 -0.110 -0.238 -0.238
 0.694  1.270  0.225 -0.059 -0.109 -0.237 -0.237
 0.696  1.270  0.227 -0.059 -0.107 -0.236 -0.236
 0.698  1.271  0.228 -0.058 -0.106 -0.235 -0.235
 0.700  1.272  0.230 -0.057 -0.104 -0.235 -0.235
 0.702  1.272  0.232 -0.056 -0.103 -0.234 -0.234
 0.704  1.272  0.234 -0.056 -0.101 -0.233 -0.233
 0.706  1.273  0.235 -0.055 -0.099 -0.232 -0.232
 0.708  1.274  0.237 -0.054 -0.097 -0.231 -0.231
 0.710  1.275  0.240 -0.053 -0.095 -0.231 -0.231
 0.712  1.275  0.242 -0.052 -0.093 -0.230 -0.230
 0.714  1.277  0.244 -0.051 -0.091 -0.229 -0.229
 0.716  1.278  0.246 -0.050 -0.089 -0.228 -0.228
 0.718  1.278  0.249 -0.049 -0.086 -0.227 -0.227
 0.720  1.279  0.251 -0.048 -0.084 -0.226 -0.226
 0.722  1.281  0.254 -0.047 -0.081 -0.226 -0.226
 0.724  1.281  0.256 -0.046 -0.079 -0.225 -0.225
 0.726  1.282  0.258 -0.044 -0.077 -0.223 -0.223
 0.728  1.284  0.260 -0.043 -0.074 -0.222 -0.222
 0.730  1.284  0.263 -0.042 -0.071 -0.221 -0.221
 0.732  1.285  0.265 -0.041 -0.069 -0.220 -0.220
 0.734  1.287  0.267 -0.039 -0.066 -0.219 -0.219
 0.736  1.287  0.269 -0.038 -0.064 -0.217 -0.217
 0.738  1.288  0.271 -0.036 -0.061 -0.216 -0.216
 0.740  1.289  0.272 -0.035 -0.059 -0.214 -0.214
 0.742  1.290  0.274 -0.033 -0.056 -0.213 -0.213
 0.744  1.291  0.276 -0.032 -0.054 -0.211 -0.211
 0.746  1.292  0.277 -0.030 -0.052 -0.210 -0.210
 0.748  1.293  0.279 -0.028 -0.050 -0.208 -0.208
 0.750  1.293  0.280 -0.026 -0.048 -0.206 -0.206
 0.752  1.294  0.281 -0.024 -0.046 -0.204 -0.204
 0.754  1.295  0.282 -0.023 -0.045 -0.202 -0.202
 0.756  1.296  0.283 -0.021 -0.043 -0.201 -0.201
 0.758  1.296  0.284 -0.019 -0.042 -0.199 -0.199
 0.760  1.297  0.284 -0.017 -0.041 -0.197 -0.197
 0.762  1.298  0.284 -0.015 -0.040 -0.195 -0.195
 0.764  1.298  0.285 -0.013 -0.039 -0.193 -0.193
 0.766  1.299  0.286 -0.011 -0.038 -0.190 -0.190
 0.768  1.299  0.286 -0.008 -0.037 -0.188 -0.188
 0.770  1.299  0.286 -0.006 -0.037 -0.186 -0.186
 0.772  1.300  0.286 -0.004 -0.037 -0.184 -0.184
 0.774  1.300  0.286 -0.001 -0.036 -0.181 -0.181
 0.776  1.300  0.286  0.001 -0.036 -0.178 -0.178
 0.778  1.301  0.285  0.004 -0.036 -0.176 -0.176
 0.780  1.301  0.285  0.006 -0.036 -0.173 -0.173
 0.782  1.301  0.284  0.009 -0.036 -0.170 -0.170
 0.784  1.302  0.284  0.012 -0.036 -0.167 -0.167
 0.786  1.302  0.283  0.014 -0.036 -0.165 -0.165
 0.788  1.302  0.282  0.016 -0.037 -0.163 -0.163
 0.790  1.302  0.281  0.018 -0.037 -0.160 -0.160
 0.792  1.302  0.280  0.021 -0.038 -0.158 -0.158
 0.794  1.302  0.279  0.023 -0.038 -0.155 -0.155
 0.796  1.302  0.277  0.024 -0.039 -0.153 -0.153
 0.798  1.302  0.276  0.026 -0.040 -0.151 -0.151
 0.800  1.302  0.274  0.028 -0.041 -0.149 -0.149
 0.802  1.302  0.272  0.029 -0.043 -0.148 -0.148
 0.804  1.302  0.269  0.031 -0.044 -0.147 -0.147
 0.806  1.301  0.267  0.032 -0.046 -0.146 -0.146
 0.808  1.299  0.264  0.033 -0.047 -0.145 -0.145
