# IsPeriodic    : True
# Period        : 0.650548 days
# Normalization : <g_mag>=0
# 
# Phase u_mag  g_mag  r_mag  i_mag  z_mag  y_mag
 0.000  0.993 -0.207 -0.360 -0.399 -0.378 -0.378
 0.002  0.993 -0.207 -0.360 -0.399 -0.378 -0.378
 0.004  0.994 -0.207 -0.360 -0.398 -0.378 -0.378
 0.006  0.994 -0.207 -0.360 -0.398 -0.377 -0.377
 0.008  0.994 -0.206 -0.359 -0.398 -0.377 -0.377
 0.010  0.995 -0.206 -0.359 -0.398 -0.377 -0.377
 0.012  0.996 -0.206 -0.359 -0.397 -0.377 -0.377
 0.014  0.997 -0.205 -0.358 -0.397 -0.376 -0.376
 0.016  0.998 -0.205 -0.358 -0.397 -0.376 -0.376
 0.018  0.999 -0.205 -0.358 -0.396 -0.375 -0.375
 0.020  1.000 -0.204 -0.357 -0.396 -0.375 -0.375
 0.022  1.001 -0.203 -0.356 -0.395 -0.374 -0.374
 0.024  1.002 -0.203 -0.356 -0.395 -0.374 -0.374
 0.026  1.003 -0.202 -0.355 -0.394 -0.373 -0.373
 0.028  1.004 -0.201 -0.354 -0.394 -0.373 -0.373
 0.030  1.005 -0.201 -0.354 -0.393 -0.372 -0.372
 0.032  1.007 -0.200 -0.353 -0.393 -0.372 -0.372
 0.034  1.008 -0.199 -0.353 -0.392 -0.371 -0.371
 0.036  1.009 -0.198 -0.352 -0.392 -0.371 -0.371
 0.038  1.011 -0.197 -0.351 -0.391 -0.370 -0.370
 0.040  1.012 -0.196 -0.350 -0.391 -0.369 -0.369
 0.042  1.013 -0.196 -0.349 -0.390 -0.369 -0.369
 0.044  1.015 -0.195 -0.349 -0.390 -0.368 -0.368
 0.046  1.016 -0.193 -0.348 -0.389 -0.368 -0.368
 0.048  1.017 -0.192 -0.347 -0.389 -0.367 -0.367
 0.050  1.019 -0.191 -0.346 -0.388 -0.367 -0.367
 0.052  1.020 -0.190 -0.345 -0.388 -0.366 -0.366
 0.054  1.022 -0.189 -0.344 -0.387 -0.366 -0.366
 0.056  1.023 -0.187 -0.343 -0.386 -0.365 -0.365
 0.058  1.025 -0.186 -0.342 -0.386 -0.364 -0.364
 0.060  1.026 -0.185 -0.340 -0.385 -0.364 -0.364
 0.062  1.028 -0.183 -0.339 -0.385 -0.364 -0.364
 0.064  1.030 -0.182 -0.338 -0.384 -0.363 -0.363
 0.066  1.031 -0.181 -0.337 -0.383 -0.362 -0.362
 0.068  1.033 -0.179 -0.336 -0.383 -0.362 -0.362
 0.070  1.035 -0.177 -0.334 -0.382 -0.361 -0.361
 0.072  1.037 -0.176 -0.333 -0.382 -0.361 -0.361
 0.074  1.038 -0.174 -0.332 -0.381 -0.360 -0.360
 0.076  1.040 -0.172 -0.330 -0.380 -0.360 -0.360
 0.078  1.042 -0.171 -0.329 -0.380 -0.359 -0.359
 0.080  1.044 -0.169 -0.328 -0.379 -0.359 -0.359
 0.082  1.046 -0.167 -0.326 -0.378 -0.358 -0.358
 0.084  1.047 -0.166 -0.325 -0.378 -0.358 -0.358
 0.086  1.050 -0.164 -0.324 -0.377 -0.357 -0.357
 0.088  1.051 -0.162 -0.322 -0.376 -0.357 -0.357
 0.090  1.053 -0.161 -0.321 -0.376 -0.357 -0.357
 0.092  1.055 -0.159 -0.320 -0.375 -0.356 -0.356
 0.094  1.057 -0.158 -0.318 -0.374 -0.356 -0.356
 0.096  1.059 -0.156 -0.317 -0.374 -0.355 -0.355
 0.098  1.061 -0.155 -0.316 -0.373 -0.355 -0.355
 0.100  1.063 -0.153 -0.314 -0.372 -0.354 -0.354
 0.102  1.065 -0.151 -0.313 -0.372 -0.354 -0.354
 0.104  1.066 -0.150 -0.312 -0.371 -0.353 -0.353
 0.106  1.068 -0.148 -0.310 -0.370 -0.353 -0.353
 0.108  1.070 -0.147 -0.309 -0.370 -0.352 -0.352
 0.110  1.072 -0.145 -0.308 -0.369 -0.352 -0.352
 0.112  1.073 -0.144 -0.307 -0.368 -0.351 -0.351
 0.114  1.075 -0.142 -0.305 -0.368 -0.351 -0.351
 0.116  1.077 -0.140 -0.304 -0.367 -0.351 -0.351
 0.118  1.079 -0.139 -0.303 -0.366 -0.350 -0.350
 0.120  1.080 -0.138 -0.302 -0.366 -0.350 -0.350
 0.122  1.082 -0.136 -0.300 -0.365 -0.349 -0.349
 0.124  1.083 -0.135 -0.299 -0.364 -0.349 -0.349
 0.126  1.085 -0.133 -0.298 -0.364 -0.348 -0.348
 0.128  1.087 -0.131 -0.297 -0.363 -0.348 -0.348
 0.130  1.088 -0.130 -0.296 -0.362 -0.347 -0.347
 0.132  1.090 -0.129 -0.295 -0.362 -0.347 -0.347
 0.134  1.092 -0.127 -0.293 -0.361 -0.347 -0.347
 0.136  1.093 -0.126 -0.292 -0.360 -0.346 -0.346
 0.138  1.095 -0.124 -0.291 -0.360 -0.346 -0.346
 0.140  1.096 -0.123 -0.290 -0.359 -0.345 -0.345
 0.142  1.097 -0.122 -0.289 -0.358 -0.345 -0.345
 0.144  1.099 -0.120 -0.287 -0.358 -0.344 -0.344
 0.146  1.101 -0.119 -0.286 -0.357 -0.344 -0.344
 0.148  1.102 -0.118 -0.285 -0.357 -0.344 -0.344
 0.150  1.103 -0.116 -0.284 -0.356 -0.343 -0.343
 0.152  1.105 -0.115 -0.283 -0.355 -0.343 -0.343
 0.154  1.106 -0.113 -0.282 -0.355 -0.342 -0.342
 0.156  1.107 -0.112 -0.281 -0.354 -0.342 -0.342
 0.158  1.109 -0.110 -0.280 -0.353 -0.342 -0.342
 0.160  1.110 -0.109 -0.279 -0.353 -0.341 -0.341
 0.162  1.111 -0.108 -0.278 -0.352 -0.341 -0.341
 0.164  1.113 -0.106 -0.277 -0.352 -0.340 -0.340
 0.166  1.114 -0.105 -0.276 -0.351 -0.340 -0.340
 0.168  1.116 -0.103 -0.275 -0.350 -0.339 -0.339
 0.170  1.117 -0.102 -0.273 -0.350 -0.339 -0.339
 0.172  1.118 -0.100 -0.272 -0.349 -0.339 -0.339
 0.174  1.120 -0.099 -0.271 -0.349 -0.338 -0.338
 0.176  1.121 -0.097 -0.271 -0.348 -0.338 -0.338
 0.178  1.122 -0.096 -0.269 -0.347 -0.337 -0.337
 0.180  1.124 -0.094 -0.269 -0.347 -0.337 -0.337
 0.182  1.125 -0.093 -0.268 -0.346 -0.337 -0.337
 0.184  1.127 -0.091 -0.267 -0.346 -0.336 -0.336
 0.186  1.128 -0.090 -0.266 -0.345 -0.336 -0.336
 0.188  1.130 -0.088 -0.265 -0.344 -0.335 -0.335
 0.190  1.131 -0.087 -0.264 -0.344 -0.335 -0.335
 0.192  1.133 -0.085 -0.263 -0.343 -0.335 -0.335
 0.194  1.134 -0.084 -0.262 -0.343 -0.334 -0.334
 0.196  1.135 -0.082 -0.261 -0.342 -0.334 -0.334
 0.198  1.137 -0.081 -0.261 -0.341 -0.333 -0.333
 0.200  1.138 -0.079 -0.260 -0.341 -0.333 -0.333
 0.202  1.140 -0.077 -0.259 -0.340 -0.333 -0.333
 0.204  1.142 -0.076 -0.258 -0.340 -0.332 -0.332
 0.206  1.143 -0.074 -0.257 -0.339 -0.332 -0.332
 0.208  1.145 -0.073 -0.257 -0.338 -0.332 -0.332
 0.210  1.146 -0.071 -0.256 -0.338 -0.331 -0.331
 0.212  1.148 -0.070 -0.255 -0.337 -0.331 -0.331
 0.214  1.149 -0.068 -0.254 -0.337 -0.330 -0.330
 0.216  1.151 -0.066 -0.253 -0.336 -0.330 -0.330
 0.218  1.153 -0.065 -0.253 -0.335 -0.330 -0.330
 0.220  1.154 -0.063 -0.252 -0.335 -0.329 -0.329
 0.222  1.156 -0.061 -0.251 -0.334 -0.329 -0.329
 0.224  1.157 -0.060 -0.250 -0.334 -0.329 -0.329
 0.226  1.159 -0.058 -0.250 -0.333 -0.328 -0.328
 0.228  1.160 -0.056 -0.249 -0.333 -0.328 -0.328
 0.230  1.162 -0.055 -0.248 -0.332 -0.327 -0.327
 0.232  1.164 -0.053 -0.248 -0.332 -0.327 -0.327
 0.234  1.165 -0.051 -0.247 -0.331 -0.327 -0.327
 0.236  1.167 -0.050 -0.246 -0.330 -0.326 -0.326
 0.238  1.169 -0.048 -0.245 -0.330 -0.326 -0.326
 0.240  1.170 -0.047 -0.245 -0.329 -0.325 -0.325
 0.242  1.172 -0.045 -0.244 -0.329 -0.325 -0.325
 0.244  1.173 -0.044 -0.243 -0.328 -0.325 -0.325
 0.246  1.175 -0.042 -0.243 -0.328 -0.324 -0.324
 0.248  1.176 -0.040 -0.242 -0.327 -0.324 -0.324
 0.250  1.178 -0.039 -0.241 -0.327 -0.323 -0.323
 0.252  1.179 -0.037 -0.240 -0.326 -0.323 -0.323
 0.254  1.181 -0.035 -0.240 -0.326 -0.323 -0.323
 0.256  1.182 -0.034 -0.239 -0.325 -0.322 -0.322
 0.258  1.183 -0.032 -0.238 -0.324 -0.322 -0.322
 0.260  1.185 -0.031 -0.237 -0.324 -0.321 -0.321
 0.262  1.186 -0.029 -0.236 -0.323 -0.321 -0.321
 0.264  1.187 -0.027 -0.236 -0.323 -0.320 -0.320
 0.266  1.189 -0.026 -0.235 -0.322 -0.320 -0.320
 0.268  1.190 -0.024 -0.234 -0.322 -0.320 -0.320
 0.270  1.192 -0.023 -0.234 -0.321 -0.319 -0.319
 0.272  1.193 -0.021 -0.233 -0.321 -0.319 -0.319
 0.274  1.194 -0.020 -0.232 -0.320 -0.318 -0.318
 0.276  1.196 -0.018 -0.231 -0.320 -0.318 -0.318
 0.278  1.197 -0.016 -0.230 -0.319 -0.317 -0.317
 0.280  1.198 -0.015 -0.230 -0.319 -0.317 -0.317
 0.282  1.199 -0.013 -0.229 -0.318 -0.316 -0.316
 0.284  1.200 -0.011 -0.228 -0.317 -0.316 -0.316
 0.286  1.202 -0.010 -0.227 -0.317 -0.315 -0.315
 0.288  1.203 -0.009 -0.226 -0.316 -0.315 -0.315
 0.290  1.204 -0.007 -0.226 -0.316 -0.314 -0.314
 0.292  1.205 -0.005 -0.225 -0.315 -0.314 -0.314
 0.294  1.206 -0.004 -0.224 -0.315 -0.313 -0.313
 0.296  1.207 -0.003 -0.223 -0.314 -0.313 -0.313
 0.298  1.209 -0.001 -0.223 -0.314 -0.312 -0.312
 0.300  1.210  0.001 -0.222 -0.313 -0.312 -0.312
 0.302  1.211  0.002 -0.221 -0.313 -0.311 -0.311
 0.304  1.212  0.004 -0.220 -0.312 -0.311 -0.311
 0.306  1.213  0.005 -0.220 -0.312 -0.310 -0.310
 0.308  1.214  0.006 -0.219 -0.311 -0.310 -0.310
 0.310  1.215  0.008 -0.218 -0.311 -0.309 -0.309
 0.312  1.216  0.009 -0.217 -0.310 -0.309 -0.309
 0.314  1.217  0.010 -0.216 -0.310 -0.308 -0.308
 0.316  1.218  0.012 -0.216 -0.309 -0.307 -0.307
 0.318  1.219  0.013 -0.215 -0.308 -0.307 -0.307
 0.320  1.220  0.014 -0.214 -0.308 -0.306 -0.306
 0.322  1.221  0.016 -0.213 -0.307 -0.306 -0.306
 0.324  1.222  0.017 -0.213 -0.307 -0.305 -0.305
 0.326  1.223  0.018 -0.212 -0.306 -0.305 -0.305
 0.328  1.224  0.019 -0.211 -0.306 -0.304 -0.304
 0.330  1.226  0.021 -0.211 -0.305 -0.304 -0.304
 0.332  1.227  0.022 -0.210 -0.304 -0.303 -0.303
 0.334  1.228  0.023 -0.209 -0.304 -0.303 -0.303
 0.336  1.229  0.024 -0.208 -0.303 -0.302 -0.302
 0.338  1.230  0.025 -0.207 -0.302 -0.302 -0.302
 0.340  1.231  0.026 -0.207 -0.302 -0.301 -0.301
 0.342  1.232  0.027 -0.206 -0.301 -0.301 -0.301
 0.344  1.233  0.028 -0.205 -0.301 -0.300 -0.300
 0.346  1.234  0.030 -0.204 -0.300 -0.300 -0.300
 0.348  1.235  0.031 -0.204 -0.299 -0.299 -0.299
 0.350  1.236  0.032 -0.203 -0.299 -0.299 -0.299
 0.352  1.237  0.033 -0.202 -0.298 -0.298 -0.298
 0.354  1.238  0.033 -0.202 -0.298 -0.298 -0.298
 0.356  1.239  0.034 -0.201 -0.297 -0.297 -0.297
 0.358  1.240  0.036 -0.200 -0.296 -0.297 -0.297
 0.360  1.241  0.036 -0.199 -0.296 -0.297 -0.297
 0.362  1.243  0.037 -0.199 -0.295 -0.296 -0.296
 0.364  1.244  0.038 -0.198 -0.294 -0.296 -0.296
 0.366  1.245  0.039 -0.197 -0.294 -0.295 -0.295
 0.368  1.246  0.040 -0.197 -0.293 -0.295 -0.295
 0.370  1.247  0.041 -0.196 -0.293 -0.294 -0.294
 0.372  1.248  0.042 -0.195 -0.292 -0.294 -0.294
 0.374  1.249  0.043 -0.194 -0.291 -0.294 -0.294
 0.376  1.250  0.044 -0.194 -0.291 -0.293 -0.293
 0.378  1.251  0.045 -0.193 -0.290 -0.293 -0.293
 0.380  1.252  0.046 -0.192 -0.289 -0.292 -0.292
 0.382  1.253  0.047 -0.191 -0.289 -0.292 -0.292
 0.384  1.254  0.048 -0.191 -0.288 -0.292 -0.292
 0.386  1.256  0.049 -0.190 -0.287 -0.291 -0.291
 0.388  1.257  0.050 -0.189 -0.287 -0.291 -0.291
 0.390  1.258  0.051 -0.189 -0.286 -0.290 -0.290
 0.392  1.259  0.052 -0.188 -0.286 -0.290 -0.290
 0.394  1.259  0.053 -0.188 -0.285 -0.289 -0.289
 0.396  1.260  0.054 -0.187 -0.284 -0.289 -0.289
 0.398  1.261  0.055 -0.186 -0.284 -0.288 -0.288
 0.400  1.262  0.056 -0.185 -0.283 -0.288 -0.288
 0.402  1.263  0.057 -0.185 -0.283 -0.288 -0.288
 0.404  1.264  0.058 -0.184 -0.282 -0.287 -0.287
 0.406  1.265  0.059 -0.183 -0.282 -0.287 -0.287
 0.408  1.266  0.060 -0.183 -0.281 -0.286 -0.286
 0.410  1.267  0.062 -0.182 -0.280 -0.286 -0.286
 0.412  1.268  0.063 -0.181 -0.280 -0.285 -0.285
 0.414  1.269  0.064 -0.181 -0.279 -0.285 -0.285
 0.416  1.270  0.065 -0.180 -0.279 -0.284 -0.284
 0.418  1.271  0.066 -0.180 -0.278 -0.284 -0.284
 0.420  1.272  0.067 -0.179 -0.278 -0.283 -0.283
 0.422  1.273  0.068 -0.178 -0.277 -0.283 -0.283
 0.424  1.274  0.069 -0.177 -0.277 -0.282 -0.282
 0.426  1.275  0.071 -0.177 -0.276 -0.282 -0.282
 0.428  1.276  0.072 -0.176 -0.276 -0.281 -0.281
 0.430  1.277  0.073 -0.176 -0.275 -0.281 -0.281
 0.432  1.278  0.074 -0.175 -0.275 -0.280 -0.280
 0.434  1.278  0.075 -0.174 -0.274 -0.280 -0.280
 0.436  1.279  0.077 -0.174 -0.274 -0.279 -0.279
 0.438  1.280  0.078 -0.173 -0.273 -0.278 -0.278
 0.440  1.281  0.079 -0.172 -0.273 -0.278 -0.278
 0.442  1.282  0.080 -0.172 -0.272 -0.277 -0.277
 0.444  1.283  0.081 -0.171 -0.272 -0.277 -0.277
 0.446  1.284  0.082 -0.171 -0.271 -0.276 -0.276
 0.448  1.285  0.083 -0.170 -0.271 -0.276 -0.276
 0.450  1.285  0.084 -0.170 -0.270 -0.275 -0.275
 0.452  1.286  0.085 -0.169 -0.270 -0.274 -0.274
 0.454  1.287  0.086 -0.168 -0.269 -0.274 -0.274
 0.456  1.288  0.087 -0.168 -0.269 -0.273 -0.273
 0.458  1.289  0.088 -0.167 -0.268 -0.273 -0.273
 0.460  1.289  0.089 -0.167 -0.268 -0.272 -0.272
 0.462  1.290  0.090 -0.166 -0.268 -0.272 -0.272
 0.464  1.291  0.091 -0.166 -0.267 -0.271 -0.271
 0.466  1.291  0.092 -0.166 -0.267 -0.271 -0.271
 0.468  1.292  0.093 -0.165 -0.266 -0.270 -0.270
 0.470  1.293  0.093 -0.165 -0.266 -0.270 -0.270
 0.472  1.293  0.094 -0.164 -0.265 -0.269 -0.269
 0.474  1.294  0.095 -0.163 -0.265 -0.269 -0.269
 0.476  1.295  0.096 -0.163 -0.264 -0.268 -0.268
 0.478  1.296  0.097 -0.163 -0.264 -0.268 -0.268
 0.480  1.296  0.098 -0.162 -0.264 -0.267 -0.267
 0.482  1.297  0.098 -0.162 -0.263 -0.267 -0.267
 0.484  1.297  0.099 -0.161 -0.263 -0.266 -0.266
 0.486  1.298  0.100 -0.161 -0.262 -0.266 -0.266
 0.488  1.298  0.100 -0.161 -0.262 -0.266 -0.266
 0.490  1.299  0.101 -0.160 -0.261 -0.265 -0.265
 0.492  1.299  0.102 -0.160 -0.261 -0.265 -0.265
 0.494  1.300  0.102 -0.159 -0.260 -0.264 -0.264
 0.496  1.300  0.103 -0.159 -0.260 -0.264 -0.264
 0.498  1.301  0.104 -0.159 -0.260 -0.264 -0.264
 0.500  1.301  0.104 -0.158 -0.259 -0.263 -0.263
 0.502  1.302  0.105 -0.158 -0.259 -0.263 -0.263
 0.504  1.302  0.105 -0.158 -0.258 -0.262 -0.262
 0.506  1.302  0.106 -0.157 -0.258 -0.262 -0.262
 0.508  1.303  0.106 -0.157 -0.257 -0.262 -0.262
 0.510  1.303  0.107 -0.157 -0.257 -0.261 -0.261
 0.512  1.303  0.108 -0.156 -0.257 -0.261 -0.261
 0.514  1.304  0.108 -0.156 -0.256 -0.261 -0.261
 0.516  1.304  0.109 -0.156 -0.256 -0.261 -0.261
 0.518  1.304  0.109 -0.155 -0.255 -0.260 -0.260
 0.520  1.305  0.110 -0.155 -0.255 -0.260 -0.260
 0.522  1.305  0.110 -0.154 -0.255 -0.260 -0.260
 0.524  1.305  0.110 -0.154 -0.254 -0.260 -0.260
 0.526  1.306  0.111 -0.154 -0.254 -0.259 -0.259
 0.528  1.306  0.111 -0.153 -0.253 -0.259 -0.259
 0.530  1.306  0.112 -0.153 -0.253 -0.259 -0.259
 0.532  1.306  0.112 -0.153 -0.253 -0.259 -0.259
 0.534  1.307  0.113 -0.152 -0.252 -0.258 -0.258
 0.536  1.307  0.114 -0.152 -0.252 -0.258 -0.258
 0.538  1.308  0.114 -0.152 -0.252 -0.258 -0.258
 0.540  1.308  0.114 -0.151 -0.251 -0.257 -0.257
 0.542  1.308  0.115 -0.151 -0.251 -0.257 -0.257
 0.544  1.308  0.115 -0.151 -0.251 -0.257 -0.257
 0.546  1.309  0.116 -0.150 -0.250 -0.257 -0.257
 0.548  1.309  0.116 -0.150 -0.250 -0.256 -0.256
 0.550  1.309  0.117 -0.150 -0.250 -0.256 -0.256
 0.552  1.309  0.117 -0.149 -0.250 -0.256 -0.256
 0.554  1.310  0.117 -0.149 -0.249 -0.256 -0.256
 0.556  1.310  0.118 -0.149 -0.249 -0.255 -0.255
 0.558  1.310  0.118 -0.148 -0.249 -0.255 -0.255
 0.560  1.310  0.119 -0.148 -0.248 -0.255 -0.255
 0.562  1.311  0.119 -0.148 -0.248 -0.255 -0.255
 0.564  1.311  0.120 -0.147 -0.248 -0.254 -0.254
 0.566  1.311  0.120 -0.147 -0.248 -0.254 -0.254
 0.568  1.311  0.120 -0.147 -0.248 -0.254 -0.254
 0.570  1.312  0.121 -0.146 -0.247 -0.253 -0.253
 0.572  1.312  0.121 -0.146 -0.247 -0.253 -0.253
 0.574  1.312  0.121 -0.145 -0.247 -0.253 -0.253
 0.576  1.312  0.122 -0.145 -0.247 -0.253 -0.253
 0.578  1.313  0.122 -0.145 -0.246 -0.252 -0.252
 0.580  1.313  0.122 -0.144 -0.246 -0.252 -0.252
 0.582  1.313  0.123 -0.144 -0.246 -0.252 -0.252
 0.584  1.313  0.123 -0.144 -0.246 -0.251 -0.251
 0.586  1.314  0.124 -0.143 -0.246 -0.251 -0.251
 0.588  1.314  0.124 -0.143 -0.246 -0.251 -0.251
 0.590  1.314  0.124 -0.143 -0.245 -0.251 -0.251
 0.592  1.314  0.125 -0.142 -0.245 -0.250 -0.250
 0.594  1.314  0.125 -0.142 -0.245 -0.250 -0.250
 0.596  1.315  0.125 -0.142 -0.245 -0.250 -0.250
 0.598  1.315  0.125 -0.141 -0.245 -0.250 -0.250
 0.600  1.315  0.126 -0.141 -0.245 -0.249 -0.249
 0.602  1.315  0.126 -0.141 -0.245 -0.249 -0.249
 0.604  1.315  0.126 -0.141 -0.244 -0.249 -0.249
 0.606  1.316  0.126 -0.141 -0.244 -0.248 -0.248
 0.608  1.316  0.126 -0.140 -0.244 -0.248 -0.248
 0.610  1.316  0.127 -0.140 -0.244 -0.248 -0.248
 0.612  1.316  0.127 -0.140 -0.244 -0.248 -0.248
 0.614  1.316  0.127 -0.140 -0.244 -0.247 -0.247
 0.616  1.316  0.127 -0.140 -0.243 -0.247 -0.247
 0.618  1.317  0.127 -0.140 -0.243 -0.246 -0.246
 0.620  1.317  0.127 -0.140 -0.243 -0.246 -0.246
 0.622  1.317  0.128 -0.139 -0.243 -0.246 -0.246
 0.624  1.317  0.128 -0.139 -0.243 -0.246 -0.246
 0.626  1.317  0.128 -0.139 -0.243 -0.245 -0.245
 0.628  1.317  0.128 -0.139 -0.243 -0.245 -0.245
 0.630  1.317  0.128 -0.139 -0.242 -0.244 -0.244
 0.632  1.317  0.128 -0.139 -0.242 -0.244 -0.244
 0.634  1.317  0.128 -0.139 -0.242 -0.244 -0.244
 0.636  1.317  0.128 -0.139 -0.242 -0.243 -0.243
 0.638  1.318  0.128 -0.139 -0.242 -0.243 -0.243
 0.640  1.318  0.129 -0.139 -0.242 -0.242 -0.242
 0.642  1.318  0.129 -0.139 -0.241 -0.242 -0.242
 0.644  1.318  0.129 -0.139 -0.241 -0.242 -0.242
 0.646  1.318  0.129 -0.139 -0.241 -0.241 -0.241
 0.648  1.318  0.129 -0.139 -0.241 -0.241 -0.241
 0.650  1.318  0.129 -0.139 -0.241 -0.240 -0.240
 0.652  1.318  0.129 -0.139 -0.241 -0.240 -0.240
 0.654  1.318  0.129 -0.139 -0.241 -0.240 -0.240
 0.656  1.318  0.129 -0.139 -0.240 -0.239 -0.239
 0.658  1.318  0.129 -0.139 -0.240 -0.239 -0.239
 0.660  1.318  0.129 -0.139 -0.240 -0.238 -0.238
 0.662  1.318  0.129 -0.139 -0.240 -0.238 -0.238
 0.664  1.318  0.129 -0.139 -0.240 -0.237 -0.237
 0.666  1.318  0.130 -0.139 -0.239 -0.237 -0.237
 0.668  1.318  0.130 -0.139 -0.239 -0.237 -0.237
 0.670  1.318  0.130 -0.138 -0.239 -0.236 -0.236
 0.672  1.318  0.130 -0.138 -0.238 -0.236 -0.236
 0.674  1.319  0.131 -0.138 -0.238 -0.235 -0.235
 0.676  1.319  0.131 -0.138 -0.238 -0.235 -0.235
 0.678  1.319  0.131 -0.138 -0.237 -0.234 -0.234
 0.680  1.319  0.132 -0.138 -0.237 -0.233 -0.233
 0.682  1.319  0.132 -0.137 -0.236 -0.233 -0.233
 0.684  1.319  0.133 -0.137 -0.236 -0.232 -0.232
 0.686  1.320  0.133 -0.137 -0.235 -0.231 -0.231
 0.688  1.320  0.134 -0.136 -0.235 -0.231 -0.231
 0.690  1.320  0.134 -0.136 -0.234 -0.230 -0.230
 0.692  1.321  0.135 -0.136 -0.234 -0.230 -0.230
 0.694  1.321  0.135 -0.136 -0.233 -0.229 -0.229
 0.696  1.321  0.136 -0.135 -0.232 -0.228 -0.228
 0.698  1.321  0.136 -0.135 -0.232 -0.227 -0.227
 0.700  1.322  0.137 -0.135 -0.231 -0.227 -0.227
 0.702  1.322  0.138 -0.134 -0.230 -0.226 -0.226
 0.704  1.322  0.138 -0.134 -0.230 -0.225 -0.225
 0.706  1.322  0.139 -0.133 -0.229 -0.224 -0.224
 0.708  1.323  0.140 -0.133 -0.228 -0.224 -0.224
 0.710  1.323  0.141 -0.133 -0.227 -0.223 -0.223
 0.712  1.323  0.142 -0.132 -0.226 -0.222 -0.222
 0.714  1.324  0.142 -0.132 -0.225 -0.221 -0.221
 0.716  1.324  0.143 -0.131 -0.224 -0.220 -0.220
 0.718  1.325  0.144 -0.131 -0.223 -0.219 -0.219
 0.720  1.325  0.145 -0.130 -0.222 -0.218 -0.218
 0.722  1.326  0.146 -0.130 -0.221 -0.218 -0.218
 0.724  1.326  0.146 -0.129 -0.220 -0.216 -0.216
 0.726  1.326  0.147 -0.129 -0.219 -0.216 -0.216
 0.728  1.327  0.147 -0.128 -0.218 -0.215 -0.215
 0.730  1.327  0.148 -0.127 -0.217 -0.214 -0.214
 0.732  1.328  0.148 -0.127 -0.216 -0.213 -0.213
 0.734  1.328  0.149 -0.126 -0.215 -0.212 -0.212
 0.736  1.329  0.149 -0.125 -0.214 -0.211 -0.211
 0.738  1.329  0.149 -0.125 -0.213 -0.210 -0.210
 0.740  1.329  0.149 -0.124 -0.213 -0.209 -0.209
 0.742  1.330  0.149 -0.123 -0.212 -0.208 -0.208
 0.744  1.330  0.149 -0.123 -0.211 -0.207 -0.207
 0.746  1.331  0.149 -0.122 -0.210 -0.206 -0.206
 0.748  1.331  0.148 -0.121 -0.209 -0.205 -0.205
 0.750  1.331  0.148 -0.120 -0.208 -0.204 -0.204
 0.752  1.332  0.148 -0.120 -0.207 -0.203 -0.203
 0.754  1.332  0.147 -0.119 -0.207 -0.203 -0.203
 0.756  1.332  0.147 -0.118 -0.206 -0.202 -0.202
 0.758  1.333  0.146 -0.117 -0.205 -0.201 -0.201
 0.760  1.333  0.145 -0.116 -0.204 -0.201 -0.201
 0.762  1.334  0.145 -0.116 -0.204 -0.200 -0.200
 0.764  1.334  0.144 -0.115 -0.203 -0.200 -0.200
 0.766  1.334  0.143 -0.114 -0.203 -0.200 -0.200
 0.768  1.334  0.142 -0.113 -0.202 -0.199 -0.199
 0.770  1.334  0.141 -0.112 -0.202 -0.199 -0.199
 0.772  1.335  0.140 -0.111 -0.201 -0.198 -0.198
 0.774  1.335  0.138 -0.110 -0.201 -0.198 -0.198
 0.776  1.335  0.137 -0.109 -0.200 -0.198 -0.198
 0.778  1.335  0.136 -0.108 -0.200 -0.198 -0.198
 0.780  1.335  0.134 -0.107 -0.200 -0.198 -0.198
 0.782  1.335  0.132 -0.106 -0.199 -0.197 -0.197
 0.784  1.335  0.131 -0.105 -0.199 -0.197 -0.197
 0.786  1.335  0.129 -0.104 -0.199 -0.197 -0.197
 0.788  1.335  0.127 -0.103 -0.198 -0.197 -0.197
 0.790  1.335  0.125 -0.102 -0.198 -0.197 -0.197
 0.792  1.336  0.124 -0.101 -0.198 -0.197 -0.197
 0.794  1.336  0.121 -0.100 -0.198 -0.197 -0.197
 0.796  1.336  0.119 -0.099 -0.198 -0.197 -0.197
 0.798  1.336  0.117 -0.098 -0.197 -0.198 -0.198
 0.800  1.336  0.114 -0.098 -0.197 -0.198 -0.198
 0.802  1.335  0.112 -0.097 -0.197 -0.198 -0.198
 0.804  1.335  0.109 -0.097 -0.198 -0.198 -0.198
 0.806  1.335  0.107 -0.096 -0.198 -0.199 -0.199
 0.808  1.334  0.104 -0.096 -0.198 -0.199 -0.199
