# IsPeriodic    : True
# Period        : 0.612523 days
# Normalization : <g_mag>=0
# 
# Phase u_mag  g_mag  r_mag  i_mag  z_mag  y_mag
 0.000  0.412 -0.844 -0.697 -0.569 -0.579 -0.579
 0.002  0.412 -0.843 -0.697 -0.569 -0.578 -0.578
 0.004  0.413 -0.842 -0.697 -0.568 -0.578 -0.578
 0.006  0.414 -0.839 -0.696 -0.568 -0.576 -0.576
 0.008  0.415 -0.837 -0.695 -0.567 -0.574 -0.574
 0.010  0.417 -0.833 -0.694 -0.567 -0.572 -0.572
 0.012  0.420 -0.828 -0.693 -0.566 -0.570 -0.570
 0.014  0.422 -0.822 -0.691 -0.565 -0.566 -0.566
 0.016  0.425 -0.815 -0.690 -0.564 -0.563 -0.563
 0.018  0.427 -0.809 -0.688 -0.563 -0.560 -0.560
 0.020  0.430 -0.803 -0.686 -0.562 -0.556 -0.556
 0.022  0.434 -0.797 -0.683 -0.560 -0.553 -0.553
 0.024  0.438 -0.789 -0.681 -0.559 -0.549 -0.549
 0.026  0.441 -0.783 -0.679 -0.557 -0.546 -0.546
 0.028  0.445 -0.776 -0.676 -0.556 -0.543 -0.543
 0.030  0.449 -0.769 -0.673 -0.554 -0.539 -0.539
 0.032  0.453 -0.763 -0.671 -0.552 -0.537 -0.537
 0.034  0.458 -0.757 -0.668 -0.549 -0.533 -0.533
 0.036  0.462 -0.751 -0.665 -0.547 -0.531 -0.531
 0.038  0.467 -0.745 -0.662 -0.545 -0.528 -0.528
 0.040  0.472 -0.738 -0.659 -0.542 -0.525 -0.525
 0.042  0.477 -0.732 -0.655 -0.539 -0.522 -0.522
 0.044  0.482 -0.726 -0.652 -0.536 -0.519 -0.519
 0.046  0.488 -0.720 -0.647 -0.534 -0.516 -0.516
 0.048  0.493 -0.713 -0.643 -0.531 -0.513 -0.513
 0.050  0.500 -0.706 -0.639 -0.527 -0.510 -0.510
 0.052  0.506 -0.700 -0.635 -0.523 -0.508 -0.508
 0.054  0.513 -0.692 -0.631 -0.520 -0.505 -0.505
 0.056  0.519 -0.685 -0.625 -0.517 -0.502 -0.502
 0.058  0.526 -0.679 -0.621 -0.513 -0.499 -0.499
 0.060  0.533 -0.671 -0.616 -0.510 -0.496 -0.496
 0.062  0.540 -0.664 -0.611 -0.506 -0.494 -0.494
 0.064  0.547 -0.656 -0.605 -0.502 -0.490 -0.490
 0.066  0.555 -0.649 -0.600 -0.499 -0.488 -0.488
 0.068  0.564 -0.641 -0.595 -0.495 -0.485 -0.485
 0.070  0.571 -0.634 -0.589 -0.491 -0.482 -0.482
 0.072  0.580 -0.626 -0.584 -0.488 -0.479 -0.479
 0.074  0.587 -0.619 -0.577 -0.484 -0.477 -0.477
 0.076  0.596 -0.612 -0.572 -0.481 -0.475 -0.475
 0.078  0.604 -0.604 -0.566 -0.478 -0.472 -0.472
 0.080  0.612 -0.597 -0.560 -0.475 -0.469 -0.469
 0.082  0.621 -0.589 -0.555 -0.471 -0.467 -0.467
 0.084  0.629 -0.582 -0.548 -0.468 -0.465 -0.465
 0.086  0.636 -0.574 -0.543 -0.465 -0.462 -0.462
 0.088  0.644 -0.567 -0.538 -0.462 -0.459 -0.459
 0.090  0.651 -0.559 -0.532 -0.459 -0.457 -0.457
 0.092  0.659 -0.552 -0.527 -0.456 -0.455 -0.455
 0.094  0.666 -0.546 -0.521 -0.453 -0.452 -0.452
 0.096  0.673 -0.538 -0.517 -0.450 -0.450 -0.450
 0.098  0.681 -0.531 -0.511 -0.447 -0.447 -0.447
 0.100  0.687 -0.523 -0.507 -0.444 -0.445 -0.445
 0.102  0.694 -0.517 -0.501 -0.442 -0.443 -0.443
 0.104  0.700 -0.510 -0.497 -0.439 -0.441 -0.441
 0.106  0.707 -0.502 -0.492 -0.436 -0.438 -0.438
 0.108  0.713 -0.496 -0.488 -0.434 -0.436 -0.436
 0.110  0.718 -0.490 -0.483 -0.431 -0.434 -0.434
 0.112  0.725 -0.482 -0.479 -0.429 -0.431 -0.431
 0.114  0.730 -0.476 -0.474 -0.427 -0.429 -0.429
 0.116  0.737 -0.470 -0.470 -0.424 -0.427 -0.427
 0.118  0.742 -0.464 -0.465 -0.422 -0.425 -0.425
 0.120  0.748 -0.457 -0.461 -0.420 -0.423 -0.423
 0.122  0.753 -0.451 -0.457 -0.417 -0.421 -0.421
 0.124  0.759 -0.445 -0.453 -0.415 -0.418 -0.418
 0.126  0.764 -0.439 -0.450 -0.413 -0.416 -0.416
 0.128  0.768 -0.433 -0.445 -0.411 -0.414 -0.414
 0.130  0.774 -0.426 -0.442 -0.409 -0.412 -0.412
 0.132  0.778 -0.420 -0.438 -0.406 -0.410 -0.410
 0.134  0.782 -0.415 -0.434 -0.404 -0.409 -0.409
 0.136  0.787 -0.409 -0.432 -0.402 -0.407 -0.407
 0.138  0.791 -0.403 -0.428 -0.401 -0.405 -0.405
 0.140  0.795 -0.398 -0.424 -0.399 -0.403 -0.403
 0.142  0.800 -0.391 -0.422 -0.396 -0.401 -0.401
 0.144  0.803 -0.387 -0.418 -0.394 -0.399 -0.399
 0.146  0.807 -0.380 -0.415 -0.392 -0.397 -0.397
 0.148  0.812 -0.375 -0.412 -0.391 -0.395 -0.395
 0.150  0.815 -0.370 -0.409 -0.388 -0.393 -0.393
 0.152  0.819 -0.365 -0.405 -0.386 -0.392 -0.392
 0.154  0.822 -0.359 -0.403 -0.384 -0.390 -0.390
 0.156  0.827 -0.354 -0.399 -0.382 -0.388 -0.388
 0.158  0.830 -0.349 -0.396 -0.380 -0.387 -0.387
 0.160  0.834 -0.344 -0.394 -0.378 -0.385 -0.385
 0.162  0.838 -0.339 -0.390 -0.376 -0.383 -0.383
 0.164  0.842 -0.334 -0.387 -0.374 -0.381 -0.381
 0.166  0.845 -0.329 -0.384 -0.372 -0.379 -0.379
 0.168  0.849 -0.324 -0.381 -0.370 -0.378 -0.378
 0.170  0.854 -0.319 -0.378 -0.368 -0.376 -0.376
 0.172  0.857 -0.314 -0.375 -0.366 -0.375 -0.375
 0.174  0.861 -0.308 -0.372 -0.364 -0.373 -0.373
 0.176  0.866 -0.303 -0.369 -0.361 -0.371 -0.371
 0.178  0.869 -0.298 -0.366 -0.360 -0.369 -0.369
 0.180  0.873 -0.293 -0.363 -0.358 -0.367 -0.367
 0.182  0.878 -0.288 -0.360 -0.356 -0.365 -0.365
 0.184  0.881 -0.283 -0.357 -0.353 -0.364 -0.364
 0.186  0.885 -0.278 -0.354 -0.352 -0.362 -0.362
 0.188  0.890 -0.273 -0.351 -0.350 -0.360 -0.360
 0.190  0.894 -0.268 -0.348 -0.348 -0.359 -0.359
 0.192  0.897 -0.263 -0.345 -0.346 -0.356 -0.356
 0.194  0.901 -0.258 -0.342 -0.343 -0.354 -0.354
 0.196  0.906 -0.253 -0.339 -0.342 -0.353 -0.353
 0.198  0.910 -0.249 -0.336 -0.340 -0.351 -0.351
 0.200  0.913 -0.244 -0.333 -0.338 -0.349 -0.349
 0.202  0.918 -0.239 -0.330 -0.335 -0.348 -0.348
 0.204  0.922 -0.234 -0.327 -0.334 -0.346 -0.346
 0.206  0.926 -0.229 -0.324 -0.332 -0.344 -0.344
 0.208  0.931 -0.224 -0.321 -0.330 -0.342 -0.342
 0.210  0.934 -0.219 -0.318 -0.327 -0.340 -0.340
 0.212  0.938 -0.214 -0.316 -0.326 -0.338 -0.338
 0.214  0.943 -0.210 -0.312 -0.324 -0.337 -0.337
 0.216  0.947 -0.205 -0.309 -0.322 -0.335 -0.335
 0.218  0.951 -0.200 -0.307 -0.320 -0.333 -0.333
 0.220  0.956 -0.195 -0.304 -0.318 -0.331 -0.331
 0.222  0.960 -0.190 -0.300 -0.316 -0.330 -0.330
 0.224  0.963 -0.185 -0.298 -0.314 -0.328 -0.328
 0.226  0.967 -0.180 -0.295 -0.312 -0.326 -0.326
 0.228  0.972 -0.175 -0.292 -0.310 -0.324 -0.324
 0.230  0.976 -0.171 -0.289 -0.308 -0.322 -0.322
 0.232  0.979 -0.166 -0.287 -0.306 -0.320 -0.320
 0.234  0.984 -0.162 -0.284 -0.304 -0.318 -0.318
 0.236  0.987 -0.157 -0.280 -0.303 -0.317 -0.317
 0.238  0.991 -0.153 -0.278 -0.301 -0.315 -0.315
 0.240  0.996 -0.148 -0.275 -0.298 -0.313 -0.313
 0.242  0.999 -0.143 -0.272 -0.297 -0.311 -0.311
 0.244  1.003 -0.139 -0.269 -0.295 -0.309 -0.309
 0.246  1.006 -0.134 -0.267 -0.293 -0.308 -0.308
 0.248  1.010 -0.130 -0.264 -0.291 -0.306 -0.306
 0.250  1.014 -0.125 -0.261 -0.289 -0.305 -0.305
 0.252  1.017 -0.120 -0.259 -0.287 -0.303 -0.303
 0.254  1.022 -0.117 -0.256 -0.285 -0.301 -0.301
 0.256  1.025 -0.113 -0.254 -0.284 -0.299 -0.299
 0.258  1.028 -0.108 -0.251 -0.282 -0.298 -0.298
 0.260  1.031 -0.104 -0.249 -0.279 -0.296 -0.296
 0.262  1.036 -0.099 -0.246 -0.278 -0.295 -0.295
 0.264  1.039 -0.096 -0.243 -0.276 -0.293 -0.293
 0.266  1.042 -0.092 -0.241 -0.274 -0.291 -0.291
 0.268  1.045 -0.088 -0.238 -0.272 -0.290 -0.290
 0.270  1.049 -0.083 -0.236 -0.271 -0.288 -0.288
 0.272  1.052 -0.079 -0.233 -0.269 -0.287 -0.287
 0.274  1.055 -0.076 -0.231 -0.267 -0.285 -0.285
 0.276  1.058 -0.072 -0.228 -0.265 -0.284 -0.284
 0.278  1.062 -0.068 -0.226 -0.263 -0.282 -0.282
 0.280  1.065 -0.065 -0.223 -0.261 -0.281 -0.281
 0.282  1.068 -0.060 -0.221 -0.259 -0.279 -0.279
 0.284  1.071 -0.056 -0.219 -0.258 -0.278 -0.278
 0.286  1.075 -0.052 -0.216 -0.255 -0.276 -0.276
 0.288  1.078 -0.048 -0.213 -0.254 -0.274 -0.274
 0.290  1.081 -0.045 -0.212 -0.252 -0.273 -0.273
 0.292  1.083 -0.042 -0.209 -0.250 -0.272 -0.272
 0.294  1.087 -0.038 -0.206 -0.248 -0.270 -0.270
 0.296  1.090 -0.035 -0.204 -0.246 -0.269 -0.269
 0.298  1.093 -0.031 -0.202 -0.245 -0.268 -0.268
 0.300  1.096 -0.027 -0.199 -0.242 -0.266 -0.266
 0.302  1.098 -0.024 -0.197 -0.241 -0.265 -0.265
 0.304  1.102 -0.020 -0.194 -0.239 -0.264 -0.264
 0.306  1.105 -0.016 -0.192 -0.237 -0.262 -0.262
 0.308  1.108 -0.014 -0.190 -0.235 -0.261 -0.261
 0.310  1.111 -0.010 -0.187 -0.233 -0.259 -0.259
 0.312  1.114 -0.006 -0.184 -0.232 -0.258 -0.258
 0.314  1.117 -0.002 -0.182 -0.229 -0.256 -0.256
 0.316  1.120  0.001 -0.180 -0.228 -0.255 -0.255
 0.318  1.123  0.005 -0.177 -0.226 -0.254 -0.254
 0.320  1.127  0.008 -0.174 -0.224 -0.252 -0.252
 0.322  1.129  0.011 -0.172 -0.222 -0.251 -0.251
 0.324  1.132  0.015 -0.169 -0.220 -0.250 -0.250
 0.326  1.135  0.019 -0.167 -0.218 -0.248 -0.248
 0.328  1.139  0.022 -0.164 -0.216 -0.246 -0.246
 0.330  1.141  0.025 -0.162 -0.214 -0.245 -0.245
 0.332  1.144  0.029 -0.159 -0.212 -0.244 -0.244
 0.334  1.147  0.032 -0.156 -0.210 -0.242 -0.242
 0.336  1.150  0.036 -0.155 -0.208 -0.240 -0.240
 0.338  1.153  0.040 -0.152 -0.207 -0.239 -0.239
 0.340  1.156  0.042 -0.149 -0.205 -0.238 -0.238
 0.342  1.159  0.046 -0.146 -0.202 -0.236 -0.236
 0.344  1.162  0.050 -0.144 -0.201 -0.235 -0.235
 0.346  1.166  0.054 -0.141 -0.199 -0.233 -0.233
 0.348  1.168  0.056 -0.138 -0.197 -0.231 -0.231
 0.350  1.171  0.060 -0.135 -0.195 -0.230 -0.230
 0.352  1.174  0.064 -0.133 -0.193 -0.229 -0.229
 0.354  1.178  0.067 -0.130 -0.191 -0.227 -0.227
 0.356  1.180  0.070 -0.127 -0.189 -0.225 -0.225
 0.358  1.183  0.073 -0.126 -0.187 -0.224 -0.224
 0.360  1.186  0.077 -0.123 -0.185 -0.222 -0.222
 0.362  1.188  0.080 -0.120 -0.183 -0.221 -0.221
 0.364  1.192  0.083 -0.117 -0.181 -0.219 -0.219
 0.366  1.195  0.087 -0.115 -0.179 -0.217 -0.217
 0.368  1.198  0.091 -0.112 -0.177 -0.216 -0.216
 0.370  1.200  0.093 -0.109 -0.176 -0.215 -0.215
 0.372  1.203  0.097 -0.107 -0.173 -0.213 -0.213
 0.374  1.207  0.101 -0.104 -0.171 -0.211 -0.211
 0.376  1.209  0.103 -0.102 -0.169 -0.210 -0.210
 0.378  1.212  0.107 -0.099 -0.168 -0.208 -0.208
 0.380  1.215  0.111 -0.097 -0.165 -0.207 -0.207
 0.382  1.218  0.114 -0.094 -0.163 -0.205 -0.205
 0.384  1.221  0.117 -0.091 -0.161 -0.203 -0.203
 0.386  1.223  0.121 -0.089 -0.160 -0.202 -0.202
 0.388  1.226  0.124 -0.087 -0.157 -0.200 -0.200
 0.390  1.229  0.128 -0.084 -0.155 -0.199 -0.199
 0.392  1.232  0.131 -0.082 -0.154 -0.197 -0.197
 0.394  1.235  0.134 -0.079 -0.152 -0.195 -0.195
 0.396  1.237  0.138 -0.077 -0.150 -0.193 -0.193
 0.398  1.240  0.142 -0.075 -0.147 -0.192 -0.192
 0.400  1.242  0.144 -0.072 -0.145 -0.190 -0.190
 0.402  1.246  0.148 -0.069 -0.144 -0.188 -0.188
 0.404  1.248  0.152 -0.068 -0.142 -0.187 -0.187
 0.406  1.251  0.156 -0.065 -0.139 -0.185 -0.185
 0.408  1.253  0.159 -0.063 -0.137 -0.184 -0.184
 0.410  1.257  0.162 -0.060 -0.136 -0.182 -0.182
 0.412  1.259  0.165 -0.059 -0.134 -0.180 -0.180
 0.414  1.262  0.169 -0.056 -0.131 -0.178 -0.178
 0.416  1.264  0.173 -0.054 -0.129 -0.177 -0.177
 0.418  1.267  0.177 -0.051 -0.128 -0.175 -0.175
 0.420  1.270  0.179 -0.049 -0.126 -0.174 -0.174
 0.422  1.273  0.183 -0.047 -0.123 -0.172 -0.172
 0.424  1.275  0.187 -0.045 -0.121 -0.170 -0.170
 0.426  1.277  0.190 -0.043 -0.120 -0.168 -0.168
 0.428  1.280  0.194 -0.040 -0.118 -0.166 -0.166
 0.430  1.283  0.198 -0.039 -0.116 -0.165 -0.165
 0.432  1.285  0.200 -0.037 -0.114 -0.163 -0.163
 0.434  1.288  0.204 -0.034 -0.112 -0.162 -0.162
 0.436  1.290  0.208 -0.032 -0.110 -0.160 -0.160
 0.438  1.292  0.211 -0.030 -0.109 -0.158 -0.158
 0.440  1.296  0.215 -0.028 -0.107 -0.156 -0.156
 0.442  1.298  0.219 -0.026 -0.105 -0.154 -0.154
 0.444  1.300  0.221 -0.024 -0.104 -0.153 -0.153
 0.446  1.302  0.225 -0.021 -0.102 -0.151 -0.151
 0.448  1.304  0.229 -0.020 -0.100 -0.149 -0.149
 0.450  1.307  0.231 -0.018 -0.099 -0.147 -0.147
 0.452  1.310  0.235 -0.016 -0.097 -0.145 -0.145
 0.454  1.312  0.238 -0.014 -0.096 -0.144 -0.144
 0.456  1.314  0.240 -0.011 -0.094 -0.143 -0.143
 0.458  1.316  0.244 -0.010 -0.092 -0.141 -0.141
 0.460  1.318  0.246 -0.008 -0.091 -0.139 -0.139
 0.462  1.320  0.249 -0.006 -0.089 -0.138 -0.138
 0.464  1.323  0.251 -0.004 -0.088 -0.136 -0.136
 0.466  1.325  0.254 -0.002 -0.086 -0.135 -0.135
 0.468  1.327  0.256  0.000 -0.085 -0.133 -0.133
 0.470  1.329  0.259  0.002 -0.083 -0.132 -0.132
 0.472  1.331  0.261  0.004 -0.082 -0.130 -0.130
 0.474  1.333  0.264  0.006 -0.081 -0.129 -0.129
 0.476  1.334  0.266  0.008 -0.080 -0.127 -0.127
 0.478  1.337  0.269  0.009 -0.078 -0.126 -0.126
 0.480  1.339  0.270  0.011 -0.077 -0.125 -0.125
 0.482  1.341  0.272  0.013 -0.076 -0.123 -0.123
 0.484  1.342  0.275  0.015 -0.075 -0.122 -0.122
 0.486  1.344  0.276  0.017 -0.073 -0.121 -0.121
 0.488  1.346  0.279  0.018 -0.072 -0.119 -0.119
 0.490  1.349  0.280  0.020 -0.071 -0.118 -0.118
 0.492  1.350  0.281  0.022 -0.070 -0.117 -0.117
 0.494  1.352  0.284  0.024 -0.069 -0.116 -0.116
 0.496  1.354  0.285  0.026 -0.067 -0.115 -0.115
 0.498  1.355  0.286  0.027 -0.066 -0.113 -0.113
 0.500  1.357  0.287  0.029 -0.065 -0.112 -0.112
 0.502  1.358  0.289  0.031 -0.064 -0.111 -0.111
 0.504  1.360  0.290  0.033 -0.063 -0.110 -0.110
 0.506  1.362  0.291  0.035 -0.062 -0.108 -0.108
 0.508  1.364  0.292  0.036 -0.061 -0.108 -0.108
 0.510  1.365  0.293  0.037 -0.059 -0.106 -0.106
 0.512  1.366  0.295  0.039 -0.059 -0.105 -0.105
 0.514  1.368  0.296  0.041 -0.057 -0.104 -0.104
 0.516  1.369  0.296  0.042 -0.056 -0.103 -0.103
 0.518  1.370  0.297  0.044 -0.055 -0.102 -0.102
 0.520  1.371  0.298  0.045 -0.054 -0.101 -0.101
 0.522  1.372  0.298  0.047 -0.053 -0.100 -0.100
 0.524  1.373  0.300  0.047 -0.052 -0.099 -0.099
 0.526  1.375  0.301  0.049 -0.051 -0.098 -0.098
 0.528  1.376  0.302  0.050 -0.050 -0.097 -0.097
 0.530  1.377  0.302  0.051 -0.049 -0.096 -0.096
 0.532  1.378  0.303  0.052 -0.048 -0.095 -0.095
 0.534  1.379  0.303  0.054 -0.046 -0.094 -0.094
 0.536  1.380  0.305  0.055 -0.046 -0.094 -0.094
 0.538  1.381  0.306  0.056 -0.044 -0.092 -0.092
 0.540  1.381  0.306  0.056 -0.044 -0.092 -0.092
 0.542  1.382  0.307  0.057 -0.043 -0.090 -0.090
 0.544  1.383  0.308  0.058 -0.041 -0.090 -0.090
 0.546  1.383  0.308  0.059 -0.041 -0.088 -0.088
 0.548  1.384  0.310  0.060 -0.040 -0.088 -0.088
 0.550  1.384  0.310  0.061 -0.038 -0.087 -0.087
 0.552  1.385  0.311  0.061 -0.038 -0.086 -0.086
 0.554  1.385  0.311  0.062 -0.036 -0.085 -0.085
 0.556  1.386  0.312  0.063 -0.036 -0.084 -0.084
 0.558  1.386  0.312  0.063 -0.035 -0.083 -0.083
 0.560  1.386  0.313  0.064 -0.034 -0.082 -0.082
 0.562  1.388  0.313  0.064 -0.033 -0.082 -0.082
 0.564  1.388  0.315  0.065 -0.032 -0.080 -0.080
 0.566  1.388  0.315  0.065 -0.031 -0.080 -0.080
 0.568  1.388  0.315  0.066 -0.030 -0.079 -0.079
 0.570  1.388  0.316  0.066 -0.029 -0.078 -0.078
 0.572  1.388  0.316  0.066 -0.028 -0.077 -0.077
 0.574  1.388  0.317  0.066 -0.028 -0.076 -0.076
 0.576  1.388  0.317  0.066 -0.027 -0.076 -0.076
 0.578  1.388  0.317  0.066 -0.026 -0.074 -0.074
 0.580  1.388  0.318  0.067 -0.025 -0.074 -0.074
 0.582  1.388  0.318  0.067 -0.024 -0.073 -0.073
 0.584  1.388  0.318  0.067 -0.023 -0.072 -0.072
 0.586  1.388  0.320  0.068 -0.022 -0.072 -0.072
 0.588  1.388  0.320  0.068 -0.022 -0.070 -0.070
 0.590  1.388  0.320  0.068 -0.021 -0.069 -0.069
 0.592  1.388  0.320  0.068 -0.020 -0.069 -0.069
 0.594  1.388  0.321  0.069 -0.020 -0.068 -0.068
 0.596  1.388  0.321  0.069 -0.019 -0.067 -0.067
 0.598  1.388  0.321  0.069 -0.018 -0.067 -0.067
 0.600  1.388  0.321  0.070 -0.017 -0.065 -0.065
 0.602  1.388  0.322  0.070 -0.017 -0.065 -0.065
 0.604  1.388  0.322  0.071 -0.016 -0.064 -0.064
 0.606  1.388  0.322  0.071 -0.015 -0.063 -0.063
 0.608  1.388  0.322  0.071 -0.014 -0.063 -0.063
 0.610  1.388  0.322  0.072 -0.014 -0.062 -0.062
 0.612  1.388  0.323  0.072 -0.014 -0.061 -0.061
 0.614  1.386  0.323  0.073 -0.013 -0.061 -0.061
 0.616  1.386  0.323  0.073 -0.012 -0.060 -0.060
 0.618  1.386  0.323  0.073 -0.012 -0.059 -0.059
 0.620  1.386  0.323  0.074 -0.011 -0.059 -0.059
 0.622  1.386  0.323  0.074 -0.011 -0.058 -0.058
 0.624  1.386  0.323  0.075 -0.010 -0.057 -0.057
 0.626  1.386  0.325  0.075 -0.009 -0.057 -0.057
 0.628  1.386  0.325  0.075 -0.009 -0.056 -0.056
 0.630  1.386  0.325  0.075 -0.009 -0.055 -0.055
 0.632  1.386  0.325  0.076 -0.008 -0.055 -0.055
 0.634  1.386  0.325  0.076 -0.007 -0.054 -0.054
 0.636  1.386  0.325  0.077 -0.007 -0.053 -0.053
 0.638  1.386  0.325  0.077 -0.006 -0.053 -0.053
 0.640  1.386  0.325  0.078 -0.006 -0.052 -0.052
 0.642  1.386  0.325  0.078 -0.006 -0.052 -0.052
 0.644  1.386  0.325  0.079 -0.005 -0.051 -0.051
 0.646  1.386  0.325  0.079 -0.005 -0.051 -0.051
 0.648  1.385  0.325  0.080 -0.004 -0.050 -0.050
 0.650  1.385  0.325  0.080 -0.004 -0.049 -0.049
 0.652  1.385  0.325  0.080 -0.004 -0.049 -0.049
 0.654  1.385  0.325  0.081 -0.004 -0.048 -0.048
 0.656  1.385  0.325  0.081 -0.003 -0.048 -0.048
 0.658  1.385  0.325  0.081 -0.003 -0.047 -0.047
 0.660  1.385  0.325  0.081 -0.003 -0.047 -0.047
 0.662  1.385  0.323  0.081 -0.002 -0.046 -0.046
 0.664  1.384  0.323  0.081 -0.002 -0.046 -0.046
 0.666  1.384  0.323  0.081 -0.002 -0.045 -0.045
 0.668  1.384  0.323  0.081 -0.001 -0.045 -0.045
 0.670  1.384  0.323  0.081 -0.001 -0.045 -0.045
 0.672  1.384  0.322  0.081 -0.001 -0.044 -0.044
 0.674  1.383  0.322  0.081 -0.001 -0.044 -0.044
 0.676  1.383  0.322  0.080 -0.001 -0.043 -0.043
 0.678  1.383  0.321  0.080 -0.001 -0.043 -0.043
 0.680  1.383  0.321  0.080 -0.001 -0.043 -0.043
 0.682  1.382  0.320  0.079  0.000 -0.043 -0.043
 0.684  1.382  0.320  0.079  0.000 -0.043 -0.043
 0.686  1.382  0.320  0.078  0.000 -0.042 -0.042
 0.688  1.382  0.318  0.077  0.000 -0.042 -0.042
 0.690  1.381  0.318  0.077  0.000 -0.041 -0.041
 0.692  1.381  0.317  0.076  0.000 -0.041 -0.041
 0.694  1.381  0.317  0.075  0.000 -0.041 -0.041
 0.696  1.380  0.316  0.075  0.000 -0.041 -0.041
 0.698  1.380  0.315  0.074  0.000 -0.041 -0.041
 0.700  1.379  0.315  0.073  0.000 -0.041 -0.041
 0.702  1.379  0.313  0.072  0.000 -0.041 -0.041
 0.704  1.379  0.312  0.071  0.000 -0.040 -0.040
 0.706  1.378  0.312  0.070  0.000 -0.040 -0.040
 0.708  1.378  0.311  0.068  0.001 -0.040 -0.040
 0.710  1.377  0.310  0.067  0.001 -0.040 -0.040
 0.712  1.377  0.308  0.066  0.001 -0.040 -0.040
 0.714  1.376  0.307  0.065  0.002 -0.040 -0.040
 0.716  1.376  0.307  0.064  0.003 -0.041 -0.041
 0.718  1.376  0.306  0.063  0.004 -0.041 -0.041
 0.720  1.375  0.305  0.062  0.004 -0.041 -0.041
 0.722  1.375  0.303  0.060  0.005 -0.041 -0.041
 0.724  1.373  0.302  0.059  0.007 -0.041 -0.041
 0.726  1.373  0.301  0.058  0.007 -0.041 -0.041
 0.728  1.373  0.300  0.058  0.009 -0.041 -0.041
 0.730  1.373  0.300  0.057  0.010 -0.041 -0.041
 0.732  1.373  0.298  0.057  0.011 -0.040 -0.040
 0.734  1.373  0.297  0.056  0.012 -0.039 -0.039
 0.736  1.373  0.297  0.056  0.015 -0.039 -0.039
 0.738  1.373  0.297  0.057  0.016 -0.039 -0.039
 0.740  1.373  0.296  0.057  0.017 -0.037 -0.037
 0.742  1.373  0.296  0.057  0.020 -0.037 -0.037
 0.744  1.373  0.296  0.058  0.021 -0.035 -0.035
 0.746  1.373  0.296  0.059  0.023 -0.034 -0.034
 0.748  1.375  0.296  0.060  0.025 -0.033 -0.033
 0.750  1.375  0.296  0.061  0.028 -0.031 -0.031
 0.752  1.375  0.297  0.062  0.030 -0.029 -0.029
 0.754  1.376  0.297  0.063  0.033 -0.028 -0.028
 0.756  1.376  0.297  0.065  0.035 -0.026 -0.026
 0.758  1.377  0.298  0.066  0.038 -0.023 -0.023
 0.760  1.377  0.298  0.067  0.041 -0.021 -0.021
 0.762  1.378  0.300  0.069  0.043 -0.018 -0.018
 0.764  1.379  0.301  0.071  0.046 -0.016 -0.016
 0.766  1.380  0.302  0.073  0.049 -0.013 -0.013
 0.768  1.380  0.303  0.075  0.052 -0.010 -0.010
 0.770  1.381  0.305  0.077  0.055 -0.007 -0.007
 0.772  1.382  0.306  0.080  0.058 -0.004 -0.004
 0.774  1.383  0.308  0.083  0.061 -0.000 -0.000
 0.776  1.384  0.310  0.085  0.065  0.004  0.004
 0.778  1.385  0.312  0.089  0.068  0.007  0.007
 0.780  1.386  0.313  0.092  0.070  0.011  0.011
 0.782  1.388  0.316  0.095  0.073  0.015  0.015
 0.784  1.390  0.318  0.099  0.077  0.019  0.019
 0.786  1.391  0.321  0.102  0.080  0.024  0.024
 0.788  1.392  0.322  0.105  0.083  0.028  0.028
 0.790  1.394  0.325  0.109  0.086  0.033  0.033
 0.792  1.395  0.327  0.113  0.089  0.037  0.037
 0.794  1.396  0.330  0.116  0.092  0.043  0.043
 0.796  1.398  0.333  0.120  0.095  0.047  0.047
 0.798  1.401  0.336  0.123  0.098  0.052  0.052
 0.800  1.402  0.338  0.126  0.101  0.057  0.057
 0.802  1.404  0.341  0.130  0.104  0.062  0.062
 0.804  1.406  0.343  0.133  0.106  0.066  0.066
 0.806  1.408  0.346  0.136  0.109  0.070  0.070
 0.808  1.410  0.348  0.140  0.112  0.074  0.074
