# IsPeriodic    : True
# Period        : 0.555703 days
# Normalization : <g_mag>=0
# 
# Phase u_mag  g_mag  r_mag  i_mag  z_mag  y_mag
 0.000  0.538 -0.724 -0.594 -0.463 -0.423 -0.423
 0.002  0.539 -0.723 -0.594 -0.463 -0.423 -0.423
 0.004  0.541 -0.722 -0.593 -0.462 -0.422 -0.422
 0.006  0.542 -0.721 -0.592 -0.461 -0.422 -0.422
 0.008  0.544 -0.718 -0.591 -0.461 -0.422 -0.422
 0.010  0.547 -0.716 -0.589 -0.460 -0.421 -0.421
 0.012  0.549 -0.714 -0.587 -0.458 -0.421 -0.421
 0.014  0.552 -0.710 -0.585 -0.457 -0.420 -0.420
 0.016  0.555 -0.707 -0.583 -0.455 -0.419 -0.419
 0.018  0.559 -0.702 -0.581 -0.454 -0.418 -0.418
 0.020  0.562 -0.698 -0.579 -0.453 -0.417 -0.417
 0.022  0.567 -0.693 -0.575 -0.451 -0.416 -0.416
 0.024  0.571 -0.689 -0.573 -0.449 -0.415 -0.415
 0.026  0.575 -0.685 -0.570 -0.447 -0.413 -0.413
 0.028  0.579 -0.680 -0.568 -0.445 -0.412 -0.412
 0.030  0.583 -0.676 -0.566 -0.444 -0.410 -0.410
 0.032  0.586 -0.672 -0.563 -0.442 -0.408 -0.408
 0.034  0.591 -0.667 -0.560 -0.440 -0.407 -0.407
 0.036  0.596 -0.662 -0.557 -0.438 -0.405 -0.405
 0.038  0.600 -0.659 -0.555 -0.437 -0.403 -0.403
 0.040  0.604 -0.654 -0.553 -0.435 -0.401 -0.401
 0.042  0.608 -0.649 -0.549 -0.433 -0.398 -0.398
 0.044  0.613 -0.646 -0.547 -0.431 -0.396 -0.396
 0.046  0.618 -0.641 -0.544 -0.430 -0.393 -0.393
 0.048  0.623 -0.635 -0.541 -0.428 -0.391 -0.391
 0.050  0.628 -0.630 -0.538 -0.426 -0.388 -0.388
 0.052  0.633 -0.626 -0.535 -0.424 -0.385 -0.385
 0.054  0.638 -0.621 -0.532 -0.422 -0.382 -0.382
 0.056  0.644 -0.615 -0.528 -0.420 -0.380 -0.380
 0.058  0.650 -0.610 -0.525 -0.418 -0.377 -0.377
 0.060  0.655 -0.604 -0.522 -0.416 -0.374 -0.374
 0.062  0.661 -0.598 -0.518 -0.414 -0.371 -0.371
 0.064  0.668 -0.592 -0.515 -0.412 -0.369 -0.369
 0.066  0.673 -0.586 -0.511 -0.410 -0.366 -0.366
 0.068  0.679 -0.581 -0.507 -0.408 -0.363 -0.363
 0.070  0.686 -0.575 -0.503 -0.405 -0.360 -0.360
 0.072  0.693 -0.570 -0.500 -0.404 -0.358 -0.358
 0.074  0.699 -0.564 -0.496 -0.401 -0.356 -0.356
 0.076  0.705 -0.556 -0.493 -0.399 -0.353 -0.353
 0.078  0.711 -0.550 -0.489 -0.397 -0.351 -0.351
 0.080  0.719 -0.544 -0.485 -0.395 -0.349 -0.349
 0.082  0.725 -0.539 -0.481 -0.393 -0.347 -0.347
 0.084  0.731 -0.533 -0.477 -0.391 -0.345 -0.345
 0.086  0.737 -0.527 -0.473 -0.388 -0.343 -0.343
 0.088  0.744 -0.521 -0.470 -0.386 -0.341 -0.341
 0.090  0.750 -0.515 -0.466 -0.384 -0.338 -0.338
 0.092  0.756 -0.509 -0.463 -0.382 -0.337 -0.337
 0.094  0.762 -0.502 -0.459 -0.380 -0.335 -0.335
 0.096  0.769 -0.496 -0.455 -0.378 -0.333 -0.333
 0.098  0.774 -0.490 -0.451 -0.375 -0.331 -0.331
 0.100  0.780 -0.484 -0.448 -0.374 -0.329 -0.329
 0.102  0.785 -0.478 -0.445 -0.371 -0.328 -0.328
 0.104  0.791 -0.472 -0.441 -0.369 -0.326 -0.326
 0.106  0.797 -0.467 -0.438 -0.367 -0.325 -0.325
 0.108  0.802 -0.461 -0.434 -0.365 -0.323 -0.323
 0.110  0.808 -0.455 -0.431 -0.363 -0.322 -0.322
 0.112  0.813 -0.449 -0.428 -0.361 -0.321 -0.321
 0.114  0.819 -0.443 -0.425 -0.359 -0.319 -0.319
 0.116  0.824 -0.438 -0.421 -0.357 -0.318 -0.318
 0.118  0.828 -0.432 -0.418 -0.355 -0.317 -0.317
 0.120  0.833 -0.427 -0.415 -0.353 -0.316 -0.316
 0.122  0.838 -0.422 -0.412 -0.352 -0.315 -0.315
 0.124  0.843 -0.416 -0.408 -0.350 -0.313 -0.313
 0.126  0.848 -0.411 -0.405 -0.348 -0.312 -0.312
 0.128  0.852 -0.405 -0.402 -0.346 -0.311 -0.311
 0.130  0.857 -0.400 -0.400 -0.344 -0.310 -0.310
 0.132  0.861 -0.394 -0.396 -0.342 -0.309 -0.309
 0.134  0.865 -0.390 -0.393 -0.341 -0.308 -0.308
 0.136  0.870 -0.384 -0.391 -0.339 -0.307 -0.307
 0.138  0.874 -0.379 -0.387 -0.337 -0.306 -0.306
 0.140  0.878 -0.374 -0.385 -0.335 -0.305 -0.305
 0.142  0.882 -0.368 -0.382 -0.333 -0.304 -0.304
 0.144  0.885 -0.363 -0.379 -0.332 -0.303 -0.303
 0.146  0.889 -0.359 -0.377 -0.330 -0.302 -0.302
 0.148  0.894 -0.353 -0.374 -0.329 -0.301 -0.301
 0.150  0.897 -0.348 -0.371 -0.327 -0.300 -0.300
 0.152  0.901 -0.343 -0.369 -0.325 -0.298 -0.298
 0.154  0.905 -0.338 -0.366 -0.323 -0.297 -0.297
 0.156  0.908 -0.334 -0.363 -0.322 -0.296 -0.296
 0.158  0.912 -0.329 -0.361 -0.320 -0.295 -0.295
 0.160  0.915 -0.324 -0.357 -0.319 -0.294 -0.294
 0.162  0.920 -0.318 -0.355 -0.317 -0.292 -0.292
 0.164  0.923 -0.313 -0.353 -0.316 -0.291 -0.291
 0.166  0.927 -0.309 -0.350 -0.314 -0.290 -0.290
 0.168  0.930 -0.304 -0.348 -0.313 -0.288 -0.288
 0.170  0.934 -0.299 -0.344 -0.311 -0.287 -0.287
 0.172  0.937 -0.294 -0.342 -0.309 -0.285 -0.285
 0.174  0.941 -0.289 -0.340 -0.308 -0.284 -0.284
 0.176  0.946 -0.285 -0.337 -0.306 -0.283 -0.283
 0.178  0.949 -0.280 -0.334 -0.305 -0.281 -0.281
 0.180  0.953 -0.275 -0.332 -0.303 -0.280 -0.280
 0.182  0.957 -0.272 -0.329 -0.302 -0.279 -0.279
 0.184  0.960 -0.267 -0.327 -0.300 -0.277 -0.277
 0.186  0.964 -0.262 -0.323 -0.299 -0.276 -0.276
 0.188  0.969 -0.257 -0.321 -0.297 -0.274 -0.274
 0.190  0.972 -0.253 -0.319 -0.296 -0.273 -0.273
 0.192  0.976 -0.248 -0.316 -0.295 -0.271 -0.271
 0.194  0.980 -0.243 -0.314 -0.293 -0.270 -0.270
 0.196  0.983 -0.238 -0.310 -0.292 -0.268 -0.268
 0.198  0.987 -0.235 -0.308 -0.290 -0.267 -0.267
 0.200  0.991 -0.230 -0.306 -0.289 -0.265 -0.265
 0.202  0.995 -0.225 -0.303 -0.287 -0.263 -0.263
 0.204  0.999 -0.220 -0.301 -0.286 -0.262 -0.262
 0.206  1.003 -0.217 -0.298 -0.285 -0.260 -0.260
 0.208  1.007 -0.212 -0.296 -0.283 -0.259 -0.259
 0.210  1.010 -0.207 -0.293 -0.282 -0.257 -0.257
 0.212  1.014 -0.204 -0.290 -0.280 -0.256 -0.256
 0.214  1.018 -0.199 -0.288 -0.279 -0.255 -0.255
 0.216  1.023 -0.194 -0.285 -0.277 -0.253 -0.253
 0.218  1.027 -0.191 -0.283 -0.276 -0.252 -0.252
 0.220  1.030 -0.186 -0.280 -0.274 -0.250 -0.250
 0.222  1.034 -0.181 -0.278 -0.273 -0.249 -0.249
 0.224  1.038 -0.177 -0.275 -0.272 -0.248 -0.248
 0.226  1.042 -0.173 -0.272 -0.270 -0.246 -0.246
 0.228  1.046 -0.169 -0.270 -0.269 -0.245 -0.245
 0.230  1.050 -0.164 -0.268 -0.268 -0.244 -0.244
 0.232  1.054 -0.160 -0.265 -0.266 -0.242 -0.242
 0.234  1.058 -0.156 -0.263 -0.265 -0.241 -0.241
 0.236  1.061 -0.151 -0.260 -0.264 -0.240 -0.240
 0.238  1.065 -0.148 -0.258 -0.262 -0.238 -0.238
 0.240  1.070 -0.144 -0.255 -0.261 -0.237 -0.237
 0.242  1.073 -0.139 -0.253 -0.260 -0.235 -0.235
 0.244  1.077 -0.136 -0.251 -0.258 -0.234 -0.234
 0.246  1.080 -0.131 -0.248 -0.257 -0.233 -0.233
 0.248  1.084 -0.127 -0.246 -0.255 -0.232 -0.232
 0.250  1.088 -0.124 -0.243 -0.254 -0.231 -0.231
 0.252  1.091 -0.119 -0.240 -0.252 -0.229 -0.229
 0.254  1.096 -0.115 -0.238 -0.251 -0.228 -0.228
 0.256  1.099 -0.112 -0.235 -0.249 -0.227 -0.227
 0.258  1.103 -0.107 -0.233 -0.247 -0.226 -0.226
 0.260  1.106 -0.104 -0.230 -0.246 -0.225 -0.225
 0.262  1.109 -0.100 -0.228 -0.244 -0.224 -0.224
 0.264  1.113 -0.095 -0.225 -0.243 -0.222 -0.222
 0.266  1.116 -0.092 -0.223 -0.241 -0.221 -0.221
 0.268  1.121 -0.088 -0.221 -0.240 -0.220 -0.220
 0.270  1.124 -0.084 -0.218 -0.238 -0.219 -0.219
 0.272  1.127 -0.081 -0.216 -0.237 -0.218 -0.218
 0.274  1.131 -0.076 -0.214 -0.235 -0.217 -0.217
 0.276  1.134 -0.073 -0.212 -0.233 -0.216 -0.216
 0.278  1.137 -0.069 -0.209 -0.231 -0.215 -0.215
 0.280  1.141 -0.065 -0.207 -0.230 -0.213 -0.213
 0.282  1.144 -0.062 -0.204 -0.228 -0.212 -0.212
 0.284  1.148 -0.058 -0.202 -0.227 -0.211 -0.211
 0.286  1.151 -0.055 -0.199 -0.225 -0.210 -0.210
 0.288  1.155 -0.051 -0.197 -0.223 -0.209 -0.209
 0.290  1.158 -0.048 -0.195 -0.221 -0.207 -0.207
 0.292  1.161 -0.044 -0.192 -0.220 -0.206 -0.206
 0.294  1.164 -0.040 -0.190 -0.218 -0.205 -0.205
 0.296  1.167 -0.037 -0.187 -0.216 -0.204 -0.204
 0.298  1.171 -0.033 -0.186 -0.214 -0.203 -0.203
 0.300  1.175 -0.030 -0.183 -0.213 -0.202 -0.202
 0.302  1.178 -0.026 -0.181 -0.211 -0.201 -0.201
 0.304  1.181 -0.023 -0.178 -0.209 -0.200 -0.200
 0.306  1.184 -0.019 -0.176 -0.207 -0.198 -0.198
 0.308  1.187 -0.015 -0.174 -0.206 -0.197 -0.197
 0.310  1.190 -0.012 -0.172 -0.204 -0.196 -0.196
 0.312  1.193 -0.008 -0.170 -0.203 -0.195 -0.195
 0.314  1.197 -0.005 -0.167 -0.201 -0.194 -0.194
 0.316  1.200 -0.001 -0.165 -0.199 -0.193 -0.193
 0.318  1.202  0.001 -0.163 -0.197 -0.191 -0.191
 0.320  1.205  0.005 -0.161 -0.195 -0.190 -0.190
 0.322  1.208  0.008 -0.159 -0.194 -0.189 -0.189
 0.324  1.211  0.012 -0.157 -0.193 -0.187 -0.187
 0.326  1.214  0.016 -0.155 -0.191 -0.186 -0.186
 0.328  1.217  0.019 -0.153 -0.190 -0.185 -0.185
 0.330  1.219  0.022 -0.150 -0.188 -0.184 -0.184
 0.332  1.223  0.025 -0.148 -0.186 -0.183 -0.183
 0.334  1.226  0.029 -0.146 -0.185 -0.182 -0.182
 0.336  1.229  0.032 -0.144 -0.183 -0.180 -0.180
 0.338  1.231  0.035 -0.142 -0.182 -0.179 -0.179
 0.340  1.234  0.038 -0.140 -0.180 -0.178 -0.178
 0.342  1.237  0.042 -0.139 -0.179 -0.177 -0.177
 0.344  1.239  0.045 -0.136 -0.177 -0.176 -0.176
 0.346  1.242  0.048 -0.135 -0.176 -0.174 -0.174
 0.348  1.245  0.051 -0.132 -0.174 -0.173 -0.173
 0.350  1.248  0.055 -0.131 -0.173 -0.172 -0.172
 0.352  1.251  0.057 -0.129 -0.172 -0.171 -0.171
 0.354  1.253  0.061 -0.127 -0.171 -0.169 -0.169
 0.356  1.256  0.064 -0.125 -0.169 -0.168 -0.168
 0.358  1.258  0.067 -0.123 -0.168 -0.167 -0.167
 0.360  1.261  0.070 -0.122 -0.167 -0.166 -0.166
 0.362  1.263  0.074 -0.119 -0.165 -0.165 -0.165
 0.364  1.266  0.076 -0.118 -0.164 -0.163 -0.163
 0.366  1.268  0.080 -0.116 -0.162 -0.162 -0.162
 0.368  1.272  0.082 -0.114 -0.161 -0.160 -0.160
 0.370  1.274  0.086 -0.112 -0.160 -0.159 -0.159
 0.372  1.276  0.089 -0.110 -0.159 -0.158 -0.158
 0.374  1.279  0.092 -0.109 -0.158 -0.157 -0.157
 0.376  1.281  0.095 -0.107 -0.156 -0.155 -0.155
 0.378  1.284  0.098 -0.105 -0.155 -0.154 -0.154
 0.380  1.286  0.101 -0.103 -0.154 -0.153 -0.153
 0.382  1.289  0.104 -0.101 -0.152 -0.151 -0.151
 0.384  1.291  0.107 -0.100 -0.151 -0.150 -0.150
 0.386  1.294  0.110 -0.097 -0.150 -0.149 -0.149
 0.388  1.297  0.112 -0.096 -0.148 -0.148 -0.148
 0.390  1.300  0.116 -0.094 -0.147 -0.146 -0.146
 0.392  1.302  0.118 -0.093 -0.145 -0.145 -0.145
 0.394  1.305  0.122 -0.090 -0.144 -0.144 -0.144
 0.396  1.307  0.124 -0.089 -0.142 -0.142 -0.142
 0.398  1.310  0.126 -0.087 -0.141 -0.141 -0.141
 0.400  1.312  0.130 -0.085 -0.139 -0.140 -0.140
 0.402  1.315  0.132 -0.083 -0.138 -0.138 -0.138
 0.404  1.317  0.135 -0.081 -0.137 -0.137 -0.137
 0.406  1.320  0.137 -0.080 -0.135 -0.135 -0.135
 0.408  1.323  0.141 -0.077 -0.134 -0.134 -0.134
 0.410  1.326  0.143 -0.076 -0.132 -0.133 -0.133
 0.412  1.328  0.146 -0.074 -0.131 -0.131 -0.131
 0.414  1.331  0.148 -0.072 -0.129 -0.130 -0.130
 0.416  1.333  0.150 -0.070 -0.128 -0.129 -0.129
 0.418  1.336  0.154 -0.068 -0.126 -0.127 -0.127
 0.420  1.338  0.156 -0.067 -0.124 -0.126 -0.126
 0.422  1.341  0.159 -0.064 -0.123 -0.125 -0.125
 0.424  1.343  0.161 -0.063 -0.121 -0.123 -0.123
 0.426  1.346  0.163 -0.061 -0.119 -0.122 -0.122
 0.428  1.349  0.166 -0.059 -0.118 -0.121 -0.121
 0.430  1.352  0.168 -0.057 -0.116 -0.120 -0.120
 0.432  1.354  0.171 -0.055 -0.115 -0.118 -0.118
 0.434  1.357  0.173 -0.054 -0.113 -0.117 -0.117
 0.436  1.359  0.175 -0.051 -0.111 -0.116 -0.116
 0.438  1.362  0.178 -0.050 -0.109 -0.115 -0.115
 0.440  1.364  0.180 -0.048 -0.108 -0.113 -0.113
 0.442  1.367  0.182 -0.046 -0.106 -0.112 -0.112
 0.444  1.369  0.185 -0.044 -0.104 -0.111 -0.111
 0.446  1.371  0.187 -0.042 -0.102 -0.110 -0.110
 0.448  1.375  0.190 -0.041 -0.101 -0.108 -0.108
 0.450  1.377  0.192 -0.038 -0.099 -0.107 -0.107
 0.452  1.379  0.194 -0.037 -0.098 -0.106 -0.106
 0.454  1.381  0.196 -0.035 -0.096 -0.105 -0.105
 0.456  1.383  0.198 -0.033 -0.095 -0.104 -0.104
 0.458  1.385  0.200 -0.032 -0.093 -0.103 -0.103
 0.460  1.387  0.203 -0.030 -0.092 -0.102 -0.102
 0.462  1.389  0.205 -0.028 -0.090 -0.101 -0.101
 0.464  1.391  0.206 -0.026 -0.089 -0.099 -0.099
 0.466  1.393  0.209 -0.025 -0.088 -0.098 -0.098
 0.468  1.395  0.211 -0.023 -0.086 -0.097 -0.097
 0.470  1.398  0.212 -0.021 -0.085 -0.096 -0.096
 0.472  1.399  0.215 -0.020 -0.083 -0.095 -0.095
 0.474  1.401  0.217 -0.018 -0.082 -0.094 -0.094
 0.476  1.403  0.218 -0.016 -0.081 -0.093 -0.093
 0.478  1.404  0.221 -0.015 -0.080 -0.092 -0.092
 0.480  1.406  0.223 -0.012 -0.079 -0.091 -0.091
 0.482  1.408  0.224 -0.011 -0.078 -0.090 -0.090
 0.484  1.409  0.227 -0.009 -0.076 -0.089 -0.089
 0.486  1.410  0.228 -0.008 -0.076 -0.088 -0.088
 0.488  1.412  0.230 -0.006 -0.075 -0.087 -0.087
 0.490  1.413  0.231 -0.004 -0.073 -0.086 -0.086
 0.492  1.414  0.234 -0.003 -0.073 -0.085 -0.085
 0.494  1.416  0.235 -0.001 -0.072 -0.084 -0.084
 0.496  1.417  0.237  0.001 -0.071 -0.083 -0.083
 0.498  1.418  0.238  0.002 -0.070 -0.082 -0.082
 0.500  1.419  0.240  0.004 -0.069 -0.081 -0.081
 0.502  1.420  0.242  0.005 -0.069 -0.080 -0.080
 0.504  1.421  0.243  0.006 -0.068 -0.079 -0.079
 0.506  1.423  0.246  0.008 -0.067 -0.079 -0.079
 0.508  1.424  0.247  0.009 -0.066 -0.078 -0.078
 0.510  1.425  0.248  0.011 -0.066 -0.077 -0.077
 0.512  1.426  0.249  0.013 -0.065 -0.076 -0.076
 0.514  1.427  0.252  0.014 -0.065 -0.075 -0.075
 0.516  1.428  0.253  0.015 -0.063 -0.074 -0.074
 0.518  1.429  0.254  0.017 -0.063 -0.074 -0.074
 0.520  1.430  0.255  0.018 -0.062 -0.073 -0.073
 0.522  1.431  0.256  0.019 -0.062 -0.072 -0.072
 0.524  1.431  0.259  0.021 -0.061 -0.071 -0.071
 0.526  1.432  0.260  0.022 -0.060 -0.070 -0.070
 0.528  1.433  0.261  0.023 -0.060 -0.070 -0.070
 0.530  1.434  0.262  0.025 -0.059 -0.069 -0.069
 0.532  1.435  0.263  0.026 -0.059 -0.068 -0.068
 0.534  1.435  0.265  0.027 -0.058 -0.067 -0.067
 0.536  1.436  0.266  0.028 -0.057 -0.067 -0.067
 0.538  1.437  0.267  0.029 -0.056 -0.066 -0.066
 0.540  1.438  0.268  0.030 -0.056 -0.065 -0.065
 0.542  1.438  0.268  0.031 -0.055 -0.065 -0.065
 0.544  1.439  0.269  0.032 -0.054 -0.063 -0.063
 0.546  1.440  0.271  0.033 -0.053 -0.063 -0.063
 0.548  1.441  0.272  0.034 -0.053 -0.062 -0.062
 0.550  1.441  0.273  0.035 -0.052 -0.061 -0.061
 0.552  1.442  0.273  0.036 -0.051 -0.061 -0.061
 0.554  1.443  0.274  0.037 -0.050 -0.060 -0.060
 0.556  1.443  0.275  0.038 -0.049 -0.060 -0.060
 0.558  1.444  0.277  0.039 -0.049 -0.059 -0.059
 0.560  1.444  0.277  0.039 -0.048 -0.058 -0.058
 0.562  1.445  0.278  0.040 -0.047 -0.058 -0.058
 0.564  1.446  0.278  0.041 -0.046 -0.057 -0.057
 0.566  1.446  0.279  0.041 -0.045 -0.057 -0.057
 0.568  1.448  0.280  0.042 -0.045 -0.056 -0.056
 0.570  1.448  0.280  0.043 -0.043 -0.055 -0.055
 0.572  1.449  0.281  0.044 -0.043 -0.055 -0.055
 0.574  1.449  0.281  0.044 -0.042 -0.054 -0.054
 0.576  1.450  0.281  0.044 -0.041 -0.053 -0.053
 0.578  1.450  0.283  0.045 -0.040 -0.053 -0.053
 0.580  1.451  0.283  0.046 -0.039 -0.052 -0.052
 0.582  1.451  0.284  0.046 -0.038 -0.052 -0.052
 0.584  1.452  0.284  0.047 -0.037 -0.051 -0.051
 0.586  1.452  0.284  0.047 -0.036 -0.050 -0.050
 0.588  1.453  0.285  0.048 -0.036 -0.050 -0.050
 0.590  1.453  0.285  0.048 -0.035 -0.049 -0.049
 0.592  1.453  0.285  0.048 -0.034 -0.049 -0.049
 0.594  1.454  0.286  0.048 -0.033 -0.048 -0.048
 0.596  1.454  0.286  0.049 -0.032 -0.047 -0.047
 0.598  1.454  0.286  0.049 -0.031 -0.047 -0.047
 0.600  1.455  0.287  0.050 -0.030 -0.046 -0.046
 0.602  1.455  0.287  0.050 -0.029 -0.046 -0.046
 0.604  1.455  0.287  0.050 -0.029 -0.045 -0.045
 0.606  1.456  0.289  0.051 -0.028 -0.045 -0.045
 0.608  1.456  0.289  0.051 -0.027 -0.044 -0.044
 0.610  1.456  0.289  0.051 -0.026 -0.043 -0.043
 0.612  1.456  0.290  0.052 -0.026 -0.043 -0.043
 0.614  1.457  0.290  0.052 -0.025 -0.042 -0.042
 0.616  1.457  0.290  0.052 -0.024 -0.042 -0.042
 0.618  1.457  0.291  0.052 -0.023 -0.041 -0.041
 0.620  1.457  0.291  0.052 -0.023 -0.041 -0.041
 0.622  1.457  0.291  0.052 -0.022 -0.040 -0.040
 0.624  1.457  0.292  0.052 -0.022 -0.039 -0.039
 0.626  1.458  0.292  0.052 -0.021 -0.038 -0.038
 0.628  1.458  0.292  0.053 -0.020 -0.038 -0.038
 0.630  1.458  0.292  0.053 -0.020 -0.037 -0.037
 0.632  1.458  0.293  0.053 -0.019 -0.037 -0.037
 0.634  1.458  0.293  0.053 -0.019 -0.036 -0.036
 0.636  1.458  0.293  0.053 -0.018 -0.036 -0.036
 0.638  1.458  0.293  0.053 -0.017 -0.035 -0.035
 0.640  1.458  0.294  0.053 -0.017 -0.035 -0.035
 0.642  1.458  0.294  0.052 -0.016 -0.034 -0.034
 0.644  1.458  0.294  0.052 -0.016 -0.034 -0.034
 0.646  1.458  0.294  0.052 -0.015 -0.033 -0.033
 0.648  1.458  0.296  0.052 -0.015 -0.033 -0.033
 0.650  1.458  0.296  0.052 -0.015 -0.032 -0.032
 0.652  1.458  0.296  0.052 -0.014 -0.032 -0.032
 0.654  1.458  0.296  0.053 -0.013 -0.032 -0.032
 0.656  1.457  0.297  0.053 -0.013 -0.031 -0.031
 0.658  1.457  0.297  0.053 -0.012 -0.031 -0.031
 0.660  1.457  0.297  0.053 -0.012 -0.030 -0.030
 0.662  1.457  0.297  0.053 -0.012 -0.030 -0.030
 0.664  1.457  0.297  0.054 -0.011 -0.030 -0.030
 0.666  1.457  0.298  0.054 -0.010 -0.029 -0.029
 0.668  1.456  0.298  0.055 -0.010 -0.029 -0.029
 0.670  1.456  0.298  0.055 -0.009 -0.028 -0.028
 0.672  1.456  0.298  0.056 -0.009 -0.028 -0.028
 0.674  1.456  0.298  0.056 -0.008 -0.028 -0.028
 0.676  1.455  0.299  0.056 -0.007 -0.028 -0.028
 0.678  1.455  0.299  0.057 -0.006 -0.027 -0.027
 0.680  1.455  0.299  0.058 -0.006 -0.027 -0.027
 0.682  1.454  0.299  0.059 -0.004 -0.027 -0.027
 0.684  1.454  0.299  0.060 -0.004 -0.026 -0.026
 0.686  1.454  0.299  0.061 -0.003 -0.026 -0.026
 0.688  1.453  0.300  0.061 -0.002 -0.026 -0.026
 0.690  1.453  0.300  0.063 -0.001 -0.026 -0.026
 0.692  1.453  0.300  0.064 -0.000 -0.025 -0.025
 0.694  1.452  0.300  0.065  0.001 -0.025 -0.025
 0.696  1.452  0.300  0.066  0.002 -0.025 -0.025
 0.698  1.452  0.300  0.068  0.003 -0.025 -0.025
 0.700  1.451  0.302  0.069  0.004 -0.024 -0.024
 0.702  1.451  0.302  0.070  0.006 -0.024 -0.024
 0.704  1.450  0.302  0.072  0.006 -0.024 -0.024
 0.706  1.450  0.302  0.073  0.007 -0.023 -0.023
 0.708  1.449  0.302  0.074  0.008 -0.023 -0.023
 0.710  1.449  0.302  0.076  0.010 -0.023 -0.023
 0.712  1.448  0.302  0.078  0.011 -0.022 -0.022
 0.714  1.446  0.302  0.079  0.013 -0.022 -0.022
 0.716  1.446  0.302  0.081  0.014 -0.021 -0.021
 0.718  1.445  0.302  0.083  0.015 -0.020 -0.020
 0.720  1.445  0.303  0.085  0.017 -0.020 -0.020
 0.722  1.444  0.303  0.086  0.018 -0.019 -0.019
 0.724  1.444  0.303  0.089  0.019 -0.018 -0.018
 0.726  1.444  0.303  0.090  0.021 -0.018 -0.018
 0.728  1.444  0.304  0.093  0.023 -0.017 -0.017
 0.730  1.444  0.304  0.095  0.024 -0.016 -0.016
 0.732  1.444  0.305  0.097  0.026 -0.014 -0.014
 0.734  1.444  0.306  0.099  0.027 -0.014 -0.014
 0.736  1.445  0.308  0.102  0.029 -0.013 -0.013
 0.738  1.446  0.310  0.104  0.031 -0.012 -0.012
 0.740  1.448  0.311  0.107  0.033 -0.011 -0.011
 0.742  1.449  0.312  0.109  0.034 -0.009 -0.009
 0.744  1.451  0.315  0.112  0.037 -0.008 -0.008
 0.746  1.452  0.317  0.115  0.039 -0.007 -0.007
 0.748  1.454  0.319  0.117  0.041 -0.006 -0.006
 0.750  1.455  0.322  0.120  0.043 -0.005 -0.005
 0.752  1.457  0.324  0.122  0.045 -0.003 -0.003
 0.754  1.459  0.328  0.125  0.047 -0.002 -0.002
 0.756  1.462  0.330  0.128  0.050 -0.001 -0.001
 0.758  1.464  0.334  0.131  0.052  0.001  0.001
 0.760  1.466  0.337  0.133  0.054  0.002  0.002
 0.762  1.469  0.340  0.137  0.057  0.004  0.004
 0.764  1.472  0.345  0.140  0.059  0.005  0.005
 0.766  1.476  0.348  0.143  0.062  0.007  0.007
 0.768  1.479  0.352  0.146  0.064  0.008  0.008
 0.770  1.483  0.356  0.150  0.067  0.011  0.011
 0.772  1.487  0.361  0.153  0.070  0.012  0.012
 0.774  1.491  0.366  0.156  0.073  0.014  0.014
 0.776  1.495  0.372  0.160  0.076  0.016  0.016
 0.778  1.501  0.377  0.163  0.079  0.017  0.017
 0.780  1.505  0.383  0.167  0.082  0.019  0.019
 0.782  1.510  0.387  0.171  0.085  0.021  0.021
 0.784  1.514  0.393  0.175  0.088  0.023  0.023
 0.786  1.519  0.399  0.179  0.092  0.024  0.024
 0.788  1.525  0.405  0.182  0.095  0.026  0.026
 0.790  1.530  0.411  0.186  0.098  0.028  0.028
 0.792  1.535  0.417  0.189  0.101  0.030  0.030
 0.794  1.539  0.423  0.193  0.105  0.032  0.032
 0.796  1.544  0.429  0.196  0.108  0.034  0.034
 0.798  1.549  0.434  0.199  0.111  0.036  0.036
 0.800  1.553  0.440  0.201  0.114  0.038  0.038
 0.802  1.557  0.445  0.205  0.117  0.040  0.040
 0.804  1.561  0.449  0.207  0.120  0.042  0.042
 0.806  1.565  0.453  0.209  0.122  0.044  0.044
 0.808  1.568  0.457  0.211  0.124  0.046  0.046
