# IsPeriodic    : True
# Period        : 0.562575 days
# Normalization : <g_mag>=0
# 
# Phase u_mag  g_mag  r_mag  i_mag  z_mag  y_mag
 0.000  0.567 -0.633 -0.596 -0.531 -0.490 -0.490
 0.002  0.568 -0.633 -0.596 -0.531 -0.490 -0.490
 0.004  0.569 -0.633 -0.596 -0.531 -0.490 -0.490
 0.006  0.570 -0.632 -0.595 -0.530 -0.489 -0.489
 0.008  0.572 -0.631 -0.594 -0.529 -0.488 -0.488
 0.010  0.575 -0.629 -0.593 -0.529 -0.487 -0.487
 0.012  0.578 -0.628 -0.591 -0.529 -0.485 -0.485
 0.014  0.581 -0.626 -0.590 -0.528 -0.484 -0.484
 0.016  0.585 -0.624 -0.588 -0.527 -0.483 -0.483
 0.018  0.589 -0.622 -0.585 -0.527 -0.481 -0.481
 0.020  0.593 -0.619 -0.583 -0.525 -0.479 -0.479
 0.022  0.598 -0.617 -0.581 -0.524 -0.477 -0.477
 0.024  0.602 -0.614 -0.579 -0.523 -0.475 -0.475
 0.026  0.607 -0.611 -0.577 -0.522 -0.473 -0.473
 0.028  0.610 -0.607 -0.574 -0.521 -0.472 -0.472
 0.030  0.614 -0.604 -0.572 -0.519 -0.470 -0.470
 0.032  0.618 -0.601 -0.570 -0.517 -0.469 -0.469
 0.034  0.623 -0.598 -0.568 -0.515 -0.467 -0.467
 0.036  0.627 -0.595 -0.566 -0.514 -0.465 -0.465
 0.038  0.631 -0.591 -0.563 -0.512 -0.463 -0.463
 0.040  0.635 -0.588 -0.561 -0.510 -0.462 -0.462
 0.042  0.640 -0.584 -0.559 -0.507 -0.460 -0.460
 0.044  0.644 -0.580 -0.556 -0.505 -0.459 -0.459
 0.046  0.649 -0.576 -0.554 -0.503 -0.457 -0.457
 0.048  0.653 -0.572 -0.551 -0.500 -0.456 -0.456
 0.050  0.658 -0.567 -0.549 -0.497 -0.454 -0.454
 0.052  0.663 -0.563 -0.546 -0.495 -0.452 -0.452
 0.054  0.667 -0.558 -0.543 -0.492 -0.450 -0.450
 0.056  0.672 -0.553 -0.541 -0.489 -0.449 -0.449
 0.058  0.677 -0.548 -0.538 -0.486 -0.447 -0.447
 0.060  0.682 -0.542 -0.534 -0.483 -0.445 -0.445
 0.062  0.687 -0.537 -0.531 -0.481 -0.443 -0.443
 0.064  0.692 -0.532 -0.528 -0.478 -0.442 -0.442
 0.066  0.698 -0.526 -0.525 -0.475 -0.440 -0.440
 0.068  0.703 -0.520 -0.522 -0.472 -0.438 -0.438
 0.070  0.709 -0.514 -0.519 -0.469 -0.437 -0.437
 0.072  0.714 -0.508 -0.516 -0.466 -0.435 -0.435
 0.074  0.719 -0.502 -0.512 -0.463 -0.433 -0.433
 0.076  0.724 -0.496 -0.509 -0.461 -0.431 -0.431
 0.078  0.730 -0.490 -0.506 -0.458 -0.430 -0.430
 0.080  0.735 -0.484 -0.503 -0.455 -0.428 -0.428
 0.082  0.741 -0.478 -0.500 -0.453 -0.427 -0.427
 0.084  0.747 -0.472 -0.496 -0.450 -0.425 -0.425
 0.086  0.752 -0.466 -0.493 -0.448 -0.423 -0.423
 0.088  0.758 -0.460 -0.490 -0.445 -0.421 -0.421
 0.090  0.763 -0.454 -0.487 -0.443 -0.420 -0.420
 0.092  0.769 -0.448 -0.483 -0.440 -0.418 -0.418
 0.094  0.773 -0.441 -0.480 -0.438 -0.417 -0.417
 0.096  0.779 -0.436 -0.477 -0.436 -0.415 -0.415
 0.098  0.784 -0.430 -0.473 -0.433 -0.413 -0.413
 0.100  0.789 -0.425 -0.470 -0.431 -0.411 -0.411
 0.102  0.795 -0.419 -0.468 -0.429 -0.410 -0.410
 0.104  0.800 -0.414 -0.464 -0.427 -0.408 -0.408
 0.106  0.805 -0.408 -0.461 -0.425 -0.407 -0.407
 0.108  0.810 -0.403 -0.458 -0.423 -0.405 -0.405
 0.110  0.815 -0.398 -0.455 -0.420 -0.403 -0.403
 0.112  0.820 -0.392 -0.452 -0.419 -0.401 -0.401
 0.114  0.825 -0.387 -0.449 -0.417 -0.400 -0.400
 0.116  0.829 -0.382 -0.446 -0.415 -0.398 -0.398
 0.118  0.833 -0.377 -0.443 -0.413 -0.397 -0.397
 0.120  0.838 -0.372 -0.440 -0.411 -0.395 -0.395
 0.122  0.843 -0.367 -0.438 -0.409 -0.394 -0.394
 0.124  0.847 -0.362 -0.435 -0.408 -0.392 -0.392
 0.126  0.852 -0.357 -0.432 -0.406 -0.390 -0.390
 0.128  0.856 -0.353 -0.429 -0.404 -0.389 -0.389
 0.130  0.861 -0.348 -0.426 -0.402 -0.387 -0.387
 0.132  0.865 -0.343 -0.423 -0.401 -0.386 -0.386
 0.134  0.869 -0.339 -0.420 -0.399 -0.384 -0.384
 0.136  0.874 -0.334 -0.418 -0.397 -0.383 -0.383
 0.138  0.878 -0.330 -0.415 -0.396 -0.381 -0.381
 0.140  0.881 -0.325 -0.412 -0.394 -0.380 -0.380
 0.142  0.885 -0.321 -0.410 -0.393 -0.378 -0.378
 0.144  0.889 -0.317 -0.407 -0.391 -0.377 -0.377
 0.146  0.893 -0.312 -0.404 -0.389 -0.375 -0.375
 0.148  0.897 -0.308 -0.402 -0.388 -0.374 -0.374
 0.150  0.901 -0.304 -0.399 -0.386 -0.372 -0.372
 0.152  0.905 -0.300 -0.396 -0.384 -0.371 -0.371
 0.154  0.909 -0.296 -0.394 -0.383 -0.369 -0.369
 0.156  0.913 -0.291 -0.391 -0.381 -0.368 -0.368
 0.158  0.917 -0.287 -0.388 -0.380 -0.366 -0.366
 0.160  0.920 -0.283 -0.386 -0.378 -0.365 -0.365
 0.162  0.924 -0.279 -0.383 -0.376 -0.363 -0.363
 0.164  0.928 -0.274 -0.381 -0.374 -0.362 -0.362
 0.166  0.932 -0.270 -0.378 -0.373 -0.361 -0.361
 0.168  0.935 -0.266 -0.376 -0.372 -0.359 -0.359
 0.170  0.938 -0.262 -0.373 -0.370 -0.357 -0.357
 0.172  0.942 -0.258 -0.371 -0.368 -0.356 -0.356
 0.174  0.946 -0.253 -0.369 -0.366 -0.355 -0.355
 0.176  0.950 -0.249 -0.366 -0.365 -0.353 -0.353
 0.178  0.954 -0.245 -0.364 -0.363 -0.352 -0.352
 0.180  0.957 -0.241 -0.361 -0.362 -0.350 -0.350
 0.182  0.961 -0.237 -0.358 -0.360 -0.349 -0.349
 0.184  0.965 -0.233 -0.356 -0.358 -0.347 -0.347
 0.186  0.969 -0.229 -0.354 -0.357 -0.346 -0.346
 0.188  0.973 -0.225 -0.352 -0.355 -0.345 -0.345
 0.190  0.977 -0.222 -0.349 -0.353 -0.343 -0.343
 0.192  0.981 -0.218 -0.347 -0.352 -0.342 -0.342
 0.194  0.984 -0.214 -0.345 -0.350 -0.341 -0.341
 0.196  0.987 -0.210 -0.342 -0.349 -0.339 -0.339
 0.198  0.991 -0.206 -0.340 -0.347 -0.338 -0.338
 0.200  0.995 -0.202 -0.338 -0.345 -0.336 -0.336
 0.202  0.999 -0.198 -0.335 -0.344 -0.335 -0.335
 0.204  1.002 -0.194 -0.333 -0.342 -0.334 -0.334
 0.206  1.006 -0.191 -0.331 -0.341 -0.332 -0.332
 0.208  1.010 -0.187 -0.328 -0.339 -0.331 -0.331
 0.210  1.014 -0.183 -0.326 -0.337 -0.330 -0.330
 0.212  1.018 -0.179 -0.324 -0.336 -0.329 -0.329
 0.214  1.022 -0.175 -0.322 -0.334 -0.327 -0.327
 0.216  1.026 -0.172 -0.320 -0.332 -0.326 -0.326
 0.218  1.030 -0.168 -0.317 -0.331 -0.324 -0.324
 0.220  1.033 -0.164 -0.315 -0.330 -0.323 -0.323
 0.222  1.037 -0.160 -0.313 -0.328 -0.322 -0.322
 0.224  1.040 -0.157 -0.311 -0.327 -0.321 -0.321
 0.226  1.044 -0.153 -0.309 -0.325 -0.319 -0.319
 0.228  1.048 -0.149 -0.307 -0.323 -0.318 -0.318
 0.230  1.052 -0.146 -0.305 -0.322 -0.316 -0.316
 0.232  1.055 -0.142 -0.303 -0.320 -0.315 -0.315
 0.234  1.059 -0.139 -0.301 -0.318 -0.314 -0.314
 0.236  1.063 -0.135 -0.298 -0.317 -0.313 -0.313
 0.238  1.066 -0.132 -0.296 -0.316 -0.311 -0.311
 0.240  1.070 -0.128 -0.294 -0.314 -0.310 -0.310
 0.242  1.074 -0.125 -0.292 -0.313 -0.309 -0.309
 0.244  1.077 -0.121 -0.290 -0.311 -0.308 -0.308
 0.246  1.081 -0.118 -0.287 -0.309 -0.307 -0.307
 0.248  1.084 -0.114 -0.285 -0.308 -0.305 -0.305
 0.250  1.088 -0.111 -0.283 -0.306 -0.304 -0.304
 0.252  1.091 -0.106 -0.281 -0.305 -0.303 -0.303
 0.254  1.094 -0.103 -0.279 -0.303 -0.301 -0.301
 0.256  1.097 -0.100 -0.276 -0.302 -0.300 -0.300
 0.258  1.101 -0.096 -0.274 -0.300 -0.299 -0.299
 0.260  1.104 -0.093 -0.272 -0.299 -0.298 -0.298
 0.262  1.107 -0.090 -0.270 -0.298 -0.297 -0.297
 0.264  1.111 -0.087 -0.268 -0.296 -0.296 -0.296
 0.266  1.114 -0.083 -0.266 -0.295 -0.294 -0.294
 0.268  1.117 -0.080 -0.264 -0.293 -0.293 -0.293
 0.270  1.121 -0.077 -0.262 -0.292 -0.292 -0.292
 0.272  1.124 -0.074 -0.260 -0.290 -0.291 -0.291
 0.274  1.127 -0.071 -0.257 -0.289 -0.289 -0.289
 0.276  1.130 -0.067 -0.255 -0.287 -0.288 -0.288
 0.278  1.133 -0.064 -0.253 -0.285 -0.287 -0.287
 0.280  1.136 -0.061 -0.251 -0.284 -0.286 -0.286
 0.282  1.139 -0.058 -0.249 -0.282 -0.284 -0.284
 0.284  1.142 -0.055 -0.246 -0.281 -0.283 -0.283
 0.286  1.145 -0.052 -0.244 -0.279 -0.282 -0.282
 0.288  1.147 -0.049 -0.242 -0.278 -0.281 -0.281
 0.290  1.150 -0.046 -0.240 -0.277 -0.280 -0.280
 0.292  1.153 -0.043 -0.238 -0.275 -0.279 -0.279
 0.294  1.156 -0.040 -0.235 -0.274 -0.278 -0.278
 0.296  1.159 -0.037 -0.233 -0.272 -0.277 -0.277
 0.298  1.162 -0.034 -0.231 -0.271 -0.276 -0.276
 0.300  1.165 -0.031 -0.229 -0.269 -0.274 -0.274
 0.302  1.167 -0.028 -0.227 -0.268 -0.273 -0.273
 0.304  1.170 -0.025 -0.224 -0.266 -0.272 -0.272
 0.306  1.173 -0.022 -0.222 -0.265 -0.271 -0.271
 0.308  1.176 -0.019 -0.221 -0.263 -0.269 -0.269
 0.310  1.179 -0.016 -0.219 -0.261 -0.268 -0.268
 0.312  1.181 -0.013 -0.216 -0.260 -0.267 -0.267
 0.314  1.184 -0.010 -0.214 -0.258 -0.266 -0.266
 0.316  1.187 -0.007 -0.212 -0.257 -0.265 -0.265
 0.318  1.190 -0.004 -0.210 -0.256 -0.264 -0.264
 0.320  1.192  0.000 -0.208 -0.254 -0.262 -0.262
 0.322  1.195  0.003 -0.206 -0.253 -0.261 -0.261
 0.324  1.198  0.006 -0.204 -0.251 -0.260 -0.260
 0.326  1.200  0.009 -0.202 -0.249 -0.258 -0.258
 0.328  1.202  0.012 -0.200 -0.248 -0.257 -0.257
 0.330  1.205  0.015 -0.198 -0.246 -0.256 -0.256
 0.332  1.208  0.018 -0.197 -0.244 -0.255 -0.255
 0.334  1.210  0.021 -0.194 -0.243 -0.254 -0.254
 0.336  1.213  0.025 -0.192 -0.242 -0.252 -0.252
 0.338  1.216  0.028 -0.191 -0.240 -0.251 -0.251
 0.340  1.218  0.031 -0.189 -0.239 -0.249 -0.249
 0.342  1.221  0.034 -0.186 -0.237 -0.248 -0.248
 0.344  1.224  0.037 -0.185 -0.236 -0.247 -0.247
 0.346  1.226  0.040 -0.183 -0.234 -0.245 -0.245
 0.348  1.229  0.044 -0.181 -0.232 -0.244 -0.244
 0.350  1.232  0.047 -0.179 -0.231 -0.243 -0.243
 0.352  1.234  0.050 -0.178 -0.229 -0.241 -0.241
 0.354  1.237  0.053 -0.175 -0.228 -0.240 -0.240
 0.356  1.239  0.056 -0.174 -0.226 -0.238 -0.238
 0.358  1.242  0.061 -0.172 -0.225 -0.237 -0.237
 0.360  1.245  0.064 -0.170 -0.223 -0.236 -0.236
 0.362  1.247  0.067 -0.169 -0.221 -0.234 -0.234
 0.364  1.250  0.070 -0.167 -0.220 -0.233 -0.233
 0.366  1.252  0.073 -0.165 -0.218 -0.232 -0.232
 0.368  1.254  0.076 -0.163 -0.216 -0.230 -0.230
 0.370  1.256  0.079 -0.161 -0.215 -0.228 -0.228
 0.372  1.259  0.082 -0.160 -0.214 -0.227 -0.227
 0.374  1.261  0.085 -0.158 -0.212 -0.225 -0.225
 0.376  1.264  0.088 -0.156 -0.210 -0.224 -0.224
 0.378  1.266  0.091 -0.154 -0.209 -0.223 -0.223
 0.380  1.269  0.094 -0.153 -0.207 -0.221 -0.221
 0.382  1.271  0.097 -0.151 -0.205 -0.220 -0.220
 0.384  1.274  0.100 -0.149 -0.204 -0.218 -0.218
 0.386  1.276  0.102 -0.148 -0.202 -0.217 -0.217
 0.388  1.279  0.105 -0.146 -0.201 -0.215 -0.215
 0.390  1.281  0.108 -0.144 -0.199 -0.214 -0.214
 0.392  1.284  0.110 -0.142 -0.198 -0.213 -0.213
 0.394  1.286  0.113 -0.141 -0.196 -0.211 -0.211
 0.396  1.289  0.116 -0.139 -0.194 -0.210 -0.210
 0.398  1.291  0.118 -0.137 -0.193 -0.208 -0.208
 0.400  1.293  0.121 -0.135 -0.191 -0.207 -0.207
 0.402  1.296  0.123 -0.134 -0.190 -0.206 -0.206
 0.404  1.298  0.126 -0.132 -0.188 -0.204 -0.204
 0.406  1.301  0.128 -0.130 -0.186 -0.203 -0.203
 0.408  1.303  0.130 -0.128 -0.184 -0.202 -0.202
 0.410  1.305  0.133 -0.127 -0.183 -0.201 -0.201
 0.412  1.308  0.135 -0.125 -0.182 -0.199 -0.199
 0.414  1.309  0.137 -0.123 -0.180 -0.198 -0.198
 0.416  1.311  0.139 -0.122 -0.178 -0.196 -0.196
 0.418  1.314  0.141 -0.120 -0.177 -0.195 -0.195
 0.420  1.316  0.143 -0.118 -0.175 -0.194 -0.194
 0.422  1.318  0.146 -0.117 -0.173 -0.193 -0.193
 0.424  1.321  0.148 -0.115 -0.172 -0.191 -0.191
 0.426  1.323  0.150 -0.113 -0.170 -0.190 -0.190
 0.428  1.325  0.152 -0.112 -0.169 -0.189 -0.189
 0.430  1.328  0.153 -0.110 -0.168 -0.187 -0.187
 0.432  1.330  0.155 -0.108 -0.166 -0.186 -0.186
 0.434  1.332  0.157 -0.107 -0.165 -0.185 -0.185
 0.436  1.334  0.159 -0.105 -0.163 -0.184 -0.184
 0.438  1.337  0.161 -0.103 -0.162 -0.183 -0.183
 0.440  1.339  0.163 -0.101 -0.160 -0.181 -0.181
 0.442  1.341  0.164 -0.100 -0.159 -0.180 -0.180
 0.444  1.343  0.166 -0.098 -0.158 -0.179 -0.179
 0.446  1.345  0.168 -0.096 -0.156 -0.177 -0.177
 0.448  1.347  0.170 -0.095 -0.155 -0.176 -0.176
 0.450  1.349  0.171 -0.093 -0.154 -0.175 -0.175
 0.452  1.352  0.173 -0.092 -0.152 -0.174 -0.174
 0.454  1.354  0.175 -0.090 -0.151 -0.173 -0.173
 0.456  1.355  0.176 -0.088 -0.149 -0.172 -0.172
 0.458  1.357  0.178 -0.087 -0.148 -0.171 -0.171
 0.460  1.359  0.179 -0.085 -0.147 -0.169 -0.169
 0.462  1.361  0.181 -0.084 -0.146 -0.168 -0.168
 0.464  1.362  0.183 -0.082 -0.145 -0.167 -0.167
 0.466  1.364  0.184 -0.081 -0.144 -0.166 -0.166
 0.468  1.366  0.186 -0.079 -0.142 -0.165 -0.165
 0.470  1.367  0.187 -0.078 -0.141 -0.163 -0.163
 0.472  1.369  0.188 -0.076 -0.140 -0.162 -0.162
 0.474  1.371  0.190 -0.075 -0.140 -0.161 -0.161
 0.476  1.372  0.191 -0.074 -0.138 -0.160 -0.160
 0.478  1.374  0.193 -0.072 -0.137 -0.159 -0.159
 0.480  1.376  0.194 -0.071 -0.136 -0.158 -0.158
 0.482  1.377  0.195 -0.069 -0.135 -0.157 -0.157
 0.484  1.379  0.197 -0.068 -0.134 -0.155 -0.155
 0.486  1.380  0.198 -0.066 -0.133 -0.154 -0.154
 0.488  1.382  0.199 -0.065 -0.132 -0.153 -0.153
 0.490  1.383  0.201 -0.063 -0.131 -0.152 -0.152
 0.492  1.384  0.202 -0.062 -0.130 -0.151 -0.151
 0.494  1.386  0.203 -0.061 -0.130 -0.150 -0.150
 0.496  1.387  0.204 -0.060 -0.128 -0.149 -0.149
 0.498  1.388  0.205 -0.058 -0.127 -0.148 -0.148
 0.500  1.390  0.206 -0.057 -0.127 -0.147 -0.147
 0.502  1.391  0.208 -0.055 -0.126 -0.146 -0.146
 0.504  1.392  0.209 -0.055 -0.125 -0.145 -0.145
 0.506  1.393  0.210 -0.053 -0.124 -0.144 -0.144
 0.508  1.394  0.211 -0.052 -0.123 -0.143 -0.143
 0.510  1.395  0.212 -0.050 -0.122 -0.142 -0.142
 0.512  1.396  0.213 -0.049 -0.121 -0.141 -0.141
 0.514  1.397  0.214 -0.048 -0.120 -0.140 -0.140
 0.516  1.398  0.215 -0.046 -0.119 -0.139 -0.139
 0.518  1.399  0.216 -0.046 -0.119 -0.138 -0.138
 0.520  1.400  0.217 -0.044 -0.117 -0.137 -0.137
 0.522  1.401  0.218 -0.044 -0.117 -0.136 -0.136
 0.524  1.402  0.219 -0.042 -0.116 -0.134 -0.134
 0.526  1.403  0.220 -0.041 -0.115 -0.134 -0.134
 0.528  1.404  0.221 -0.040 -0.114 -0.133 -0.133
 0.530  1.405  0.222 -0.039 -0.113 -0.132 -0.132
 0.532  1.406  0.223 -0.038 -0.113 -0.131 -0.131
 0.534  1.407  0.224 -0.037 -0.112 -0.130 -0.130
 0.536  1.408  0.225 -0.035 -0.111 -0.129 -0.129
 0.538  1.409  0.226 -0.035 -0.110 -0.128 -0.128
 0.540  1.410  0.228 -0.034 -0.109 -0.127 -0.127
 0.542  1.410  0.229 -0.033 -0.109 -0.127 -0.127
 0.544  1.411  0.230 -0.032 -0.107 -0.126 -0.126
 0.546  1.412  0.231 -0.031 -0.107 -0.125 -0.125
 0.548  1.413  0.232 -0.030 -0.106 -0.124 -0.124
 0.550  1.413  0.233 -0.029 -0.105 -0.123 -0.123
 0.552  1.414  0.234 -0.028 -0.105 -0.122 -0.122
 0.554  1.415  0.235 -0.027 -0.103 -0.121 -0.121
 0.556  1.415  0.236 -0.027 -0.103 -0.121 -0.121
 0.558  1.415  0.237 -0.026 -0.102 -0.120 -0.120
 0.560  1.416  0.238 -0.024 -0.102 -0.119 -0.119
 0.562  1.417  0.239 -0.024 -0.100 -0.118 -0.118
 0.564  1.417  0.239 -0.023 -0.100 -0.118 -0.118
 0.566  1.418  0.240 -0.022 -0.099 -0.117 -0.117
 0.568  1.418  0.241 -0.022 -0.098 -0.116 -0.116
 0.570  1.419  0.242 -0.021 -0.098 -0.115 -0.115
 0.572  1.420  0.243 -0.020 -0.097 -0.115 -0.115
 0.574  1.420  0.244 -0.019 -0.096 -0.114 -0.114
 0.576  1.421  0.244 -0.019 -0.096 -0.113 -0.113
 0.578  1.421  0.245 -0.019 -0.095 -0.112 -0.112
 0.580  1.422  0.246 -0.018 -0.094 -0.112 -0.112
 0.582  1.422  0.247 -0.017 -0.093 -0.111 -0.111
 0.584  1.423  0.247 -0.016 -0.093 -0.110 -0.110
 0.586  1.423  0.248 -0.016 -0.092 -0.110 -0.110
 0.588  1.424  0.249 -0.016 -0.092 -0.109 -0.109
 0.590  1.424  0.249 -0.015 -0.091 -0.108 -0.108
 0.592  1.424  0.250 -0.014 -0.091 -0.108 -0.108
 0.594  1.425  0.251 -0.014 -0.090 -0.107 -0.107
 0.596  1.425  0.251 -0.013 -0.089 -0.107 -0.107
 0.598  1.425  0.252 -0.013 -0.089 -0.106 -0.106
 0.600  1.425  0.252 -0.013 -0.088 -0.105 -0.105
 0.602  1.426  0.253 -0.013 -0.088 -0.105 -0.105
 0.604  1.426  0.253 -0.012 -0.087 -0.104 -0.104
 0.606  1.426  0.253 -0.012 -0.087 -0.103 -0.103
 0.608  1.426  0.254 -0.011 -0.086 -0.102 -0.102
 0.610  1.426  0.254 -0.011 -0.085 -0.102 -0.102
 0.612  1.426  0.254 -0.011 -0.085 -0.101 -0.101
 0.614  1.426  0.255 -0.011 -0.085 -0.100 -0.100
 0.616  1.426  0.255 -0.011 -0.084 -0.100 -0.100
 0.618  1.426  0.255 -0.011 -0.084 -0.099 -0.099
 0.620  1.426  0.255 -0.010 -0.083 -0.098 -0.098
 0.622  1.426  0.256 -0.010 -0.083 -0.098 -0.098
 0.624  1.426  0.256 -0.010 -0.082 -0.097 -0.097
 0.626  1.426  0.256 -0.010 -0.082 -0.097 -0.097
 0.628  1.426  0.256 -0.010 -0.081 -0.096 -0.096
 0.630  1.425  0.256 -0.010 -0.081 -0.095 -0.095
 0.632  1.425  0.256 -0.010 -0.081 -0.095 -0.095
 0.634  1.425  0.256 -0.010 -0.080 -0.094 -0.094
 0.636  1.425  0.256 -0.010 -0.080 -0.093 -0.093
 0.638  1.424  0.256 -0.010 -0.080 -0.093 -0.093
 0.640  1.424  0.256 -0.010 -0.079 -0.092 -0.092
 0.642  1.423  0.256 -0.010 -0.079 -0.091 -0.091
 0.644  1.423  0.256 -0.010 -0.078 -0.090 -0.090
 0.646  1.423  0.256 -0.010 -0.078 -0.090 -0.090
 0.648  1.422  0.256 -0.011 -0.078 -0.089 -0.089
 0.650  1.422  0.255 -0.011 -0.078 -0.088 -0.088
 0.652  1.421  0.255 -0.011 -0.077 -0.088 -0.088
 0.654  1.421  0.255 -0.011 -0.077 -0.087 -0.087
 0.656  1.420  0.255 -0.011 -0.077 -0.086 -0.086
 0.658  1.420  0.255 -0.011 -0.077 -0.086 -0.086
 0.660  1.419  0.254 -0.011 -0.077 -0.085 -0.085
 0.662  1.419  0.254 -0.011 -0.076 -0.084 -0.084
 0.664  1.418  0.254 -0.011 -0.076 -0.084 -0.084
 0.666  1.418  0.254 -0.011 -0.076 -0.083 -0.083
 0.668  1.417  0.254 -0.011 -0.075 -0.082 -0.082
 0.670  1.417  0.253 -0.010 -0.075 -0.081 -0.081
 0.672  1.416  0.253 -0.010 -0.075 -0.080 -0.080
 0.674  1.416  0.253 -0.010 -0.075 -0.079 -0.079
 0.676  1.415  0.253 -0.010 -0.075 -0.079 -0.079
 0.678  1.415  0.252 -0.009 -0.075 -0.078 -0.078
 0.680  1.415  0.252 -0.009 -0.075 -0.077 -0.077
 0.682  1.415  0.252 -0.008 -0.074 -0.076 -0.076
 0.684  1.414  0.252 -0.008 -0.074 -0.075 -0.075
 0.686  1.414  0.251 -0.008 -0.074 -0.075 -0.075
 0.688  1.413  0.251 -0.007 -0.074 -0.074 -0.074
 0.690  1.413  0.251 -0.007 -0.074 -0.073 -0.073
 0.692  1.413  0.250 -0.006 -0.074 -0.072 -0.072
 0.694  1.412  0.250 -0.005 -0.074 -0.071 -0.071
 0.696  1.412  0.250 -0.005 -0.074 -0.070 -0.070
 0.698  1.412  0.249 -0.004 -0.074 -0.069 -0.069
 0.700  1.411  0.249 -0.003 -0.074 -0.068 -0.068
 0.702  1.411  0.249 -0.003 -0.074 -0.067 -0.067
 0.704  1.411  0.248 -0.002 -0.074 -0.066 -0.066
 0.706  1.410  0.248 -0.001 -0.074 -0.065 -0.065
 0.708  1.410  0.248 -0.000 -0.074 -0.064 -0.064
 0.710  1.410  0.247  0.000 -0.074 -0.063 -0.063
 0.712  1.409  0.247  0.001 -0.073 -0.062 -0.062
 0.714  1.409  0.247  0.002 -0.073 -0.061 -0.061
 0.716  1.408  0.246  0.003 -0.072 -0.060 -0.060
 0.718  1.408  0.246  0.004 -0.071 -0.059 -0.059
 0.720  1.408  0.246  0.005 -0.071 -0.058 -0.058
 0.722  1.407  0.246  0.006 -0.070 -0.057 -0.057
 0.724  1.407  0.246  0.007 -0.069 -0.056 -0.056
 0.726  1.407  0.246  0.008 -0.068 -0.054 -0.054
 0.728  1.407  0.246  0.010 -0.067 -0.053 -0.053
 0.730  1.407  0.247  0.011 -0.066 -0.052 -0.052
 0.732  1.408  0.247  0.013 -0.066 -0.051 -0.051
 0.734  1.408  0.248  0.014 -0.064 -0.049 -0.049
 0.736  1.409  0.249  0.016 -0.063 -0.048 -0.048
 0.738  1.410  0.250  0.018 -0.061 -0.046 -0.046
 0.740  1.411  0.252  0.019 -0.060 -0.045 -0.045
 0.742  1.412  0.253  0.022 -0.059 -0.044 -0.044
 0.744  1.413  0.255  0.024 -0.057 -0.042 -0.042
 0.746  1.415  0.256  0.026 -0.056 -0.041 -0.041
 0.748  1.415  0.258  0.028 -0.054 -0.039 -0.039
 0.750  1.417  0.260  0.030 -0.052 -0.037 -0.037
 0.752  1.419  0.262  0.033 -0.050 -0.035 -0.035
 0.754  1.422  0.264  0.036 -0.048 -0.033 -0.033
 0.756  1.424  0.266  0.038 -0.046 -0.032 -0.032
 0.758  1.426  0.268  0.041 -0.044 -0.030 -0.030
 0.760  1.429  0.271  0.043 -0.042 -0.027 -0.027
 0.762  1.432  0.273  0.046 -0.040 -0.026 -0.026
 0.764  1.435  0.276  0.049 -0.038 -0.024 -0.024
 0.766  1.438  0.279  0.052 -0.035 -0.021 -0.021
 0.768  1.442  0.282  0.055 -0.032 -0.019 -0.019
 0.770  1.446  0.286  0.058 -0.030 -0.017 -0.017
 0.772  1.450  0.289  0.062 -0.028 -0.015 -0.015
 0.774  1.454  0.293  0.066 -0.025 -0.012 -0.012
 0.776  1.458  0.297  0.069 -0.022 -0.010 -0.010
 0.778  1.463  0.301  0.073 -0.020 -0.008 -0.008
 0.780  1.467  0.305  0.077 -0.018 -0.005 -0.005
 0.782  1.471  0.309  0.080 -0.015 -0.002 -0.002
 0.784  1.476  0.313  0.085 -0.012  0.000  0.000
 0.786  1.481  0.317  0.088 -0.010  0.003  0.003
 0.788  1.486  0.322  0.092 -0.008  0.006  0.006
 0.790  1.492  0.326  0.096 -0.005  0.009  0.009
 0.792  1.497  0.330  0.100 -0.003  0.011  0.011
 0.794  1.503  0.334  0.104 -0.000  0.015  0.015
 0.796  1.508  0.337  0.107  0.002  0.017  0.017
 0.798  1.513  0.341  0.111  0.004  0.020  0.020
 0.800  1.519  0.345  0.114  0.007  0.022  0.022
 0.802  1.523  0.348  0.118  0.009  0.025  0.025
 0.804  1.527  0.351  0.121  0.011  0.027  0.027
 0.806  1.532  0.354  0.123  0.013  0.029  0.029
 0.808  1.536  0.357  0.126  0.016  0.031  0.031
