# IsPeriodic    : True
# Period        : 0.454669 days
# Normalization : <g_mag>=0
# 
# Phase u_mag  g_mag  r_mag  i_mag  z_mag  y_mag
 0.000  0.230 -0.969 -0.740 -0.581 -0.494 -0.494
 0.002  0.230 -0.969 -0.740 -0.581 -0.494 -0.494
 0.004  0.230 -0.967 -0.738 -0.581 -0.494 -0.494
 0.006  0.232 -0.966 -0.736 -0.581 -0.493 -0.493
 0.008  0.233 -0.963 -0.733 -0.580 -0.492 -0.492
 0.010  0.236 -0.960 -0.728 -0.579 -0.491 -0.491
 0.012  0.238 -0.956 -0.724 -0.578 -0.489 -0.489
 0.014  0.241 -0.952 -0.719 -0.576 -0.488 -0.488
 0.016  0.243 -0.947 -0.714 -0.575 -0.486 -0.486
 0.018  0.248 -0.942 -0.709 -0.573 -0.484 -0.484
 0.020  0.252 -0.936 -0.704 -0.571 -0.482 -0.482
 0.022  0.255 -0.930 -0.698 -0.570 -0.480 -0.480
 0.024  0.259 -0.925 -0.692 -0.567 -0.477 -0.477
 0.026  0.265 -0.919 -0.687 -0.566 -0.475 -0.475
 0.028  0.270 -0.913 -0.682 -0.563 -0.472 -0.472
 0.030  0.274 -0.906 -0.677 -0.560 -0.470 -0.470
 0.032  0.280 -0.900 -0.672 -0.558 -0.468 -0.468
 0.034  0.286 -0.895 -0.667 -0.555 -0.466 -0.466
 0.036  0.291 -0.888 -0.662 -0.553 -0.463 -0.463
 0.038  0.297 -0.882 -0.657 -0.550 -0.460 -0.460
 0.040  0.303 -0.875 -0.652 -0.547 -0.458 -0.458
 0.042  0.310 -0.868 -0.648 -0.544 -0.455 -0.455
 0.044  0.317 -0.861 -0.642 -0.540 -0.452 -0.452
 0.046  0.325 -0.854 -0.637 -0.537 -0.450 -0.450
 0.048  0.332 -0.846 -0.632 -0.534 -0.447 -0.447
 0.050  0.339 -0.839 -0.627 -0.530 -0.444 -0.444
 0.052  0.348 -0.831 -0.622 -0.526 -0.441 -0.441
 0.054  0.357 -0.822 -0.616 -0.522 -0.438 -0.438
 0.056  0.365 -0.814 -0.611 -0.518 -0.434 -0.434
 0.058  0.374 -0.805 -0.606 -0.514 -0.431 -0.431
 0.060  0.383 -0.797 -0.600 -0.509 -0.427 -0.427
 0.062  0.393 -0.787 -0.595 -0.504 -0.424 -0.424
 0.064  0.403 -0.778 -0.590 -0.500 -0.420 -0.420
 0.066  0.412 -0.768 -0.584 -0.495 -0.416 -0.416
 0.068  0.423 -0.758 -0.579 -0.490 -0.413 -0.413
 0.070  0.434 -0.748 -0.574 -0.485 -0.409 -0.409
 0.072  0.444 -0.738 -0.569 -0.480 -0.404 -0.404
 0.074  0.455 -0.728 -0.564 -0.475 -0.401 -0.401
 0.076  0.466 -0.719 -0.558 -0.470 -0.397 -0.397
 0.078  0.477 -0.709 -0.552 -0.465 -0.393 -0.393
 0.080  0.487 -0.699 -0.547 -0.460 -0.389 -0.389
 0.082  0.499 -0.689 -0.542 -0.455 -0.385 -0.385
 0.084  0.509 -0.679 -0.537 -0.450 -0.381 -0.381
 0.086  0.519 -0.669 -0.532 -0.445 -0.377 -0.377
 0.088  0.529 -0.659 -0.527 -0.440 -0.374 -0.374
 0.090  0.540 -0.649 -0.521 -0.435 -0.370 -0.370
 0.092  0.550 -0.639 -0.516 -0.430 -0.366 -0.366
 0.094  0.560 -0.629 -0.511 -0.425 -0.362 -0.362
 0.096  0.569 -0.620 -0.506 -0.421 -0.359 -0.359
 0.098  0.579 -0.611 -0.501 -0.417 -0.355 -0.355
 0.100  0.587 -0.602 -0.496 -0.412 -0.352 -0.352
 0.102  0.596 -0.592 -0.491 -0.408 -0.348 -0.348
 0.104  0.605 -0.584 -0.486 -0.404 -0.345 -0.345
 0.106  0.614 -0.575 -0.481 -0.400 -0.342 -0.342
 0.108  0.622 -0.566 -0.476 -0.396 -0.339 -0.339
 0.110  0.631 -0.558 -0.471 -0.392 -0.335 -0.335
 0.112  0.640 -0.549 -0.466 -0.388 -0.332 -0.332
 0.114  0.647 -0.542 -0.461 -0.384 -0.329 -0.329
 0.116  0.656 -0.534 -0.456 -0.380 -0.326 -0.326
 0.118  0.663 -0.527 -0.451 -0.377 -0.323 -0.323
 0.120  0.672 -0.518 -0.447 -0.373 -0.320 -0.320
 0.122  0.679 -0.511 -0.442 -0.369 -0.317 -0.317
 0.124  0.686 -0.504 -0.437 -0.366 -0.315 -0.315
 0.126  0.693 -0.497 -0.433 -0.363 -0.312 -0.312
 0.128  0.701 -0.490 -0.428 -0.359 -0.309 -0.309
 0.130  0.708 -0.483 -0.424 -0.356 -0.306 -0.306
 0.132  0.714 -0.476 -0.419 -0.353 -0.303 -0.303
 0.134  0.721 -0.468 -0.415 -0.350 -0.301 -0.301
 0.136  0.727 -0.463 -0.410 -0.347 -0.299 -0.299
 0.138  0.734 -0.456 -0.406 -0.344 -0.296 -0.296
 0.140  0.740 -0.450 -0.402 -0.342 -0.294 -0.294
 0.142  0.746 -0.444 -0.397 -0.338 -0.292 -0.292
 0.144  0.751 -0.437 -0.393 -0.336 -0.289 -0.289
 0.146  0.757 -0.431 -0.388 -0.333 -0.287 -0.287
 0.148  0.763 -0.426 -0.384 -0.331 -0.285 -0.285
 0.150  0.769 -0.420 -0.380 -0.327 -0.283 -0.283
 0.152  0.775 -0.414 -0.375 -0.325 -0.281 -0.281
 0.154  0.780 -0.409 -0.371 -0.322 -0.278 -0.278
 0.156  0.786 -0.403 -0.366 -0.320 -0.276 -0.276
 0.158  0.792 -0.397 -0.362 -0.317 -0.274 -0.274
 0.160  0.798 -0.393 -0.358 -0.315 -0.272 -0.272
 0.162  0.802 -0.387 -0.354 -0.312 -0.270 -0.270
 0.164  0.808 -0.382 -0.350 -0.310 -0.267 -0.267
 0.166  0.814 -0.376 -0.346 -0.307 -0.265 -0.265
 0.168  0.820 -0.370 -0.342 -0.305 -0.263 -0.263
 0.170  0.825 -0.365 -0.338 -0.302 -0.261 -0.261
 0.172  0.831 -0.359 -0.334 -0.300 -0.259 -0.259
 0.174  0.837 -0.353 -0.330 -0.297 -0.256 -0.256
 0.176  0.841 -0.348 -0.327 -0.295 -0.254 -0.254
 0.178  0.847 -0.342 -0.323 -0.292 -0.252 -0.252
 0.180  0.853 -0.336 -0.319 -0.290 -0.250 -0.250
 0.182  0.859 -0.331 -0.315 -0.287 -0.247 -0.247
 0.184  0.865 -0.325 -0.311 -0.285 -0.245 -0.245
 0.186  0.870 -0.319 -0.308 -0.282 -0.243 -0.243
 0.188  0.876 -0.312 -0.304 -0.280 -0.241 -0.241
 0.190  0.881 -0.306 -0.300 -0.278 -0.239 -0.239
 0.192  0.886 -0.301 -0.297 -0.275 -0.237 -0.237
 0.194  0.892 -0.295 -0.293 -0.273 -0.235 -0.235
 0.196  0.898 -0.289 -0.288 -0.270 -0.233 -0.233
 0.198  0.904 -0.284 -0.285 -0.268 -0.231 -0.231
 0.200  0.910 -0.278 -0.281 -0.265 -0.228 -0.228
 0.202  0.914 -0.272 -0.278 -0.264 -0.226 -0.226
 0.204  0.920 -0.267 -0.274 -0.261 -0.224 -0.224
 0.206  0.926 -0.260 -0.271 -0.259 -0.222 -0.222
 0.208  0.931 -0.254 -0.268 -0.256 -0.219 -0.219
 0.210  0.936 -0.248 -0.264 -0.254 -0.217 -0.217
 0.212  0.941 -0.242 -0.261 -0.252 -0.215 -0.215
 0.214  0.947 -0.235 -0.257 -0.249 -0.213 -0.213
 0.216  0.953 -0.230 -0.254 -0.247 -0.211 -0.211
 0.218  0.959 -0.224 -0.251 -0.244 -0.208 -0.208
 0.220  0.963 -0.218 -0.248 -0.242 -0.206 -0.206
 0.222  0.969 -0.211 -0.244 -0.240 -0.204 -0.204
 0.224  0.975 -0.206 -0.241 -0.238 -0.202 -0.202
 0.226  0.979 -0.200 -0.238 -0.235 -0.200 -0.200
 0.228  0.985 -0.194 -0.235 -0.233 -0.198 -0.198
 0.230  0.991 -0.188 -0.232 -0.231 -0.196 -0.196
 0.232  0.995 -0.183 -0.229 -0.228 -0.194 -0.194
 0.234  1.001 -0.177 -0.226 -0.227 -0.191 -0.191
 0.236  1.005 -0.171 -0.223 -0.224 -0.189 -0.189
 0.238  1.011 -0.166 -0.220 -0.222 -0.187 -0.187
 0.240  1.016 -0.160 -0.217 -0.220 -0.186 -0.186
 0.242  1.021 -0.154 -0.214 -0.217 -0.183 -0.183
 0.244  1.026 -0.149 -0.211 -0.215 -0.181 -0.181
 0.246  1.030 -0.143 -0.208 -0.213 -0.179 -0.179
 0.248  1.036 -0.139 -0.205 -0.211 -0.177 -0.177
 0.250  1.040 -0.133 -0.201 -0.209 -0.175 -0.175
 0.252  1.045 -0.127 -0.198 -0.207 -0.173 -0.173
 0.254  1.050 -0.123 -0.195 -0.205 -0.172 -0.172
 0.256  1.055 -0.117 -0.192 -0.202 -0.169 -0.169
 0.258  1.059 -0.112 -0.190 -0.200 -0.167 -0.167
 0.260  1.063 -0.107 -0.187 -0.198 -0.166 -0.166
 0.262  1.068 -0.102 -0.184 -0.196 -0.163 -0.163
 0.264  1.074 -0.098 -0.181 -0.194 -0.162 -0.162
 0.266  1.078 -0.093 -0.178 -0.191 -0.160 -0.160
 0.268  1.082 -0.088 -0.176 -0.190 -0.158 -0.158
 0.270  1.087 -0.083 -0.173 -0.187 -0.156 -0.156
 0.272  1.091 -0.079 -0.170 -0.186 -0.155 -0.155
 0.274  1.095 -0.073 -0.168 -0.184 -0.152 -0.152
 0.276  1.100 -0.069 -0.165 -0.181 -0.151 -0.151
 0.278  1.104 -0.065 -0.162 -0.180 -0.149 -0.149
 0.280  1.108 -0.061 -0.160 -0.177 -0.147 -0.147
 0.282  1.113 -0.056 -0.157 -0.176 -0.145 -0.145
 0.284  1.116 -0.052 -0.155 -0.173 -0.144 -0.144
 0.286  1.120 -0.048 -0.152 -0.171 -0.142 -0.142
 0.288  1.124 -0.044 -0.150 -0.170 -0.140 -0.140
 0.290  1.129 -0.039 -0.147 -0.167 -0.138 -0.138
 0.292  1.133 -0.035 -0.145 -0.165 -0.136 -0.136
 0.294  1.137 -0.031 -0.142 -0.163 -0.135 -0.135
 0.296  1.140 -0.026 -0.140 -0.161 -0.133 -0.133
 0.298  1.145 -0.022 -0.138 -0.160 -0.131 -0.131
 0.300  1.149 -0.018 -0.135 -0.157 -0.130 -0.130
 0.302  1.153 -0.014 -0.133 -0.155 -0.128 -0.128
 0.304  1.156 -0.011 -0.130 -0.153 -0.126 -0.126
 0.306  1.161 -0.007 -0.128 -0.151 -0.124 -0.124
 0.308  1.165 -0.002 -0.125 -0.150 -0.123 -0.123
 0.310  1.169  0.002 -0.123 -0.147 -0.121 -0.121
 0.312  1.172  0.006 -0.120 -0.145 -0.119 -0.119
 0.314  1.177  0.009 -0.118 -0.143 -0.118 -0.118
 0.316  1.181  0.013 -0.114 -0.141 -0.116 -0.116
 0.318  1.185  0.018 -0.112 -0.139 -0.114 -0.114
 0.320  1.188  0.022 -0.109 -0.137 -0.113 -0.113
 0.322  1.193  0.026 -0.107 -0.134 -0.110 -0.110
 0.324  1.197  0.030 -0.104 -0.133 -0.109 -0.109
 0.326  1.200  0.033 -0.102 -0.130 -0.107 -0.107
 0.328  1.204  0.037 -0.099 -0.129 -0.105 -0.105
 0.330  1.209  0.042 -0.097 -0.126 -0.104 -0.104
 0.332  1.213  0.046 -0.094 -0.124 -0.102 -0.102
 0.334  1.216  0.049 -0.091 -0.122 -0.101 -0.101
 0.336  1.220  0.053 -0.089 -0.120 -0.099 -0.099
 0.338  1.224  0.057 -0.086 -0.118 -0.097 -0.097
 0.340  1.227  0.062 -0.084 -0.116 -0.096 -0.096
 0.342  1.232  0.066 -0.081 -0.113 -0.093 -0.093
 0.344  1.235  0.069 -0.078 -0.111 -0.092 -0.092
 0.346  1.239  0.073 -0.076 -0.109 -0.091 -0.091
 0.348  1.243  0.077 -0.073 -0.107 -0.088 -0.088
 0.350  1.246  0.080 -0.071 -0.105 -0.087 -0.087
 0.352  1.251  0.084 -0.068 -0.103 -0.085 -0.085
 0.354  1.255  0.089 -0.065 -0.101 -0.083 -0.083
 0.356  1.258  0.093 -0.062 -0.098 -0.082 -0.082
 0.358  1.262  0.096 -0.060 -0.096 -0.080 -0.080
 0.360  1.265  0.100 -0.057 -0.094 -0.079 -0.079
 0.362  1.269  0.104 -0.054 -0.092 -0.077 -0.077
 0.364  1.274  0.107 -0.052 -0.090 -0.075 -0.075
 0.366  1.277  0.111 -0.049 -0.087 -0.074 -0.074
 0.368  1.281  0.116 -0.046 -0.085 -0.071 -0.071
 0.370  1.284  0.120 -0.044 -0.083 -0.070 -0.070
 0.372  1.288  0.123 -0.041 -0.081 -0.068 -0.068
 0.374  1.291  0.127 -0.038 -0.079 -0.066 -0.066
 0.376  1.296  0.131 -0.035 -0.077 -0.065 -0.065
 0.378  1.298  0.134 -0.033 -0.075 -0.062 -0.062
 0.380  1.303  0.138 -0.030 -0.072 -0.061 -0.061
 0.382  1.306  0.143 -0.027 -0.071 -0.060 -0.060
 0.384  1.310  0.147 -0.024 -0.068 -0.057 -0.057
 0.386  1.313  0.150 -0.021 -0.067 -0.056 -0.056
 0.388  1.317  0.154 -0.018 -0.064 -0.054 -0.054
 0.390  1.320  0.158 -0.016 -0.062 -0.052 -0.052
 0.392  1.325  0.163 -0.013 -0.060 -0.050 -0.050
 0.394  1.328  0.165 -0.010 -0.058 -0.048 -0.048
 0.396  1.332  0.170 -0.008 -0.056 -0.046 -0.046
 0.398  1.335  0.174 -0.005 -0.054 -0.045 -0.045
 0.400  1.339  0.177 -0.002 -0.052 -0.043 -0.043
 0.402  1.342  0.181 -0.000 -0.050 -0.041 -0.041
 0.404  1.346  0.185  0.003 -0.048 -0.039 -0.039
 0.406  1.349  0.190  0.006 -0.046 -0.037 -0.037
 0.408  1.352  0.192  0.008 -0.044 -0.035 -0.035
 0.410  1.357  0.197  0.011 -0.042 -0.033 -0.033
 0.412  1.359  0.201  0.013 -0.041 -0.032 -0.032
 0.414  1.362  0.205  0.016 -0.038 -0.029 -0.029
 0.416  1.367  0.208  0.019 -0.036 -0.028 -0.028
 0.418  1.370  0.212  0.021 -0.035 -0.026 -0.026
 0.420  1.374  0.217  0.024 -0.032 -0.023 -0.023
 0.422  1.377  0.221  0.026 -0.030 -0.022 -0.022
 0.424  1.380  0.225  0.029 -0.029 -0.020 -0.020
 0.426  1.384  0.228  0.032 -0.027 -0.018 -0.018
 0.428  1.387  0.232  0.034 -0.025 -0.016 -0.016
 0.430  1.390  0.236  0.037 -0.023 -0.014 -0.014
 0.432  1.393  0.241  0.039 -0.021 -0.012 -0.012
 0.434  1.397  0.244  0.042 -0.020 -0.010 -0.010
 0.436  1.400  0.248  0.045 -0.018 -0.008 -0.008
 0.438  1.403  0.252  0.047 -0.015 -0.006 -0.006
 0.440  1.406  0.256  0.050 -0.014 -0.004 -0.004
 0.442  1.410  0.259  0.052 -0.012 -0.002 -0.002
 0.444  1.413  0.263  0.055 -0.010  0.000  0.000
 0.446  1.416  0.266  0.057 -0.008  0.002  0.002
 0.448  1.419  0.271  0.059 -0.006  0.004  0.004
 0.450  1.422  0.273  0.063 -0.004  0.005  0.005
 0.452  1.425  0.278  0.065 -0.003  0.008  0.008
 0.454  1.428  0.281  0.067 -0.001  0.009  0.009
 0.456  1.431  0.283  0.070  0.001  0.011  0.011
 0.458  1.433  0.288  0.072  0.003  0.013  0.013
 0.460  1.436  0.290  0.074  0.005  0.015  0.015
 0.462  1.439  0.293  0.076  0.006  0.016  0.016
 0.464  1.442  0.296  0.079  0.009  0.018  0.018
 0.466  1.445  0.299  0.081  0.011  0.020  0.020
 0.468  1.448  0.302  0.083  0.012  0.022  0.022
 0.470  1.451  0.305  0.085  0.014  0.023  0.023
 0.472  1.454  0.308  0.087  0.016  0.025  0.025
 0.474  1.457  0.310  0.089  0.018  0.027  0.027
 0.476  1.460  0.313  0.091  0.020  0.028  0.028
 0.478  1.461  0.316  0.093  0.022  0.030  0.030
 0.480  1.464  0.317  0.095  0.023  0.032  0.032
 0.482  1.467  0.320  0.097  0.025  0.033  0.033
 0.484  1.470  0.323  0.098  0.027  0.035  0.035
 0.486  1.471  0.325  0.100  0.029  0.036  0.036
 0.488  1.474  0.327  0.102  0.031  0.038  0.038
 0.490  1.477  0.329  0.104  0.032  0.039  0.039
 0.492  1.478  0.332  0.106  0.035  0.041  0.041
 0.494  1.481  0.333  0.107  0.037  0.042  0.042
 0.496  1.484  0.335  0.109  0.038  0.044  0.044
 0.498  1.486  0.337  0.111  0.040  0.045  0.045
 0.500  1.489  0.339  0.112  0.042  0.047  0.047
 0.502  1.490  0.340  0.114  0.044  0.048  0.048
 0.504  1.493  0.342  0.115  0.046  0.050  0.050
 0.506  1.494  0.343  0.117  0.048  0.051  0.051
 0.508  1.497  0.344  0.118  0.049  0.052  0.052
 0.510  1.499  0.346  0.120  0.051  0.053  0.053
 0.512  1.502  0.347  0.121  0.053  0.055  0.055
 0.514  1.503  0.349  0.122  0.054  0.056  0.056
 0.516  1.505  0.350  0.124  0.056  0.058  0.058
 0.518  1.506  0.352  0.125  0.058  0.059  0.059
 0.520  1.509  0.353  0.126  0.059  0.060  0.060
 0.522  1.510  0.354  0.127  0.061  0.061  0.061
 0.524  1.512  0.356  0.129  0.062  0.063  0.063
 0.526  1.513  0.357  0.130  0.063  0.064  0.064
 0.528  1.515  0.359  0.131  0.065  0.065  0.065
 0.530  1.516  0.359  0.132  0.066  0.066  0.066
 0.532  1.518  0.360  0.133  0.068  0.067  0.067
 0.534  1.519  0.362  0.134  0.069  0.069  0.069
 0.536  1.521  0.363  0.135  0.070  0.069  0.069
 0.538  1.522  0.363  0.136  0.071  0.071  0.071
 0.540  1.523  0.364  0.137  0.073  0.072  0.072
 0.542  1.525  0.366  0.138  0.074  0.073  0.073
 0.544  1.526  0.366  0.139  0.074  0.074  0.074
 0.546  1.528  0.367  0.139  0.076  0.075  0.075
 0.548  1.529  0.367  0.140  0.077  0.076  0.076
 0.550  1.529  0.369  0.141  0.078  0.077  0.077
 0.552  1.531  0.369  0.141  0.079  0.078  0.078
 0.554  1.532  0.370  0.142  0.079  0.079  0.079
 0.556  1.532  0.370  0.143  0.080  0.080  0.080
 0.558  1.534  0.371  0.143  0.081  0.080  0.080
 0.560  1.534  0.371  0.144  0.082  0.082  0.082
 0.562  1.535  0.371  0.144  0.083  0.083  0.083
 0.564  1.535  0.373  0.145  0.084  0.083  0.083
 0.566  1.536  0.373  0.145  0.084  0.084  0.084
 0.568  1.536  0.373  0.146  0.085  0.085  0.085
 0.570  1.538  0.374  0.146  0.085  0.086  0.086
 0.572  1.538  0.374  0.146  0.086  0.087  0.087
 0.574  1.538  0.374  0.147  0.087  0.088  0.088
 0.576  1.539  0.374  0.147  0.087  0.089  0.089
 0.578  1.539  0.374  0.147  0.088  0.089  0.089
 0.580  1.539  0.376  0.147  0.089  0.090  0.090
 0.582  1.539  0.376  0.147  0.089  0.091  0.091
 0.584  1.541  0.376  0.148  0.089  0.092  0.092
 0.586  1.541  0.376  0.148  0.089  0.092  0.092
 0.588  1.541  0.376  0.148  0.090  0.093  0.093
 0.590  1.541  0.376  0.148  0.090  0.094  0.094
 0.592  1.541  0.376  0.148  0.091  0.094  0.094
 0.594  1.542  0.376  0.148  0.091  0.095  0.095
 0.596  1.542  0.376  0.149  0.092  0.095  0.095
 0.598  1.542  0.376  0.149  0.092  0.096  0.096
 0.600  1.542  0.376  0.149  0.093  0.097  0.097
 0.602  1.542  0.376  0.149  0.093  0.097  0.097
 0.604  1.542  0.376  0.149  0.094  0.098  0.098
 0.606  1.542  0.376  0.151  0.094  0.099  0.099
 0.608  1.542  0.376  0.151  0.095  0.099  0.099
 0.610  1.542  0.376  0.151  0.095  0.100  0.100
 0.612  1.542  0.376  0.151  0.095  0.100  0.100
 0.614  1.542  0.376  0.152  0.095  0.101  0.101
 0.616  1.542  0.376  0.152  0.095  0.101  0.101
 0.618  1.542  0.376  0.152  0.095  0.102  0.102
 0.620  1.542  0.376  0.152  0.096  0.103  0.103
 0.622  1.542  0.376  0.153  0.096  0.103  0.103
 0.624  1.542  0.376  0.153  0.096  0.103  0.103
 0.626  1.541  0.376  0.153  0.097  0.104  0.104
 0.628  1.541  0.376  0.154  0.097  0.104  0.104
 0.630  1.541  0.376  0.154  0.097  0.105  0.105
 0.632  1.541  0.376  0.154  0.097  0.106  0.106
 0.634  1.541  0.374  0.155  0.098  0.106  0.106
 0.636  1.539  0.374  0.155  0.098  0.106  0.106
 0.638  1.539  0.374  0.155  0.098  0.106  0.106
 0.640  1.539  0.374  0.156  0.098  0.107  0.107
 0.642  1.539  0.374  0.156  0.098  0.107  0.107
 0.644  1.538  0.374  0.156  0.099  0.108  0.108
 0.646  1.538  0.373  0.157  0.099  0.108  0.108
 0.648  1.538  0.373  0.157  0.099  0.108  0.108
 0.650  1.536  0.373  0.157  0.099  0.108  0.108
 0.652  1.536  0.373  0.158  0.099  0.109  0.109
 0.654  1.536  0.371  0.158  0.099  0.109  0.109
 0.656  1.536  0.371  0.158  0.100  0.109  0.109
 0.658  1.535  0.371  0.159  0.100  0.110  0.110
 0.660  1.535  0.371  0.159  0.100  0.110  0.110
 0.662  1.535  0.370  0.159  0.100  0.111  0.111
 0.664  1.534  0.370  0.160  0.100  0.111  0.111
 0.666  1.534  0.370  0.160  0.100  0.111  0.111
 0.668  1.534  0.369  0.160  0.100  0.111  0.111
 0.670  1.532  0.369  0.161  0.100  0.111  0.111
 0.672  1.532  0.369  0.161  0.100  0.112  0.112
 0.674  1.532  0.367  0.161  0.100  0.112  0.112
 0.676  1.531  0.367  0.161  0.101  0.113  0.113
 0.678  1.531  0.367  0.161  0.101  0.113  0.113
 0.680  1.531  0.366  0.161  0.101  0.114  0.114
 0.682  1.531  0.366  0.161  0.101  0.114  0.114
 0.684  1.529  0.364  0.162  0.102  0.114  0.114
 0.686  1.529  0.364  0.162  0.102  0.114  0.114
 0.688  1.529  0.364  0.162  0.102  0.114  0.114
 0.690  1.528  0.363  0.162  0.102  0.115  0.115
 0.692  1.528  0.363  0.162  0.103  0.115  0.115
 0.694  1.528  0.362  0.162  0.103  0.116  0.116
 0.696  1.526  0.362  0.162  0.103  0.116  0.116
 0.698  1.526  0.360  0.162  0.104  0.117  0.117
 0.700  1.526  0.360  0.162  0.104  0.117  0.117
 0.702  1.525  0.359  0.162  0.104  0.117  0.117
 0.704  1.525  0.359  0.162  0.104  0.117  0.117
 0.706  1.525  0.357  0.162  0.105  0.117  0.117
 0.708  1.525  0.357  0.161  0.105  0.118  0.118
 0.710  1.523  0.356  0.161  0.105  0.118  0.118
 0.712  1.523  0.356  0.161  0.105  0.119  0.119
 0.714  1.523  0.354  0.161  0.105  0.119  0.119
 0.716  1.522  0.354  0.161  0.105  0.119  0.119
 0.718  1.522  0.353  0.160  0.106  0.120  0.120
 0.720  1.522  0.352  0.160  0.106  0.120  0.120
 0.722  1.522  0.352  0.160  0.106  0.120  0.120
 0.724  1.521  0.350  0.160  0.107  0.120  0.120
 0.726  1.521  0.350  0.159  0.107  0.121  0.121
 0.728  1.521  0.349  0.159  0.107  0.122  0.122
 0.730  1.521  0.349  0.159  0.108  0.122  0.122
 0.732  1.519  0.349  0.159  0.108  0.122  0.122
 0.734  1.519  0.349  0.160  0.108  0.123  0.123
 0.736  1.519  0.347  0.160  0.109  0.124  0.124
 0.738  1.519  0.347  0.160  0.109  0.125  0.125
 0.740  1.518  0.347  0.161  0.109  0.125  0.125
 0.742  1.518  0.347  0.162  0.109  0.126  0.126
 0.744  1.518  0.347  0.162  0.110  0.128  0.128
 0.746  1.518  0.347  0.163  0.110  0.128  0.128
 0.748  1.518  0.347  0.164  0.110  0.129  0.129
 0.750  1.518  0.349  0.165  0.110  0.131  0.131
 0.752  1.516  0.349  0.166  0.110  0.131  0.131
 0.754  1.516  0.349  0.168  0.110  0.133  0.133
 0.756  1.516  0.349  0.169  0.111  0.134  0.134
 0.758  1.516  0.350  0.170  0.111  0.135  0.135
 0.760  1.516  0.350  0.172  0.111  0.136  0.136
 0.762  1.516  0.352  0.174  0.112  0.137  0.137
 0.764  1.516  0.352  0.176  0.112  0.139  0.139
 0.766  1.516  0.353  0.177  0.112  0.140  0.140
 0.768  1.516  0.354  0.179  0.113  0.142  0.142
 0.770  1.516  0.354  0.182  0.113  0.143  0.143
 0.772  1.516  0.356  0.184  0.113  0.145  0.145
 0.774  1.516  0.357  0.186  0.113  0.146  0.146
 0.776  1.515  0.359  0.189  0.114  0.148  0.148
 0.778  1.515  0.360  0.192  0.114  0.150  0.150
 0.780  1.515  0.362  0.194  0.114  0.151  0.151
 0.782  1.515  0.363  0.197  0.114  0.153  0.153
 0.784  1.515  0.364  0.200  0.114  0.155  0.155
 0.786  1.515  0.367  0.203  0.115  0.157  0.157
 0.788  1.515  0.369  0.206  0.115  0.159  0.159
 0.790  1.516  0.370  0.210  0.115  0.161  0.161
 0.792  1.516  0.371  0.213  0.116  0.162  0.162
 0.794  1.518  0.374  0.216  0.117  0.164  0.164
 0.796  1.518  0.376  0.219  0.118  0.167  0.167
 0.798  1.519  0.377  0.222  0.119  0.168  0.168
 0.800  1.521  0.380  0.226  0.120  0.170  0.170
 0.802  1.522  0.381  0.229  0.121  0.173  0.173
 0.804  1.523  0.383  0.232  0.123  0.175  0.175
 0.806  1.525  0.386  0.235  0.124  0.176  0.176
 0.808  1.528  0.387  0.239  0.126  0.178  0.178
