# IsPeriodic    : True
# Period        : 0.536932 days
# Normalization : <g_mag>=0
# 
# Phase u_mag  g_mag  r_mag  i_mag  z_mag  y_mag
 0.000  0.456 -0.849 -0.729 -0.629 -0.534 -0.534
 0.002  0.457 -0.848 -0.729 -0.629 -0.534 -0.534
 0.004  0.457 -0.846 -0.728 -0.629 -0.533 -0.533
 0.006  0.458 -0.844 -0.728 -0.628 -0.532 -0.532
 0.008  0.459 -0.841 -0.725 -0.627 -0.532 -0.532
 0.010  0.460 -0.838 -0.722 -0.626 -0.531 -0.531
 0.012  0.463 -0.833 -0.719 -0.626 -0.529 -0.529
 0.014  0.464 -0.826 -0.716 -0.624 -0.528 -0.528
 0.016  0.466 -0.820 -0.712 -0.623 -0.526 -0.526
 0.018  0.468 -0.814 -0.709 -0.621 -0.525 -0.525
 0.020  0.471 -0.808 -0.705 -0.620 -0.523 -0.523
 0.022  0.474 -0.801 -0.701 -0.618 -0.521 -0.521
 0.024  0.476 -0.794 -0.696 -0.616 -0.520 -0.520
 0.026  0.479 -0.788 -0.692 -0.615 -0.518 -0.518
 0.028  0.482 -0.780 -0.688 -0.613 -0.515 -0.515
 0.030  0.484 -0.774 -0.684 -0.610 -0.514 -0.514
 0.032  0.488 -0.768 -0.680 -0.608 -0.512 -0.512
 0.034  0.491 -0.761 -0.676 -0.606 -0.510 -0.510
 0.036  0.494 -0.755 -0.672 -0.604 -0.508 -0.508
 0.038  0.497 -0.749 -0.668 -0.601 -0.506 -0.506
 0.040  0.500 -0.743 -0.665 -0.599 -0.504 -0.504
 0.042  0.504 -0.736 -0.660 -0.596 -0.501 -0.501
 0.044  0.507 -0.730 -0.656 -0.593 -0.499 -0.499
 0.046  0.512 -0.724 -0.652 -0.590 -0.497 -0.497
 0.048  0.515 -0.718 -0.647 -0.587 -0.495 -0.495
 0.050  0.519 -0.710 -0.643 -0.584 -0.492 -0.492
 0.052  0.523 -0.704 -0.638 -0.581 -0.489 -0.489
 0.054  0.528 -0.696 -0.634 -0.577 -0.487 -0.487
 0.056  0.532 -0.689 -0.629 -0.573 -0.484 -0.484
 0.058  0.537 -0.683 -0.624 -0.570 -0.481 -0.481
 0.060  0.542 -0.675 -0.620 -0.566 -0.478 -0.478
 0.062  0.546 -0.668 -0.614 -0.562 -0.475 -0.475
 0.064  0.551 -0.660 -0.610 -0.558 -0.472 -0.472
 0.066  0.556 -0.653 -0.604 -0.554 -0.469 -0.469
 0.068  0.561 -0.645 -0.599 -0.549 -0.466 -0.466
 0.070  0.567 -0.638 -0.593 -0.545 -0.463 -0.463
 0.072  0.572 -0.630 -0.589 -0.541 -0.460 -0.460
 0.074  0.577 -0.623 -0.584 -0.536 -0.457 -0.457
 0.076  0.583 -0.615 -0.578 -0.532 -0.454 -0.454
 0.078  0.589 -0.608 -0.573 -0.528 -0.450 -0.450
 0.080  0.594 -0.600 -0.568 -0.523 -0.447 -0.447
 0.082  0.600 -0.593 -0.563 -0.519 -0.444 -0.444
 0.084  0.606 -0.585 -0.557 -0.514 -0.440 -0.440
 0.086  0.610 -0.578 -0.552 -0.510 -0.437 -0.437
 0.088  0.616 -0.570 -0.548 -0.506 -0.434 -0.434
 0.090  0.622 -0.563 -0.542 -0.501 -0.431 -0.431
 0.092  0.627 -0.555 -0.537 -0.498 -0.428 -0.428
 0.094  0.633 -0.549 -0.532 -0.493 -0.425 -0.425
 0.096  0.639 -0.541 -0.527 -0.490 -0.422 -0.422
 0.098  0.645 -0.534 -0.522 -0.486 -0.419 -0.419
 0.100  0.650 -0.526 -0.517 -0.482 -0.417 -0.417
 0.102  0.655 -0.520 -0.512 -0.478 -0.414 -0.414
 0.104  0.661 -0.513 -0.507 -0.474 -0.411 -0.411
 0.106  0.666 -0.505 -0.503 -0.472 -0.408 -0.408
 0.108  0.672 -0.499 -0.498 -0.468 -0.406 -0.406
 0.110  0.678 -0.492 -0.494 -0.464 -0.403 -0.403
 0.112  0.682 -0.485 -0.489 -0.461 -0.400 -0.400
 0.114  0.688 -0.479 -0.485 -0.458 -0.398 -0.398
 0.116  0.694 -0.472 -0.480 -0.454 -0.395 -0.395
 0.118  0.699 -0.466 -0.476 -0.451 -0.393 -0.393
 0.120  0.704 -0.460 -0.471 -0.448 -0.391 -0.391
 0.122  0.710 -0.454 -0.467 -0.445 -0.388 -0.388
 0.124  0.715 -0.447 -0.463 -0.442 -0.386 -0.386
 0.126  0.721 -0.441 -0.458 -0.439 -0.383 -0.383
 0.128  0.726 -0.435 -0.455 -0.436 -0.382 -0.382
 0.130  0.731 -0.429 -0.450 -0.433 -0.379 -0.379
 0.132  0.737 -0.422 -0.447 -0.431 -0.377 -0.377
 0.134  0.742 -0.417 -0.443 -0.428 -0.375 -0.375
 0.136  0.747 -0.411 -0.439 -0.425 -0.373 -0.373
 0.138  0.753 -0.405 -0.435 -0.423 -0.371 -0.371
 0.140  0.759 -0.400 -0.431 -0.421 -0.369 -0.369
 0.142  0.763 -0.394 -0.428 -0.418 -0.367 -0.367
 0.144  0.769 -0.389 -0.424 -0.416 -0.365 -0.365
 0.146  0.775 -0.382 -0.421 -0.413 -0.363 -0.363
 0.148  0.780 -0.377 -0.417 -0.411 -0.362 -0.362
 0.150  0.785 -0.372 -0.413 -0.408 -0.360 -0.360
 0.152  0.790 -0.367 -0.410 -0.406 -0.358 -0.358
 0.154  0.796 -0.361 -0.406 -0.404 -0.356 -0.356
 0.156  0.801 -0.356 -0.403 -0.402 -0.354 -0.354
 0.158  0.806 -0.351 -0.399 -0.400 -0.352 -0.352
 0.160  0.812 -0.346 -0.396 -0.397 -0.351 -0.351
 0.162  0.816 -0.341 -0.393 -0.395 -0.349 -0.349
 0.164  0.822 -0.336 -0.389 -0.393 -0.347 -0.347
 0.166  0.826 -0.331 -0.386 -0.391 -0.345 -0.345
 0.168  0.832 -0.326 -0.383 -0.389 -0.343 -0.343
 0.170  0.837 -0.321 -0.379 -0.386 -0.342 -0.342
 0.172  0.842 -0.316 -0.376 -0.384 -0.340 -0.340
 0.174  0.847 -0.310 -0.373 -0.382 -0.338 -0.338
 0.176  0.853 -0.305 -0.369 -0.380 -0.336 -0.336
 0.178  0.857 -0.300 -0.367 -0.378 -0.334 -0.334
 0.180  0.862 -0.295 -0.363 -0.376 -0.332 -0.332
 0.182  0.868 -0.290 -0.359 -0.373 -0.331 -0.331
 0.184  0.872 -0.285 -0.357 -0.371 -0.329 -0.329
 0.186  0.878 -0.280 -0.353 -0.369 -0.327 -0.327
 0.188  0.882 -0.275 -0.350 -0.368 -0.325 -0.325
 0.190  0.887 -0.270 -0.347 -0.365 -0.323 -0.323
 0.192  0.892 -0.265 -0.344 -0.363 -0.322 -0.322
 0.194  0.897 -0.260 -0.341 -0.361 -0.320 -0.320
 0.196  0.902 -0.255 -0.338 -0.359 -0.319 -0.319
 0.198  0.906 -0.250 -0.334 -0.357 -0.317 -0.317
 0.200  0.911 -0.245 -0.332 -0.354 -0.315 -0.315
 0.202  0.917 -0.240 -0.328 -0.353 -0.313 -0.313
 0.204  0.921 -0.235 -0.325 -0.351 -0.311 -0.311
 0.206  0.926 -0.230 -0.323 -0.349 -0.309 -0.309
 0.208  0.930 -0.225 -0.319 -0.346 -0.308 -0.308
 0.210  0.935 -0.220 -0.316 -0.344 -0.306 -0.306
 0.212  0.941 -0.215 -0.314 -0.343 -0.304 -0.304
 0.214  0.945 -0.211 -0.310 -0.341 -0.302 -0.302
 0.216  0.950 -0.206 -0.307 -0.338 -0.300 -0.300
 0.218  0.955 -0.201 -0.305 -0.336 -0.299 -0.299
 0.220  0.959 -0.196 -0.301 -0.334 -0.297 -0.297
 0.222  0.964 -0.191 -0.298 -0.333 -0.295 -0.295
 0.224  0.968 -0.186 -0.296 -0.330 -0.293 -0.293
 0.226  0.973 -0.181 -0.293 -0.328 -0.291 -0.291
 0.228  0.977 -0.176 -0.289 -0.327 -0.290 -0.290
 0.230  0.982 -0.172 -0.287 -0.325 -0.288 -0.288
 0.232  0.987 -0.167 -0.284 -0.322 -0.286 -0.286
 0.234  0.991 -0.162 -0.281 -0.321 -0.285 -0.285
 0.236  0.996 -0.157 -0.278 -0.319 -0.283 -0.283
 0.238  0.999 -0.154 -0.276 -0.317 -0.281 -0.281
 0.240  1.004 -0.149 -0.273 -0.315 -0.280 -0.280
 0.242  1.008 -0.144 -0.270 -0.313 -0.278 -0.278
 0.244  1.013 -0.140 -0.268 -0.311 -0.276 -0.276
 0.246  1.017 -0.135 -0.265 -0.309 -0.274 -0.274
 0.248  1.021 -0.131 -0.262 -0.307 -0.273 -0.273
 0.250  1.025 -0.126 -0.260 -0.306 -0.271 -0.271
 0.252  1.030 -0.121 -0.257 -0.304 -0.269 -0.269
 0.254  1.033 -0.117 -0.254 -0.302 -0.268 -0.268
 0.256  1.038 -0.114 -0.251 -0.300 -0.266 -0.266
 0.258  1.043 -0.109 -0.249 -0.298 -0.265 -0.265
 0.260  1.046 -0.105 -0.246 -0.296 -0.263 -0.263
 0.262  1.051 -0.100 -0.244 -0.294 -0.262 -0.262
 0.264  1.054 -0.096 -0.242 -0.293 -0.260 -0.260
 0.266  1.059 -0.092 -0.239 -0.290 -0.259 -0.259
 0.268  1.063 -0.089 -0.236 -0.289 -0.257 -0.257
 0.270  1.067 -0.084 -0.234 -0.287 -0.256 -0.256
 0.272  1.070 -0.080 -0.232 -0.285 -0.254 -0.254
 0.274  1.075 -0.076 -0.229 -0.284 -0.253 -0.253
 0.276  1.078 -0.072 -0.227 -0.282 -0.251 -0.251
 0.278  1.083 -0.069 -0.224 -0.280 -0.249 -0.249
 0.280  1.086 -0.065 -0.222 -0.278 -0.248 -0.248
 0.282  1.089 -0.060 -0.220 -0.277 -0.246 -0.246
 0.284  1.094 -0.056 -0.217 -0.274 -0.245 -0.245
 0.286  1.097 -0.052 -0.215 -0.273 -0.244 -0.244
 0.288  1.101 -0.049 -0.213 -0.272 -0.242 -0.242
 0.290  1.105 -0.045 -0.211 -0.269 -0.241 -0.241
 0.292  1.109 -0.042 -0.208 -0.268 -0.239 -0.239
 0.294  1.112 -0.039 -0.206 -0.266 -0.238 -0.238
 0.296  1.116 -0.035 -0.204 -0.264 -0.237 -0.237
 0.298  1.120 -0.031 -0.202 -0.263 -0.235 -0.235
 0.300  1.124 -0.027 -0.199 -0.261 -0.234 -0.234
 0.302  1.127 -0.024 -0.197 -0.259 -0.233 -0.233
 0.304  1.131 -0.020 -0.195 -0.257 -0.231 -0.231
 0.306  1.134 -0.016 -0.193 -0.256 -0.229 -0.229
 0.308  1.139 -0.014 -0.190 -0.254 -0.228 -0.228
 0.310  1.142 -0.010 -0.188 -0.252 -0.226 -0.226
 0.312  1.146 -0.006 -0.186 -0.250 -0.225 -0.225
 0.314  1.149 -0.002 -0.183 -0.248 -0.224 -0.224
 0.316  1.154  0.001 -0.181 -0.247 -0.222 -0.222
 0.318  1.157  0.005 -0.179 -0.245 -0.221 -0.221
 0.320  1.160  0.008 -0.177 -0.243 -0.220 -0.220
 0.322  1.164  0.011 -0.174 -0.241 -0.218 -0.218
 0.324  1.167  0.015 -0.171 -0.240 -0.217 -0.217
 0.326  1.172  0.019 -0.170 -0.237 -0.216 -0.216
 0.328  1.175  0.023 -0.167 -0.236 -0.214 -0.214
 0.330  1.179  0.025 -0.164 -0.234 -0.213 -0.213
 0.332  1.182  0.029 -0.162 -0.232 -0.211 -0.211
 0.334  1.186  0.033 -0.160 -0.230 -0.210 -0.210
 0.336  1.189  0.036 -0.157 -0.229 -0.208 -0.208
 0.338  1.194  0.040 -0.154 -0.226 -0.207 -0.207
 0.340  1.197  0.043 -0.152 -0.225 -0.206 -0.206
 0.342  1.200  0.046 -0.150 -0.223 -0.204 -0.204
 0.344  1.204  0.050 -0.147 -0.221 -0.203 -0.203
 0.346  1.207  0.054 -0.144 -0.219 -0.202 -0.202
 0.348  1.211  0.056 -0.142 -0.217 -0.200 -0.200
 0.350  1.215  0.060 -0.140 -0.216 -0.199 -0.199
 0.352  1.219  0.064 -0.137 -0.213 -0.197 -0.197
 0.354  1.222  0.068 -0.134 -0.212 -0.196 -0.196
 0.356  1.226  0.070 -0.132 -0.210 -0.194 -0.194
 0.358  1.229  0.074 -0.129 -0.208 -0.193 -0.193
 0.360  1.232  0.078 -0.126 -0.206 -0.192 -0.192
 0.362  1.236  0.080 -0.124 -0.204 -0.190 -0.190
 0.364  1.240  0.084 -0.121 -0.202 -0.189 -0.189
 0.366  1.244  0.088 -0.119 -0.200 -0.188 -0.188
 0.368  1.247  0.091 -0.116 -0.198 -0.186 -0.186
 0.370  1.251  0.094 -0.114 -0.197 -0.185 -0.185
 0.372  1.254  0.098 -0.111 -0.194 -0.183 -0.183
 0.374  1.258  0.101 -0.108 -0.193 -0.182 -0.182
 0.376  1.260  0.104 -0.106 -0.191 -0.180 -0.180
 0.378  1.263  0.108 -0.103 -0.189 -0.179 -0.179
 0.380  1.267  0.111 -0.101 -0.187 -0.177 -0.177
 0.382  1.270  0.115 -0.098 -0.186 -0.176 -0.176
 0.384  1.274  0.118 -0.096 -0.184 -0.174 -0.174
 0.386  1.276  0.121 -0.093 -0.182 -0.173 -0.173
 0.388  1.279  0.125 -0.091 -0.180 -0.171 -0.171
 0.390  1.283  0.129 -0.089 -0.179 -0.170 -0.170
 0.392  1.285  0.131 -0.086 -0.176 -0.168 -0.168
 0.394  1.288  0.135 -0.083 -0.175 -0.167 -0.167
 0.396  1.291  0.139 -0.081 -0.173 -0.165 -0.165
 0.398  1.294  0.143 -0.079 -0.171 -0.164 -0.164
 0.400  1.296  0.145 -0.077 -0.170 -0.162 -0.162
 0.402  1.300  0.149 -0.074 -0.168 -0.161 -0.161
 0.404  1.302  0.153 -0.071 -0.166 -0.159 -0.159
 0.406  1.306  0.156 -0.070 -0.165 -0.158 -0.158
 0.408  1.308  0.160 -0.067 -0.163 -0.156 -0.156
 0.410  1.310  0.163 -0.065 -0.161 -0.154 -0.154
 0.412  1.313  0.166 -0.062 -0.160 -0.153 -0.153
 0.414  1.316  0.170 -0.061 -0.157 -0.151 -0.151
 0.416  1.318  0.174 -0.058 -0.156 -0.150 -0.150
 0.418  1.321  0.178 -0.056 -0.155 -0.148 -0.148
 0.420  1.323  0.180 -0.054 -0.152 -0.147 -0.147
 0.422  1.325  0.184 -0.052 -0.151 -0.145 -0.145
 0.424  1.327  0.188 -0.050 -0.149 -0.143 -0.143
 0.426  1.330  0.191 -0.047 -0.148 -0.142 -0.142
 0.428  1.332  0.195 -0.045 -0.146 -0.140 -0.140
 0.430  1.334  0.199 -0.044 -0.144 -0.139 -0.139
 0.432  1.337  0.201 -0.041 -0.143 -0.137 -0.137
 0.434  1.339  0.205 -0.039 -0.141 -0.136 -0.136
 0.436  1.341  0.209 -0.037 -0.140 -0.134 -0.134
 0.438  1.343  0.213 -0.035 -0.138 -0.132 -0.132
 0.440  1.346  0.216 -0.033 -0.136 -0.131 -0.131
 0.442  1.348  0.220 -0.031 -0.135 -0.129 -0.129
 0.444  1.350  0.223 -0.029 -0.133 -0.127 -0.127
 0.446  1.353  0.226 -0.027 -0.131 -0.126 -0.126
 0.448  1.355  0.230 -0.026 -0.130 -0.124 -0.124
 0.450  1.357  0.233 -0.023 -0.128 -0.123 -0.123
 0.452  1.359  0.236 -0.021 -0.127 -0.121 -0.121
 0.454  1.362  0.239 -0.019 -0.125 -0.120 -0.120
 0.456  1.364  0.241 -0.017 -0.123 -0.118 -0.118
 0.458  1.366  0.245 -0.016 -0.122 -0.117 -0.117
 0.460  1.369  0.248 -0.014 -0.120 -0.115 -0.115
 0.462  1.371  0.250 -0.012 -0.119 -0.114 -0.114
 0.464  1.373  0.253 -0.010 -0.117 -0.113 -0.113
 0.466  1.375  0.255 -0.008 -0.115 -0.111 -0.111
 0.468  1.379  0.258 -0.007 -0.114 -0.110 -0.110
 0.470  1.381  0.260 -0.005 -0.112 -0.108 -0.108
 0.472  1.383  0.263 -0.003 -0.111 -0.107 -0.107
 0.474  1.386  0.265 -0.001 -0.109 -0.105 -0.105
 0.476  1.388  0.268  0.001 -0.107 -0.104 -0.104
 0.478  1.390  0.270  0.002 -0.106 -0.103 -0.103
 0.480  1.394  0.271  0.004 -0.104 -0.101 -0.101
 0.482  1.396  0.274  0.005 -0.103 -0.100 -0.100
 0.484  1.398  0.276  0.007 -0.101 -0.099 -0.099
 0.486  1.401  0.278  0.009 -0.099 -0.097 -0.097
 0.488  1.404  0.280  0.010 -0.098 -0.096 -0.096
 0.490  1.406  0.281  0.012 -0.096 -0.095 -0.095
 0.492  1.409  0.283  0.013 -0.094 -0.094 -0.094
 0.494  1.412  0.285  0.015 -0.093 -0.093 -0.093
 0.496  1.414  0.286  0.017 -0.091 -0.091 -0.091
 0.498  1.418  0.288  0.019 -0.090 -0.090 -0.090
 0.500  1.420  0.289  0.019 -0.088 -0.089 -0.089
 0.502  1.423  0.290  0.021 -0.086 -0.088 -0.088
 0.504  1.426  0.291  0.023 -0.085 -0.087 -0.087
 0.506  1.428  0.293  0.024 -0.083 -0.085 -0.085
 0.508  1.431  0.294  0.026 -0.082 -0.084 -0.084
 0.510  1.434  0.295  0.028 -0.080 -0.084 -0.084
 0.512  1.436  0.296  0.028 -0.079 -0.082 -0.082
 0.514  1.438  0.298  0.030 -0.077 -0.081 -0.081
 0.516  1.441  0.298  0.031 -0.076 -0.080 -0.080
 0.518  1.443  0.299  0.033 -0.075 -0.079 -0.079
 0.520  1.445  0.300  0.034 -0.073 -0.078 -0.078
 0.522  1.447  0.300  0.036 -0.072 -0.077 -0.077
 0.524  1.449  0.301  0.037 -0.071 -0.076 -0.076
 0.526  1.451  0.303  0.037 -0.069 -0.075 -0.075
 0.528  1.452  0.304  0.039 -0.068 -0.074 -0.074
 0.530  1.454  0.304  0.040 -0.067 -0.073 -0.073
 0.532  1.455  0.305  0.041 -0.066 -0.072 -0.072
 0.534  1.458  0.305  0.043 -0.065 -0.071 -0.071
 0.536  1.459  0.306  0.044 -0.064 -0.070 -0.070
 0.538  1.460  0.308  0.045 -0.063 -0.069 -0.069
 0.540  1.461  0.308  0.046 -0.061 -0.068 -0.068
 0.542  1.462  0.309  0.047 -0.061 -0.067 -0.067
 0.544  1.463  0.310  0.048 -0.060 -0.067 -0.067
 0.546  1.465  0.310  0.049 -0.059 -0.066 -0.066
 0.548  1.465  0.311  0.050 -0.058 -0.065 -0.065
 0.550  1.466  0.311  0.051 -0.057 -0.064 -0.064
 0.552  1.466  0.313  0.052 -0.056 -0.063 -0.063
 0.554  1.467  0.313  0.053 -0.056 -0.062 -0.062
 0.556  1.467  0.314  0.054 -0.055 -0.062 -0.062
 0.558  1.468  0.314  0.055 -0.054 -0.061 -0.061
 0.560  1.468  0.315  0.055 -0.053 -0.060 -0.060
 0.562  1.468  0.315  0.056 -0.053 -0.059 -0.059
 0.564  1.468  0.316  0.057 -0.052 -0.059 -0.059
 0.566  1.468  0.316  0.057 -0.051 -0.058 -0.058
 0.568  1.468  0.316  0.058 -0.051 -0.057 -0.057
 0.570  1.468  0.318  0.059 -0.051 -0.056 -0.056
 0.572  1.467  0.318  0.060 -0.050 -0.056 -0.056
 0.574  1.467  0.319  0.060 -0.049 -0.055 -0.055
 0.576  1.467  0.319  0.061 -0.049 -0.054 -0.054
 0.578  1.466  0.319  0.062 -0.048 -0.054 -0.054
 0.580  1.466  0.320  0.062 -0.048 -0.053 -0.053
 0.582  1.466  0.320  0.063 -0.048 -0.053 -0.053
 0.584  1.465  0.320  0.064 -0.047 -0.052 -0.052
 0.586  1.465  0.321  0.064 -0.047 -0.051 -0.051
 0.588  1.465  0.321  0.064 -0.046 -0.051 -0.051
 0.590  1.463  0.321  0.064 -0.046 -0.050 -0.050
 0.592  1.463  0.321  0.065 -0.045 -0.050 -0.050
 0.594  1.463  0.323  0.065 -0.045 -0.049 -0.049
 0.596  1.462  0.323  0.066 -0.045 -0.049 -0.049
 0.598  1.462  0.323  0.066 -0.045 -0.048 -0.048
 0.600  1.462  0.323  0.067 -0.044 -0.048 -0.048
 0.602  1.462  0.324  0.067 -0.044 -0.047 -0.047
 0.604  1.462  0.324  0.068 -0.043 -0.047 -0.047
 0.606  1.462  0.324  0.068 -0.043 -0.046 -0.046
 0.608  1.461  0.324  0.069 -0.043 -0.046 -0.046
 0.610  1.461  0.324  0.069 -0.043 -0.045 -0.045
 0.612  1.461  0.325  0.069 -0.043 -0.045 -0.045
 0.614  1.461  0.325  0.070 -0.042 -0.044 -0.044
 0.616  1.461  0.325  0.070 -0.042 -0.044 -0.044
 0.618  1.461  0.325  0.070 -0.042 -0.044 -0.044
 0.620  1.461  0.325  0.071 -0.041 -0.043 -0.043
 0.622  1.461  0.325  0.071 -0.041 -0.042 -0.042
 0.624  1.461  0.325  0.071 -0.041 -0.042 -0.042
 0.626  1.461  0.326  0.072 -0.040 -0.042 -0.042
 0.628  1.461  0.326  0.072 -0.040 -0.042 -0.042
 0.630  1.461  0.326  0.072 -0.040 -0.041 -0.041
 0.632  1.461  0.326  0.072 -0.040 -0.041 -0.041
 0.634  1.461  0.326  0.072 -0.040 -0.041 -0.041
 0.636  1.462  0.326  0.073 -0.040 -0.040 -0.040
 0.638  1.462  0.326  0.073 -0.040 -0.040 -0.040
 0.640  1.462  0.326  0.073 -0.040 -0.039 -0.039
 0.642  1.462  0.326  0.073 -0.040 -0.039 -0.039
 0.644  1.462  0.326  0.073 -0.039 -0.039 -0.039
 0.646  1.463  0.326  0.073 -0.039 -0.039 -0.039
 0.648  1.463  0.326  0.073 -0.039 -0.038 -0.038
 0.650  1.463  0.326  0.073 -0.039 -0.038 -0.038
 0.652  1.465  0.326  0.073 -0.039 -0.037 -0.037
 0.654  1.465  0.326  0.073 -0.039 -0.037 -0.037
 0.656  1.465  0.326  0.073 -0.038 -0.037 -0.037
 0.658  1.466  0.326  0.073 -0.038 -0.037 -0.037
 0.660  1.466  0.326  0.073 -0.038 -0.037 -0.037
 0.662  1.466  0.325  0.073 -0.038 -0.036 -0.036
 0.664  1.467  0.325  0.073 -0.038 -0.036 -0.036
 0.666  1.467  0.325  0.073 -0.037 -0.036 -0.036
 0.668  1.467  0.325  0.073 -0.037 -0.036 -0.036
 0.670  1.468  0.325  0.073 -0.037 -0.036 -0.036
 0.672  1.468  0.324  0.073 -0.037 -0.035 -0.035
 0.674  1.469  0.324  0.073 -0.037 -0.035 -0.035
 0.676  1.469  0.324  0.073 -0.037 -0.034 -0.034
 0.678  1.469  0.323  0.072 -0.037 -0.034 -0.034
 0.680  1.470  0.323  0.072 -0.037 -0.034 -0.034
 0.682  1.470  0.321  0.072 -0.037 -0.034 -0.034
 0.684  1.471  0.321  0.072 -0.036 -0.033 -0.033
 0.686  1.471  0.321  0.071 -0.036 -0.033 -0.033
 0.688  1.473  0.320  0.071 -0.036 -0.033 -0.033
 0.690  1.473  0.320  0.071 -0.036 -0.033 -0.033
 0.692  1.474  0.319  0.070 -0.035 -0.033 -0.033
 0.694  1.474  0.319  0.070 -0.035 -0.032 -0.032
 0.696  1.475  0.318  0.070 -0.035 -0.032 -0.032
 0.698  1.476  0.316  0.069 -0.035 -0.031 -0.031
 0.700  1.476  0.316  0.069 -0.035 -0.031 -0.031
 0.702  1.477  0.315  0.068 -0.035 -0.031 -0.031
 0.704  1.477  0.314  0.068 -0.035 -0.031 -0.031
 0.706  1.478  0.314  0.068 -0.034 -0.031 -0.031
 0.708  1.479  0.313  0.067 -0.034 -0.030 -0.030
 0.710  1.479  0.311  0.066 -0.034 -0.030 -0.030
 0.712  1.481  0.310  0.066 -0.033 -0.030 -0.030
 0.714  1.481  0.309  0.065 -0.033 -0.030 -0.030
 0.716  1.482  0.309  0.065 -0.033 -0.030 -0.030
 0.718  1.483  0.308  0.064 -0.032 -0.029 -0.029
 0.720  1.483  0.306  0.064 -0.032 -0.029 -0.029
 0.722  1.484  0.305  0.064 -0.032 -0.028 -0.028
 0.724  1.485  0.304  0.063 -0.032 -0.028 -0.028
 0.726  1.486  0.303  0.063 -0.032 -0.028 -0.028
 0.728  1.487  0.301  0.062 -0.032 -0.027 -0.027
 0.730  1.489  0.301  0.062 -0.031 -0.027 -0.027
 0.732  1.491  0.300  0.062 -0.031 -0.027 -0.027
 0.734  1.492  0.299  0.062 -0.031 -0.026 -0.026
 0.736  1.494  0.299  0.062 -0.030 -0.025 -0.025
 0.738  1.496  0.299  0.062 -0.030 -0.025 -0.025
 0.740  1.498  0.298  0.062 -0.030 -0.024 -0.024
 0.742  1.500  0.298  0.062 -0.030 -0.024 -0.024
 0.744  1.502  0.298  0.063 -0.029 -0.022 -0.022
 0.746  1.505  0.298  0.063 -0.029 -0.022 -0.022
 0.748  1.507  0.298  0.064 -0.029 -0.021 -0.021
 0.750  1.509  0.298  0.064 -0.029 -0.020 -0.020
 0.752  1.512  0.299  0.064 -0.029 -0.019 -0.019
 0.754  1.514  0.299  0.065 -0.029 -0.018 -0.018
 0.756  1.516  0.299  0.066 -0.028 -0.017 -0.017
 0.758  1.518  0.300  0.067 -0.028 -0.016 -0.016
 0.760  1.522  0.300  0.068 -0.028 -0.016 -0.016
 0.762  1.524  0.301  0.070 -0.027 -0.014 -0.014
 0.764  1.528  0.303  0.071 -0.027 -0.013 -0.013
 0.766  1.531  0.304  0.073 -0.027 -0.012 -0.012
 0.768  1.534  0.305  0.073 -0.027 -0.011 -0.011
 0.770  1.538  0.306  0.075 -0.027 -0.010 -0.010
 0.772  1.541  0.308  0.077 -0.027 -0.008 -0.008
 0.774  1.546  0.310  0.079 -0.027 -0.007 -0.007
 0.776  1.549  0.311  0.081 -0.026 -0.006 -0.006
 0.778  1.554  0.314  0.082 -0.026 -0.004 -0.004
 0.780  1.558  0.315  0.085 -0.026 -0.003 -0.003
 0.782  1.563  0.318  0.087 -0.026 -0.001 -0.001
 0.784  1.566  0.320  0.090 -0.026  0.000  0.000
 0.786  1.571  0.323  0.091 -0.025  0.002  0.002
 0.788  1.574  0.324  0.094 -0.025  0.003  0.003
 0.790  1.579  0.326  0.096 -0.024  0.005  0.005
 0.792  1.582  0.329  0.099 -0.024  0.006  0.006
 0.794  1.586  0.331  0.101 -0.023  0.008  0.008
 0.796  1.589  0.335  0.104 -0.022  0.010  0.010
 0.798  1.592  0.338  0.106 -0.021  0.011  0.011
 0.800  1.594  0.340  0.109 -0.021  0.013  0.013
 0.802  1.596  0.343  0.111 -0.019  0.015  0.015
 0.804  1.597  0.345  0.114 -0.018  0.016  0.016
 0.806  1.598  0.348  0.117 -0.017  0.018  0.018
 0.808  1.600  0.350  0.118 -0.015  0.019  0.019
