# IsPeriodic    : True
# Period        : 0.570872 days
# Normalization : <g_mag>=0
# 
# Phase u_mag  g_mag  r_mag  i_mag  z_mag  y_mag
 0.000  0.550 -0.660 -0.616 -0.534 -0.514 -0.514
 0.002  0.550 -0.660 -0.616 -0.534 -0.514 -0.514
 0.004  0.550 -0.659 -0.616 -0.533 -0.513 -0.513
 0.006  0.551 -0.658 -0.616 -0.532 -0.513 -0.513
 0.008  0.552 -0.657 -0.615 -0.532 -0.512 -0.512
 0.010  0.553 -0.656 -0.614 -0.532 -0.512 -0.512
 0.012  0.554 -0.655 -0.613 -0.531 -0.511 -0.511
 0.014  0.556 -0.653 -0.613 -0.531 -0.511 -0.511
 0.016  0.558 -0.651 -0.611 -0.529 -0.510 -0.510
 0.018  0.560 -0.649 -0.609 -0.529 -0.510 -0.510
 0.020  0.562 -0.647 -0.608 -0.528 -0.509 -0.509
 0.022  0.565 -0.644 -0.606 -0.527 -0.508 -0.508
 0.024  0.568 -0.641 -0.604 -0.526 -0.507 -0.507
 0.026  0.572 -0.638 -0.603 -0.525 -0.506 -0.506
 0.028  0.575 -0.635 -0.600 -0.523 -0.504 -0.504
 0.030  0.579 -0.632 -0.597 -0.522 -0.503 -0.503
 0.032  0.584 -0.628 -0.595 -0.520 -0.502 -0.502
 0.034  0.588 -0.623 -0.592 -0.518 -0.500 -0.500
 0.036  0.593 -0.619 -0.589 -0.516 -0.498 -0.498
 0.038  0.598 -0.615 -0.585 -0.514 -0.496 -0.496
 0.040  0.604 -0.610 -0.582 -0.511 -0.494 -0.494
 0.042  0.609 -0.604 -0.578 -0.509 -0.492 -0.492
 0.044  0.615 -0.599 -0.574 -0.507 -0.490 -0.490
 0.046  0.621 -0.593 -0.571 -0.504 -0.488 -0.488
 0.048  0.627 -0.588 -0.566 -0.501 -0.485 -0.485
 0.050  0.634 -0.580 -0.562 -0.498 -0.483 -0.483
 0.052  0.640 -0.574 -0.558 -0.495 -0.481 -0.481
 0.054  0.647 -0.568 -0.553 -0.492 -0.478 -0.478
 0.056  0.653 -0.560 -0.549 -0.489 -0.475 -0.475
 0.058  0.660 -0.554 -0.544 -0.486 -0.472 -0.472
 0.060  0.666 -0.547 -0.539 -0.483 -0.469 -0.469
 0.062  0.673 -0.539 -0.535 -0.480 -0.466 -0.466
 0.064  0.679 -0.532 -0.530 -0.477 -0.463 -0.463
 0.066  0.686 -0.525 -0.526 -0.474 -0.460 -0.460
 0.068  0.692 -0.518 -0.521 -0.470 -0.458 -0.458
 0.070  0.698 -0.511 -0.517 -0.467 -0.454 -0.454
 0.072  0.704 -0.504 -0.513 -0.464 -0.452 -0.452
 0.074  0.710 -0.497 -0.508 -0.461 -0.449 -0.449
 0.076  0.716 -0.490 -0.504 -0.458 -0.446 -0.446
 0.078  0.721 -0.484 -0.501 -0.455 -0.443 -0.443
 0.080  0.727 -0.477 -0.497 -0.452 -0.440 -0.440
 0.082  0.732 -0.471 -0.492 -0.450 -0.437 -0.437
 0.084  0.738 -0.464 -0.488 -0.447 -0.435 -0.435
 0.086  0.743 -0.457 -0.485 -0.444 -0.432 -0.432
 0.088  0.748 -0.452 -0.481 -0.441 -0.429 -0.429
 0.090  0.753 -0.446 -0.477 -0.438 -0.427 -0.427
 0.092  0.759 -0.439 -0.474 -0.436 -0.425 -0.425
 0.094  0.764 -0.434 -0.470 -0.434 -0.422 -0.422
 0.096  0.769 -0.428 -0.466 -0.431 -0.420 -0.420
 0.098  0.774 -0.423 -0.463 -0.429 -0.417 -0.417
 0.100  0.779 -0.416 -0.460 -0.426 -0.415 -0.415
 0.102  0.784 -0.411 -0.456 -0.424 -0.413 -0.413
 0.104  0.787 -0.406 -0.453 -0.422 -0.411 -0.411
 0.106  0.792 -0.401 -0.450 -0.420 -0.409 -0.409
 0.108  0.797 -0.395 -0.447 -0.417 -0.407 -0.407
 0.110  0.801 -0.390 -0.443 -0.416 -0.405 -0.405
 0.112  0.805 -0.386 -0.440 -0.413 -0.403 -0.403
 0.114  0.810 -0.381 -0.437 -0.411 -0.401 -0.401
 0.116  0.814 -0.375 -0.434 -0.410 -0.399 -0.399
 0.118  0.818 -0.371 -0.431 -0.408 -0.397 -0.397
 0.120  0.822 -0.366 -0.428 -0.406 -0.395 -0.395
 0.122  0.826 -0.362 -0.425 -0.404 -0.394 -0.394
 0.124  0.830 -0.357 -0.423 -0.402 -0.392 -0.392
 0.126  0.834 -0.353 -0.420 -0.401 -0.391 -0.391
 0.128  0.838 -0.349 -0.418 -0.399 -0.389 -0.389
 0.130  0.842 -0.345 -0.415 -0.397 -0.387 -0.387
 0.132  0.846 -0.341 -0.412 -0.396 -0.386 -0.386
 0.134  0.850 -0.336 -0.409 -0.394 -0.384 -0.384
 0.136  0.855 -0.332 -0.407 -0.392 -0.383 -0.383
 0.138  0.859 -0.328 -0.404 -0.391 -0.382 -0.382
 0.140  0.863 -0.324 -0.402 -0.389 -0.380 -0.380
 0.142  0.867 -0.320 -0.399 -0.388 -0.379 -0.379
 0.144  0.871 -0.316 -0.396 -0.386 -0.377 -0.377
 0.146  0.875 -0.312 -0.394 -0.385 -0.376 -0.376
 0.148  0.879 -0.308 -0.391 -0.383 -0.375 -0.375
 0.150  0.883 -0.304 -0.389 -0.382 -0.374 -0.374
 0.152  0.887 -0.300 -0.386 -0.380 -0.372 -0.372
 0.154  0.891 -0.295 -0.383 -0.379 -0.370 -0.370
 0.156  0.895 -0.291 -0.381 -0.377 -0.369 -0.369
 0.158  0.899 -0.287 -0.378 -0.376 -0.368 -0.368
 0.160  0.903 -0.283 -0.376 -0.374 -0.366 -0.366
 0.162  0.907 -0.279 -0.374 -0.372 -0.365 -0.365
 0.164  0.911 -0.274 -0.371 -0.371 -0.364 -0.364
 0.166  0.915 -0.270 -0.368 -0.369 -0.362 -0.362
 0.168  0.920 -0.266 -0.366 -0.367 -0.360 -0.360
 0.170  0.924 -0.262 -0.364 -0.365 -0.359 -0.359
 0.172  0.928 -0.256 -0.361 -0.364 -0.358 -0.358
 0.174  0.932 -0.252 -0.358 -0.362 -0.356 -0.356
 0.176  0.936 -0.248 -0.356 -0.361 -0.355 -0.355
 0.178  0.940 -0.244 -0.354 -0.359 -0.353 -0.353
 0.180  0.944 -0.240 -0.352 -0.358 -0.352 -0.352
 0.182  0.948 -0.235 -0.349 -0.356 -0.350 -0.350
 0.184  0.952 -0.231 -0.346 -0.354 -0.349 -0.349
 0.186  0.956 -0.227 -0.344 -0.352 -0.348 -0.348
 0.188  0.961 -0.223 -0.342 -0.351 -0.346 -0.346
 0.190  0.965 -0.219 -0.339 -0.349 -0.344 -0.344
 0.192  0.969 -0.213 -0.337 -0.347 -0.343 -0.343
 0.194  0.973 -0.209 -0.335 -0.346 -0.342 -0.342
 0.196  0.977 -0.205 -0.333 -0.344 -0.340 -0.340
 0.198  0.981 -0.201 -0.330 -0.343 -0.339 -0.339
 0.200  0.985 -0.197 -0.328 -0.341 -0.337 -0.337
 0.202  0.989 -0.191 -0.326 -0.339 -0.335 -0.335
 0.204  0.993 -0.187 -0.323 -0.337 -0.334 -0.334
 0.206  0.997 -0.183 -0.320 -0.335 -0.333 -0.333
 0.208  1.001 -0.179 -0.318 -0.334 -0.331 -0.331
 0.210  1.005 -0.174 -0.316 -0.332 -0.329 -0.329
 0.212  1.009 -0.170 -0.313 -0.331 -0.328 -0.328
 0.214  1.013 -0.166 -0.311 -0.329 -0.326 -0.326
 0.216  1.017 -0.162 -0.309 -0.327 -0.325 -0.325
 0.218  1.020 -0.158 -0.307 -0.325 -0.324 -0.324
 0.220  1.024 -0.153 -0.304 -0.323 -0.322 -0.322
 0.222  1.028 -0.149 -0.302 -0.322 -0.320 -0.320
 0.224  1.032 -0.145 -0.300 -0.320 -0.319 -0.319
 0.226  1.035 -0.142 -0.297 -0.319 -0.317 -0.317
 0.228  1.039 -0.138 -0.294 -0.317 -0.316 -0.316
 0.230  1.043 -0.133 -0.292 -0.315 -0.315 -0.315
 0.232  1.046 -0.130 -0.290 -0.314 -0.313 -0.313
 0.234  1.050 -0.126 -0.288 -0.312 -0.311 -0.311
 0.236  1.054 -0.123 -0.285 -0.310 -0.310 -0.310
 0.238  1.057 -0.119 -0.283 -0.308 -0.308 -0.308
 0.240  1.061 -0.116 -0.280 -0.307 -0.307 -0.307
 0.242  1.064 -0.111 -0.278 -0.305 -0.306 -0.306
 0.244  1.068 -0.108 -0.275 -0.304 -0.304 -0.304
 0.246  1.071 -0.104 -0.273 -0.302 -0.302 -0.302
 0.248  1.075 -0.101 -0.271 -0.301 -0.301 -0.301
 0.250  1.078 -0.098 -0.269 -0.299 -0.299 -0.299
 0.252  1.081 -0.095 -0.266 -0.298 -0.298 -0.298
 0.254  1.085 -0.091 -0.263 -0.296 -0.297 -0.297
 0.256  1.088 -0.088 -0.261 -0.294 -0.295 -0.295
 0.258  1.091 -0.084 -0.259 -0.293 -0.293 -0.293
 0.260  1.095 -0.081 -0.256 -0.291 -0.292 -0.292
 0.262  1.098 -0.078 -0.253 -0.289 -0.290 -0.290
 0.264  1.101 -0.076 -0.251 -0.288 -0.289 -0.289
 0.266  1.104 -0.072 -0.249 -0.286 -0.287 -0.287
 0.268  1.108 -0.069 -0.247 -0.285 -0.286 -0.286
 0.270  1.111 -0.066 -0.244 -0.283 -0.284 -0.284
 0.272  1.114 -0.063 -0.241 -0.282 -0.283 -0.283
 0.274  1.117 -0.060 -0.239 -0.280 -0.281 -0.281
 0.276  1.121 -0.058 -0.237 -0.279 -0.280 -0.280
 0.278  1.124 -0.055 -0.234 -0.277 -0.278 -0.278
 0.280  1.127 -0.051 -0.232 -0.276 -0.277 -0.277
 0.282  1.130 -0.048 -0.230 -0.274 -0.275 -0.275
 0.284  1.133 -0.046 -0.227 -0.273 -0.274 -0.274
 0.286  1.137 -0.043 -0.225 -0.271 -0.273 -0.273
 0.288  1.140 -0.040 -0.223 -0.270 -0.271 -0.271
 0.290  1.143 -0.037 -0.221 -0.268 -0.269 -0.269
 0.292  1.146 -0.035 -0.218 -0.267 -0.268 -0.268
 0.294  1.149 -0.031 -0.216 -0.265 -0.267 -0.267
 0.296  1.153 -0.028 -0.214 -0.263 -0.265 -0.265
 0.298  1.156 -0.025 -0.212 -0.262 -0.264 -0.264
 0.300  1.159 -0.022 -0.209 -0.260 -0.262 -0.262
 0.302  1.162 -0.019 -0.207 -0.258 -0.261 -0.261
 0.304  1.165 -0.016 -0.205 -0.257 -0.260 -0.260
 0.306  1.169 -0.014 -0.202 -0.255 -0.258 -0.258
 0.308  1.172 -0.010 -0.200 -0.253 -0.257 -0.257
 0.310  1.175 -0.007 -0.198 -0.252 -0.256 -0.256
 0.312  1.178 -0.004 -0.196 -0.250 -0.255 -0.255
 0.314  1.181 -0.001 -0.194 -0.249 -0.253 -0.253
 0.316  1.184  0.002 -0.192 -0.247 -0.252 -0.252
 0.318  1.188  0.005 -0.189 -0.246 -0.250 -0.250
 0.320  1.191  0.008 -0.187 -0.244 -0.249 -0.249
 0.322  1.194  0.012 -0.186 -0.243 -0.248 -0.248
 0.324  1.197  0.015 -0.183 -0.241 -0.247 -0.247
 0.326  1.200  0.018 -0.181 -0.239 -0.245 -0.245
 0.328  1.203  0.021 -0.180 -0.238 -0.244 -0.244
 0.330  1.207  0.024 -0.177 -0.236 -0.243 -0.243
 0.332  1.210  0.027 -0.175 -0.234 -0.242 -0.242
 0.334  1.213  0.031 -0.173 -0.232 -0.241 -0.241
 0.336  1.216  0.034 -0.171 -0.231 -0.239 -0.239
 0.338  1.219  0.037 -0.170 -0.229 -0.238 -0.238
 0.340  1.222  0.040 -0.167 -0.228 -0.237 -0.237
 0.342  1.225  0.044 -0.165 -0.226 -0.236 -0.236
 0.344  1.228  0.047 -0.164 -0.225 -0.235 -0.235
 0.346  1.231  0.051 -0.161 -0.223 -0.234 -0.234
 0.348  1.235  0.054 -0.160 -0.221 -0.232 -0.232
 0.350  1.238  0.057 -0.157 -0.219 -0.231 -0.231
 0.352  1.241  0.060 -0.156 -0.218 -0.230 -0.230
 0.354  1.244  0.063 -0.154 -0.216 -0.229 -0.229
 0.356  1.246  0.066 -0.151 -0.214 -0.228 -0.228
 0.358  1.249  0.069 -0.150 -0.213 -0.227 -0.227
 0.360  1.252  0.073 -0.148 -0.211 -0.225 -0.225
 0.362  1.255  0.076 -0.146 -0.210 -0.224 -0.224
 0.364  1.258  0.079 -0.144 -0.208 -0.223 -0.223
 0.366  1.261  0.082 -0.142 -0.207 -0.222 -0.222
 0.368  1.264  0.085 -0.140 -0.205 -0.220 -0.220
 0.370  1.267  0.088 -0.138 -0.203 -0.219 -0.219
 0.372  1.269  0.092 -0.136 -0.202 -0.218 -0.218
 0.374  1.272  0.095 -0.134 -0.200 -0.217 -0.217
 0.376  1.275  0.098 -0.132 -0.198 -0.216 -0.216
 0.378  1.278  0.101 -0.130 -0.197 -0.214 -0.214
 0.380  1.280  0.103 -0.128 -0.195 -0.213 -0.213
 0.382  1.283  0.106 -0.126 -0.194 -0.211 -0.211
 0.384  1.286  0.109 -0.124 -0.192 -0.210 -0.210
 0.386  1.288  0.113 -0.122 -0.190 -0.209 -0.209
 0.388  1.291  0.116 -0.120 -0.189 -0.208 -0.208
 0.390  1.294  0.118 -0.118 -0.187 -0.206 -0.206
 0.392  1.296  0.121 -0.116 -0.186 -0.205 -0.205
 0.394  1.299  0.124 -0.114 -0.184 -0.203 -0.203
 0.396  1.301  0.127 -0.112 -0.183 -0.202 -0.202
 0.398  1.304  0.129 -0.110 -0.182 -0.201 -0.201
 0.400  1.306  0.133 -0.108 -0.180 -0.199 -0.199
 0.402  1.309  0.136 -0.106 -0.179 -0.198 -0.198
 0.404  1.311  0.138 -0.103 -0.177 -0.196 -0.196
 0.406  1.314  0.141 -0.102 -0.176 -0.195 -0.195
 0.408  1.316  0.144 -0.100 -0.174 -0.193 -0.193
 0.410  1.319  0.146 -0.097 -0.173 -0.192 -0.192
 0.412  1.321  0.149 -0.096 -0.171 -0.190 -0.190
 0.414  1.324  0.151 -0.094 -0.170 -0.189 -0.189
 0.416  1.326  0.155 -0.091 -0.168 -0.187 -0.187
 0.418  1.328  0.157 -0.090 -0.167 -0.185 -0.185
 0.420  1.331  0.160 -0.087 -0.165 -0.184 -0.184
 0.422  1.333  0.162 -0.086 -0.164 -0.183 -0.183
 0.424  1.335  0.165 -0.084 -0.163 -0.181 -0.181
 0.426  1.338  0.167 -0.082 -0.161 -0.180 -0.180
 0.428  1.340  0.170 -0.080 -0.160 -0.178 -0.178
 0.430  1.342  0.172 -0.078 -0.158 -0.176 -0.176
 0.432  1.344  0.175 -0.076 -0.157 -0.175 -0.175
 0.434  1.346  0.178 -0.075 -0.156 -0.174 -0.174
 0.436  1.349  0.180 -0.072 -0.155 -0.172 -0.172
 0.438  1.351  0.182 -0.071 -0.153 -0.170 -0.170
 0.440  1.353  0.184 -0.068 -0.152 -0.169 -0.169
 0.442  1.355  0.186 -0.067 -0.150 -0.168 -0.168
 0.444  1.357  0.189 -0.065 -0.149 -0.167 -0.167
 0.446  1.359  0.191 -0.063 -0.147 -0.165 -0.165
 0.448  1.361  0.193 -0.062 -0.146 -0.164 -0.164
 0.450  1.363  0.196 -0.060 -0.145 -0.163 -0.163
 0.452  1.365  0.198 -0.058 -0.143 -0.161 -0.161
 0.454  1.367  0.200 -0.056 -0.142 -0.160 -0.160
 0.456  1.370  0.202 -0.055 -0.141 -0.159 -0.159
 0.458  1.371  0.204 -0.053 -0.140 -0.158 -0.158
 0.460  1.373  0.205 -0.051 -0.138 -0.157 -0.157
 0.462  1.375  0.207 -0.049 -0.137 -0.155 -0.155
 0.464  1.377  0.209 -0.048 -0.135 -0.154 -0.154
 0.466  1.379  0.211 -0.046 -0.134 -0.153 -0.153
 0.468  1.381  0.213 -0.045 -0.133 -0.152 -0.152
 0.470  1.383  0.215 -0.043 -0.132 -0.151 -0.151
 0.472  1.385  0.217 -0.042 -0.131 -0.150 -0.150
 0.474  1.387  0.219 -0.040 -0.129 -0.149 -0.149
 0.476  1.389  0.220 -0.038 -0.128 -0.148 -0.148
 0.478  1.390  0.222 -0.037 -0.127 -0.147 -0.147
 0.480  1.392  0.223 -0.035 -0.126 -0.145 -0.145
 0.482  1.394  0.225 -0.033 -0.124 -0.144 -0.144
 0.484  1.396  0.226 -0.032 -0.123 -0.143 -0.143
 0.486  1.397  0.228 -0.030 -0.122 -0.143 -0.143
 0.488  1.399  0.229 -0.030 -0.120 -0.142 -0.142
 0.490  1.401  0.231 -0.028 -0.119 -0.141 -0.141
 0.492  1.402  0.232 -0.027 -0.118 -0.140 -0.140
 0.494  1.404  0.233 -0.025 -0.117 -0.139 -0.139
 0.496  1.405  0.236 -0.024 -0.116 -0.138 -0.138
 0.498  1.407  0.237 -0.023 -0.115 -0.138 -0.138
 0.500  1.408  0.238 -0.021 -0.114 -0.136 -0.136
 0.502  1.410  0.239 -0.021 -0.113 -0.135 -0.135
 0.504  1.411  0.241 -0.019 -0.111 -0.135 -0.135
 0.506  1.413  0.242 -0.018 -0.110 -0.134 -0.134
 0.508  1.414  0.243 -0.017 -0.110 -0.133 -0.133
 0.510  1.415  0.244 -0.016 -0.108 -0.132 -0.132
 0.512  1.417  0.245 -0.014 -0.107 -0.132 -0.132
 0.514  1.418  0.246 -0.014 -0.107 -0.131 -0.131
 0.516  1.419  0.247 -0.013 -0.105 -0.130 -0.130
 0.518  1.421  0.248 -0.012 -0.104 -0.129 -0.129
 0.520  1.422  0.249 -0.011 -0.104 -0.128 -0.128
 0.522  1.423  0.250 -0.010 -0.102 -0.127 -0.127
 0.524  1.424  0.251 -0.009 -0.102 -0.127 -0.127
 0.526  1.425  0.252 -0.008 -0.101 -0.126 -0.126
 0.528  1.426  0.253 -0.008 -0.100 -0.125 -0.125
 0.530  1.427  0.254 -0.007 -0.099 -0.124 -0.124
 0.532  1.428  0.256 -0.006 -0.098 -0.124 -0.124
 0.534  1.429  0.256 -0.005 -0.098 -0.123 -0.123
 0.536  1.430  0.257 -0.005 -0.097 -0.122 -0.122
 0.538  1.431  0.258 -0.005 -0.096 -0.122 -0.122
 0.540  1.432  0.259 -0.004 -0.095 -0.121 -0.121
 0.542  1.433  0.259 -0.003 -0.095 -0.120 -0.120
 0.544  1.434  0.260 -0.003 -0.094 -0.119 -0.119
 0.546  1.435  0.261 -0.002 -0.093 -0.119 -0.119
 0.548  1.436  0.261 -0.002 -0.092 -0.118 -0.118
 0.550  1.436  0.262 -0.002 -0.092 -0.117 -0.117
 0.552  1.437  0.262 -0.001 -0.091 -0.117 -0.117
 0.554  1.438  0.263 -0.001 -0.090 -0.116 -0.116
 0.556  1.438  0.263  0.000 -0.090 -0.115 -0.115
 0.558  1.439  0.264  0.000 -0.089 -0.115 -0.115
 0.560  1.440  0.264  0.000 -0.089 -0.114 -0.114
 0.562  1.440  0.265  0.001 -0.088 -0.114 -0.114
 0.564  1.441  0.265  0.001 -0.087 -0.113 -0.113
 0.566  1.441  0.266  0.002 -0.087 -0.112 -0.112
 0.568  1.441  0.266  0.002 -0.086 -0.111 -0.111
 0.570  1.442  0.266  0.002 -0.086 -0.111 -0.111
 0.572  1.442  0.267  0.002 -0.085 -0.110 -0.110
 0.574  1.443  0.267  0.003 -0.084 -0.110 -0.110
 0.576  1.443  0.268  0.003 -0.084 -0.109 -0.109
 0.578  1.443  0.268  0.004 -0.084 -0.108 -0.108
 0.580  1.443  0.268  0.004 -0.083 -0.108 -0.108
 0.582  1.443  0.269  0.005 -0.083 -0.107 -0.107
 0.584  1.443  0.269  0.005 -0.082 -0.107 -0.107
 0.586  1.444  0.269  0.005 -0.081 -0.106 -0.106
 0.588  1.444  0.270  0.005 -0.081 -0.106 -0.106
 0.590  1.444  0.270  0.006 -0.080 -0.105 -0.105
 0.592  1.444  0.270  0.006 -0.080 -0.105 -0.105
 0.594  1.443  0.270  0.007 -0.079 -0.104 -0.104
 0.596  1.443  0.271  0.007 -0.079 -0.103 -0.103
 0.598  1.443  0.271  0.008 -0.079 -0.103 -0.103
 0.600  1.443  0.271  0.008 -0.078 -0.102 -0.102
 0.602  1.443  0.271  0.008 -0.077 -0.102 -0.102
 0.604  1.443  0.272  0.008 -0.077 -0.101 -0.101
 0.606  1.442  0.272  0.009 -0.076 -0.101 -0.101
 0.608  1.442  0.272  0.010 -0.076 -0.100 -0.100
 0.610  1.442  0.272  0.010 -0.076 -0.100 -0.100
 0.612  1.441  0.273  0.011 -0.075 -0.099 -0.099
 0.614  1.441  0.273  0.011 -0.074 -0.099 -0.099
 0.616  1.440  0.273  0.011 -0.074 -0.098 -0.098
 0.618  1.440  0.273  0.012 -0.074 -0.098 -0.098
 0.620  1.439  0.273  0.012 -0.073 -0.097 -0.097
 0.622  1.438  0.273  0.013 -0.073 -0.097 -0.097
 0.624  1.438  0.274  0.014 -0.072 -0.096 -0.096
 0.626  1.437  0.274  0.014 -0.072 -0.096 -0.096
 0.628  1.437  0.274  0.014 -0.071 -0.095 -0.095
 0.630  1.436  0.274  0.014 -0.071 -0.094 -0.094
 0.632  1.436  0.274  0.015 -0.070 -0.094 -0.094
 0.634  1.435  0.274  0.015 -0.070 -0.094 -0.094
 0.636  1.435  0.274  0.015 -0.070 -0.093 -0.093
 0.638  1.434  0.274  0.016 -0.069 -0.093 -0.093
 0.640  1.434  0.274  0.016 -0.069 -0.092 -0.092
 0.642  1.433  0.274  0.016 -0.068 -0.092 -0.092
 0.644  1.433  0.274  0.016 -0.068 -0.091 -0.091
 0.646  1.433  0.274  0.017 -0.068 -0.091 -0.091
 0.648  1.432  0.274  0.017 -0.067 -0.091 -0.091
 0.650  1.432  0.273  0.017 -0.067 -0.090 -0.090
 0.652  1.432  0.273  0.017 -0.067 -0.090 -0.090
 0.654  1.431  0.273  0.017 -0.067 -0.090 -0.090
 0.656  1.431  0.272  0.017 -0.067 -0.089 -0.089
 0.658  1.431  0.272  0.016 -0.066 -0.089 -0.089
 0.660  1.430  0.271  0.016 -0.066 -0.089 -0.089
 0.662  1.430  0.271  0.016 -0.066 -0.088 -0.088
 0.664  1.430  0.270  0.016 -0.066 -0.088 -0.088
 0.666  1.430  0.270  0.015 -0.065 -0.088 -0.088
 0.668  1.430  0.269  0.015 -0.065 -0.087 -0.087
 0.670  1.429  0.269  0.014 -0.065 -0.087 -0.087
 0.672  1.429  0.268  0.014 -0.065 -0.086 -0.086
 0.674  1.429  0.267  0.014 -0.065 -0.086 -0.086
 0.676  1.429  0.267  0.014 -0.065 -0.086 -0.086
 0.678  1.429  0.266  0.013 -0.065 -0.085 -0.085
 0.680  1.429  0.265  0.012 -0.065 -0.085 -0.085
 0.682  1.429  0.264  0.011 -0.065 -0.085 -0.085
 0.684  1.429  0.263  0.011 -0.065 -0.085 -0.085
 0.686  1.429  0.262  0.011 -0.065 -0.084 -0.084
 0.688  1.429  0.261  0.010 -0.065 -0.084 -0.084
 0.690  1.429  0.260  0.009 -0.065 -0.084 -0.084
 0.692  1.429  0.259  0.008 -0.065 -0.084 -0.084
 0.694  1.429  0.258  0.008 -0.066 -0.083 -0.083
 0.696  1.429  0.257  0.007 -0.066 -0.083 -0.083
 0.698  1.429  0.256  0.006 -0.066 -0.083 -0.083
 0.700  1.429  0.253  0.005 -0.067 -0.083 -0.083
 0.702  1.429  0.252  0.005 -0.067 -0.083 -0.083
 0.704  1.429  0.251  0.004 -0.067 -0.083 -0.083
 0.706  1.429  0.250  0.004 -0.067 -0.082 -0.082
 0.708  1.429  0.249  0.003 -0.067 -0.082 -0.082
 0.710  1.430  0.248  0.003 -0.067 -0.082 -0.082
 0.712  1.430  0.247  0.003 -0.067 -0.082 -0.082
 0.714  1.430  0.247  0.003 -0.067 -0.081 -0.081
 0.716  1.430  0.246  0.003 -0.067 -0.081 -0.081
 0.718  1.430  0.246  0.003 -0.066 -0.080 -0.080
 0.720  1.430  0.245  0.004 -0.066 -0.080 -0.080
 0.722  1.430  0.245  0.005 -0.065 -0.079 -0.079
 0.724  1.431  0.245  0.005 -0.065 -0.078 -0.078
 0.726  1.431  0.245  0.005 -0.064 -0.078 -0.078
 0.728  1.431  0.245  0.007 -0.064 -0.077 -0.077
 0.730  1.431  0.245  0.008 -0.063 -0.076 -0.076
 0.732  1.432  0.246  0.008 -0.062 -0.076 -0.076
 0.734  1.432  0.246  0.010 -0.061 -0.075 -0.075
 0.736  1.432  0.247  0.011 -0.060 -0.074 -0.074
 0.738  1.433  0.247  0.012 -0.059 -0.073 -0.073
 0.740  1.433  0.248  0.014 -0.058 -0.072 -0.072
 0.742  1.433  0.249  0.015 -0.057 -0.071 -0.071
 0.744  1.434  0.250  0.017 -0.056 -0.070 -0.070
 0.746  1.434  0.251  0.019 -0.055 -0.069 -0.069
 0.748  1.434  0.252  0.021 -0.053 -0.068 -0.068
 0.750  1.435  0.254  0.023 -0.052 -0.066 -0.066
 0.752  1.435  0.256  0.025 -0.050 -0.065 -0.065
 0.754  1.435  0.258  0.027 -0.049 -0.064 -0.064
 0.756  1.435  0.260  0.030 -0.047 -0.063 -0.063
 0.758  1.436  0.261  0.033 -0.045 -0.061 -0.061
 0.760  1.436  0.263  0.036 -0.043 -0.059 -0.059
 0.762  1.437  0.266  0.039 -0.041 -0.058 -0.058
 0.764  1.437  0.268  0.041 -0.040 -0.056 -0.056
 0.766  1.438  0.270  0.044 -0.037 -0.055 -0.055
 0.768  1.438  0.272  0.047 -0.035 -0.053 -0.053
 0.770  1.439  0.276  0.050 -0.033 -0.051 -0.051
 0.772  1.440  0.278  0.053 -0.031 -0.049 -0.049
 0.774  1.441  0.281  0.056 -0.029 -0.048 -0.048
 0.776  1.442  0.283  0.059 -0.026 -0.046 -0.046
 0.778  1.444  0.286  0.062 -0.025 -0.044 -0.044
 0.780  1.445  0.289  0.065 -0.022 -0.042 -0.042
 0.782  1.447  0.291  0.069 -0.020 -0.040 -0.040
 0.784  1.448  0.294  0.072 -0.017 -0.038 -0.038
 0.786  1.450  0.298  0.075 -0.015 -0.036 -0.036
 0.788  1.452  0.301  0.078 -0.013 -0.034 -0.034
 0.790  1.454  0.304  0.081 -0.010 -0.032 -0.032
 0.792  1.456  0.306  0.083 -0.008 -0.031 -0.031
 0.794  1.458  0.309  0.086 -0.005 -0.029 -0.029
 0.796  1.461  0.312  0.089 -0.003 -0.027 -0.027
 0.798  1.463  0.315  0.091 -0.000 -0.025 -0.025
 0.800  1.466  0.319  0.094  0.002 -0.023 -0.023
 0.802  1.469  0.322  0.097  0.005 -0.021 -0.021
 0.804  1.471  0.325  0.100  0.007 -0.019 -0.019
 0.806  1.474  0.328  0.102  0.010 -0.018 -0.018
 0.808  1.478  0.331  0.105  0.012 -0.016 -0.016
