# IsPeriodic    : True
# Period        : 0.717406 days
# Normalization : <g_mag>=0
# 
# Phase u_mag  g_mag  r_mag  i_mag  z_mag  y_mag
 0.000  0.675 -0.319 -0.428 -0.477 -0.656 -0.656
 0.002  0.675 -0.319 -0.428 -0.477 -0.656 -0.656
 0.004  0.676 -0.319 -0.428 -0.476 -0.656 -0.656
 0.006  0.677 -0.318 -0.428 -0.476 -0.656 -0.656
 0.008  0.679 -0.317 -0.427 -0.476 -0.655 -0.655
 0.010  0.681 -0.316 -0.427 -0.475 -0.654 -0.654
 0.012  0.683 -0.315 -0.426 -0.474 -0.654 -0.654
 0.014  0.686 -0.313 -0.426 -0.474 -0.653 -0.653
 0.016  0.689 -0.312 -0.425 -0.473 -0.652 -0.652
 0.018  0.693 -0.310 -0.425 -0.472 -0.652 -0.652
 0.020  0.696 -0.308 -0.424 -0.471 -0.650 -0.650
 0.022  0.700 -0.306 -0.424 -0.470 -0.650 -0.650
 0.024  0.703 -0.304 -0.423 -0.469 -0.649 -0.649
 0.026  0.707 -0.302 -0.422 -0.468 -0.648 -0.648
 0.028  0.711 -0.300 -0.421 -0.468 -0.647 -0.647
 0.030  0.714 -0.298 -0.421 -0.467 -0.646 -0.646
 0.032  0.718 -0.296 -0.419 -0.466 -0.645 -0.645
 0.034  0.722 -0.294 -0.419 -0.465 -0.644 -0.644
 0.036  0.725 -0.291 -0.418 -0.465 -0.644 -0.644
 0.038  0.728 -0.289 -0.417 -0.464 -0.643 -0.643
 0.040  0.731 -0.287 -0.416 -0.463 -0.642 -0.642
 0.042  0.735 -0.285 -0.415 -0.462 -0.641 -0.641
 0.044  0.739 -0.282 -0.414 -0.461 -0.641 -0.641
 0.046  0.742 -0.280 -0.412 -0.460 -0.640 -0.640
 0.048  0.745 -0.278 -0.411 -0.459 -0.639 -0.639
 0.050  0.749 -0.275 -0.410 -0.458 -0.638 -0.638
 0.052  0.752 -0.273 -0.409 -0.457 -0.638 -0.638
 0.054  0.755 -0.271 -0.407 -0.456 -0.637 -0.637
 0.056  0.759 -0.268 -0.406 -0.456 -0.636 -0.636
 0.058  0.762 -0.266 -0.404 -0.455 -0.635 -0.635
 0.060  0.766 -0.263 -0.403 -0.454 -0.635 -0.635
 0.062  0.769 -0.261 -0.401 -0.452 -0.634 -0.634
 0.064  0.772 -0.258 -0.400 -0.451 -0.633 -0.633
 0.066  0.776 -0.255 -0.398 -0.450 -0.632 -0.632
 0.068  0.779 -0.253 -0.396 -0.449 -0.632 -0.632
 0.070  0.782 -0.250 -0.395 -0.448 -0.631 -0.631
 0.072  0.785 -0.247 -0.393 -0.447 -0.630 -0.630
 0.074  0.789 -0.245 -0.391 -0.446 -0.630 -0.630
 0.076  0.792 -0.242 -0.389 -0.445 -0.629 -0.629
 0.078  0.795 -0.239 -0.387 -0.444 -0.628 -0.628
 0.080  0.799 -0.236 -0.386 -0.443 -0.628 -0.628
 0.082  0.801 -0.234 -0.384 -0.442 -0.627 -0.627
 0.084  0.805 -0.231 -0.382 -0.440 -0.626 -0.626
 0.086  0.808 -0.228 -0.380 -0.439 -0.626 -0.626
 0.088  0.811 -0.225 -0.378 -0.438 -0.625 -0.625
 0.090  0.814 -0.222 -0.376 -0.437 -0.624 -0.624
 0.092  0.817 -0.219 -0.375 -0.436 -0.623 -0.623
 0.094  0.821 -0.216 -0.373 -0.435 -0.623 -0.623
 0.096  0.824 -0.214 -0.372 -0.434 -0.622 -0.622
 0.098  0.827 -0.211 -0.370 -0.433 -0.621 -0.621
 0.100  0.830 -0.208 -0.368 -0.432 -0.620 -0.620
 0.102  0.833 -0.205 -0.367 -0.431 -0.620 -0.620
 0.104  0.836 -0.202 -0.366 -0.430 -0.619 -0.619
 0.106  0.838 -0.200 -0.364 -0.428 -0.618 -0.618
 0.108  0.842 -0.197 -0.363 -0.427 -0.617 -0.617
 0.110  0.844 -0.194 -0.361 -0.426 -0.616 -0.616
 0.112  0.847 -0.192 -0.360 -0.425 -0.615 -0.615
 0.114  0.850 -0.189 -0.359 -0.424 -0.614 -0.614
 0.116  0.853 -0.187 -0.358 -0.423 -0.614 -0.614
 0.118  0.855 -0.184 -0.356 -0.422 -0.612 -0.612
 0.120  0.858 -0.182 -0.355 -0.421 -0.612 -0.612
 0.122  0.861 -0.179 -0.354 -0.420 -0.611 -0.611
 0.124  0.863 -0.177 -0.353 -0.419 -0.610 -0.610
 0.126  0.866 -0.174 -0.352 -0.418 -0.609 -0.609
 0.128  0.869 -0.172 -0.351 -0.417 -0.608 -0.608
 0.130  0.871 -0.170 -0.350 -0.416 -0.606 -0.606
 0.132  0.874 -0.167 -0.349 -0.415 -0.606 -0.606
 0.134  0.876 -0.165 -0.348 -0.414 -0.604 -0.604
 0.136  0.879 -0.163 -0.347 -0.413 -0.603 -0.603
 0.138  0.881 -0.160 -0.346 -0.412 -0.602 -0.602
 0.140  0.884 -0.158 -0.345 -0.411 -0.601 -0.601
 0.142  0.886 -0.156 -0.344 -0.410 -0.600 -0.600
 0.144  0.888 -0.154 -0.343 -0.409 -0.599 -0.599
 0.146  0.890 -0.152 -0.343 -0.408 -0.597 -0.597
 0.148  0.892 -0.150 -0.342 -0.407 -0.596 -0.596
 0.150  0.895 -0.148 -0.341 -0.406 -0.595 -0.595
 0.152  0.897 -0.146 -0.340 -0.405 -0.594 -0.594
 0.154  0.899 -0.144 -0.339 -0.405 -0.593 -0.593
 0.156  0.901 -0.142 -0.339 -0.404 -0.591 -0.591
 0.158  0.903 -0.140 -0.338 -0.403 -0.590 -0.590
 0.160  0.906 -0.138 -0.337 -0.402 -0.589 -0.589
 0.162  0.907 -0.136 -0.337 -0.401 -0.588 -0.588
 0.164  0.910 -0.134 -0.336 -0.400 -0.586 -0.586
 0.166  0.912 -0.132 -0.335 -0.399 -0.585 -0.585
 0.168  0.914 -0.130 -0.334 -0.398 -0.584 -0.584
 0.170  0.916 -0.128 -0.333 -0.397 -0.583 -0.583
 0.172  0.918 -0.126 -0.332 -0.396 -0.582 -0.582
 0.174  0.920 -0.124 -0.331 -0.395 -0.580 -0.580
 0.176  0.922 -0.122 -0.330 -0.394 -0.580 -0.580
 0.178  0.924 -0.120 -0.329 -0.393 -0.578 -0.578
 0.180  0.926 -0.118 -0.328 -0.393 -0.577 -0.577
 0.182  0.928 -0.116 -0.327 -0.392 -0.576 -0.576
 0.184  0.930 -0.114 -0.326 -0.391 -0.575 -0.575
 0.186  0.932 -0.112 -0.325 -0.390 -0.574 -0.574
 0.188  0.934 -0.110 -0.324 -0.389 -0.574 -0.574
 0.190  0.936 -0.108 -0.323 -0.388 -0.572 -0.572
 0.192  0.938 -0.106 -0.322 -0.387 -0.572 -0.572
 0.194  0.940 -0.104 -0.321 -0.386 -0.571 -0.571
 0.196  0.942 -0.101 -0.320 -0.385 -0.570 -0.570
 0.198  0.944 -0.099 -0.318 -0.384 -0.569 -0.569
 0.200  0.946 -0.097 -0.317 -0.384 -0.568 -0.568
 0.202  0.948 -0.095 -0.316 -0.383 -0.567 -0.567
 0.204  0.950 -0.093 -0.315 -0.382 -0.566 -0.566
 0.206  0.952 -0.091 -0.314 -0.381 -0.565 -0.565
 0.208  0.954 -0.088 -0.312 -0.380 -0.565 -0.565
 0.210  0.956 -0.086 -0.311 -0.379 -0.564 -0.564
 0.212  0.958 -0.084 -0.309 -0.378 -0.563 -0.563
 0.214  0.960 -0.082 -0.308 -0.378 -0.563 -0.563
 0.216  0.962 -0.079 -0.307 -0.377 -0.562 -0.562
 0.218  0.964 -0.077 -0.305 -0.376 -0.561 -0.561
 0.220  0.966 -0.075 -0.304 -0.375 -0.561 -0.561
 0.222  0.967 -0.072 -0.302 -0.374 -0.560 -0.560
 0.224  0.970 -0.070 -0.301 -0.374 -0.559 -0.559
 0.226  0.971 -0.068 -0.300 -0.373 -0.559 -0.559
 0.228  0.973 -0.065 -0.299 -0.372 -0.558 -0.558
 0.230  0.975 -0.063 -0.297 -0.371 -0.557 -0.557
 0.232  0.977 -0.061 -0.296 -0.370 -0.557 -0.557
 0.234  0.979 -0.058 -0.294 -0.369 -0.556 -0.556
 0.236  0.981 -0.056 -0.293 -0.368 -0.555 -0.555
 0.238  0.983 -0.054 -0.292 -0.368 -0.555 -0.555
 0.240  0.985 -0.051 -0.291 -0.367 -0.554 -0.554
 0.242  0.986 -0.049 -0.289 -0.366 -0.554 -0.554
 0.244  0.988 -0.047 -0.288 -0.365 -0.553 -0.553
 0.246  0.990 -0.044 -0.287 -0.364 -0.552 -0.552
 0.248  0.992 -0.042 -0.285 -0.363 -0.552 -0.552
 0.250  0.993 -0.040 -0.284 -0.363 -0.551 -0.551
 0.252  0.995 -0.038 -0.283 -0.362 -0.550 -0.550
 0.254  0.997 -0.036 -0.282 -0.361 -0.549 -0.549
 0.256  0.998 -0.033 -0.281 -0.360 -0.548 -0.548
 0.258  1.000 -0.031 -0.279 -0.359 -0.548 -0.548
 0.260  1.002 -0.029 -0.278 -0.358 -0.547 -0.547
 0.262  1.003 -0.027 -0.277 -0.357 -0.546 -0.546
 0.264  1.005 -0.025 -0.276 -0.356 -0.545 -0.545
 0.266  1.007 -0.023 -0.275 -0.356 -0.545 -0.545
 0.268  1.008 -0.021 -0.274 -0.355 -0.544 -0.544
 0.270  1.009 -0.019 -0.273 -0.354 -0.543 -0.543
 0.272  1.011 -0.017 -0.272 -0.353 -0.542 -0.542
 0.274  1.013 -0.015 -0.271 -0.352 -0.541 -0.541
 0.276  1.014 -0.013 -0.270 -0.351 -0.540 -0.540
 0.278  1.015 -0.012 -0.269 -0.350 -0.540 -0.540
 0.280  1.017 -0.010 -0.268 -0.350 -0.539 -0.539
 0.282  1.018 -0.008 -0.267 -0.349 -0.538 -0.538
 0.284  1.020 -0.006 -0.266 -0.348 -0.537 -0.537
 0.286  1.021 -0.004 -0.265 -0.347 -0.536 -0.536
 0.288  1.023 -0.002 -0.264 -0.346 -0.535 -0.535
 0.290  1.024 -0.001 -0.263 -0.345 -0.534 -0.534
 0.292  1.025  0.001 -0.262 -0.344 -0.533 -0.533
 0.294  1.026  0.003 -0.261 -0.343 -0.532 -0.532
 0.296  1.028  0.004 -0.260 -0.343 -0.531 -0.531
 0.298  1.029  0.006 -0.259 -0.342 -0.530 -0.530
 0.300  1.030  0.008 -0.258 -0.341 -0.529 -0.529
 0.302  1.031  0.009 -0.257 -0.340 -0.528 -0.528
 0.304  1.033  0.011 -0.256 -0.339 -0.527 -0.527
 0.306  1.034  0.012 -0.255 -0.338 -0.526 -0.526
 0.308  1.035  0.014 -0.255 -0.337 -0.525 -0.525
 0.310  1.036  0.016 -0.253 -0.336 -0.524 -0.524
 0.312  1.038  0.017 -0.252 -0.335 -0.523 -0.523
 0.314  1.039  0.019 -0.251 -0.335 -0.522 -0.522
 0.316  1.040  0.020 -0.250 -0.334 -0.521 -0.521
 0.318  1.042  0.022 -0.249 -0.333 -0.521 -0.521
 0.320  1.043  0.023 -0.248 -0.332 -0.520 -0.520
 0.322  1.044  0.025 -0.247 -0.331 -0.519 -0.519
 0.324  1.046  0.027 -0.246 -0.331 -0.518 -0.518
 0.326  1.047  0.028 -0.245 -0.330 -0.517 -0.517
 0.328  1.048  0.030 -0.244 -0.329 -0.516 -0.516
 0.330  1.050  0.031 -0.243 -0.328 -0.515 -0.515
 0.332  1.051  0.033 -0.242 -0.327 -0.515 -0.515
 0.334  1.052  0.035 -0.241 -0.326 -0.514 -0.514
 0.336  1.053  0.036 -0.240 -0.326 -0.513 -0.513
 0.338  1.055  0.038 -0.239 -0.325 -0.512 -0.512
 0.340  1.057  0.039 -0.238 -0.324 -0.511 -0.511
 0.342  1.058  0.041 -0.237 -0.323 -0.510 -0.510
 0.344  1.059  0.043 -0.236 -0.322 -0.510 -0.510
 0.346  1.061  0.044 -0.235 -0.322 -0.509 -0.509
 0.348  1.062  0.046 -0.233 -0.321 -0.508 -0.508
 0.350  1.063  0.048 -0.232 -0.320 -0.508 -0.508
 0.352  1.065  0.049 -0.231 -0.319 -0.507 -0.507
 0.354  1.067  0.051 -0.230 -0.319 -0.506 -0.506
 0.356  1.068  0.053 -0.229 -0.318 -0.505 -0.505
 0.358  1.069  0.054 -0.228 -0.317 -0.505 -0.505
 0.360  1.071  0.056 -0.227 -0.316 -0.504 -0.504
 0.362  1.073  0.058 -0.225 -0.315 -0.503 -0.503
 0.364  1.074  0.059 -0.224 -0.315 -0.503 -0.503
 0.366  1.075  0.061 -0.223 -0.314 -0.502 -0.502
 0.368  1.077  0.062 -0.222 -0.313 -0.501 -0.501
 0.370  1.079  0.064 -0.221 -0.312 -0.501 -0.501
 0.372  1.080  0.066 -0.220 -0.312 -0.500 -0.500
 0.374  1.082  0.067 -0.218 -0.311 -0.500 -0.500
 0.376  1.083  0.069 -0.217 -0.310 -0.499 -0.499
 0.378  1.085  0.071 -0.216 -0.309 -0.498 -0.498
 0.380  1.087  0.072 -0.215 -0.309 -0.498 -0.498
 0.382  1.088  0.074 -0.214 -0.308 -0.497 -0.497
 0.384  1.089  0.076 -0.213 -0.307 -0.496 -0.496
 0.386  1.091  0.077 -0.212 -0.306 -0.496 -0.496
 0.388  1.092  0.079 -0.211 -0.305 -0.495 -0.495
 0.390  1.094  0.080 -0.209 -0.305 -0.494 -0.494
 0.392  1.095  0.082 -0.208 -0.304 -0.493 -0.493
 0.394  1.096  0.083 -0.207 -0.303 -0.493 -0.493
 0.396  1.098  0.085 -0.206 -0.302 -0.492 -0.492
 0.398  1.099  0.086 -0.205 -0.301 -0.491 -0.491
 0.400  1.101  0.088 -0.204 -0.301 -0.491 -0.491
 0.402  1.102  0.089 -0.203 -0.300 -0.490 -0.490
 0.404  1.104  0.090 -0.202 -0.299 -0.489 -0.489
 0.406  1.105  0.092 -0.201 -0.298 -0.488 -0.488
 0.408  1.106  0.093 -0.200 -0.298 -0.487 -0.487
 0.410  1.107  0.094 -0.199 -0.297 -0.487 -0.487
 0.412  1.109  0.096 -0.198 -0.296 -0.486 -0.486
 0.414  1.110  0.097 -0.197 -0.295 -0.485 -0.485
 0.416  1.111  0.098 -0.196 -0.294 -0.485 -0.485
 0.418  1.113  0.099 -0.195 -0.294 -0.484 -0.484
 0.420  1.114  0.100 -0.194 -0.293 -0.483 -0.483
 0.422  1.115  0.102 -0.193 -0.292 -0.482 -0.482
 0.424  1.116  0.103 -0.192 -0.291 -0.481 -0.481
 0.426  1.118  0.104 -0.192 -0.291 -0.480 -0.480
 0.428  1.119  0.105 -0.191 -0.290 -0.479 -0.479
 0.430  1.120  0.106 -0.190 -0.289 -0.479 -0.479
 0.432  1.121  0.107 -0.189 -0.288 -0.478 -0.478
 0.434  1.122  0.108 -0.188 -0.287 -0.477 -0.477
 0.436  1.123  0.109 -0.187 -0.287 -0.476 -0.476
 0.438  1.125  0.110 -0.186 -0.286 -0.475 -0.475
 0.440  1.126  0.111 -0.185 -0.285 -0.474 -0.474
 0.442  1.127  0.112 -0.185 -0.284 -0.473 -0.473
 0.444  1.128  0.113 -0.184 -0.283 -0.472 -0.472
 0.446  1.129  0.114 -0.183 -0.283 -0.472 -0.472
 0.448  1.130  0.115 -0.182 -0.282 -0.471 -0.471
 0.450  1.131  0.116 -0.181 -0.281 -0.470 -0.470
 0.452  1.132  0.117 -0.180 -0.281 -0.469 -0.469
 0.454  1.133  0.118 -0.180 -0.280 -0.468 -0.468
 0.456  1.134  0.119 -0.179 -0.279 -0.467 -0.467
 0.458  1.136  0.119 -0.178 -0.278 -0.467 -0.467
 0.460  1.137  0.120 -0.178 -0.278 -0.466 -0.466
 0.462  1.138  0.121 -0.177 -0.277 -0.465 -0.465
 0.464  1.138  0.122 -0.176 -0.276 -0.464 -0.464
 0.466  1.139  0.123 -0.176 -0.276 -0.464 -0.464
 0.468  1.141  0.124 -0.175 -0.275 -0.463 -0.463
 0.470  1.142  0.125 -0.174 -0.274 -0.462 -0.462
 0.472  1.142  0.126 -0.173 -0.273 -0.461 -0.461
 0.474  1.143  0.126 -0.173 -0.273 -0.460 -0.460
 0.476  1.144  0.127 -0.172 -0.272 -0.460 -0.460
 0.478  1.145  0.128 -0.172 -0.271 -0.459 -0.459
 0.480  1.146  0.129 -0.171 -0.271 -0.458 -0.458
 0.482  1.147  0.130 -0.170 -0.270 -0.458 -0.458
 0.484  1.148  0.131 -0.170 -0.270 -0.457 -0.457
 0.486  1.149  0.132 -0.169 -0.269 -0.456 -0.456
 0.488  1.150  0.132 -0.169 -0.269 -0.456 -0.456
 0.490  1.150  0.133 -0.168 -0.268 -0.455 -0.455
 0.492  1.152  0.134 -0.168 -0.267 -0.455 -0.455
 0.494  1.152  0.135 -0.167 -0.267 -0.454 -0.454
 0.496  1.153  0.136 -0.166 -0.266 -0.453 -0.453
 0.498  1.154  0.137 -0.166 -0.266 -0.453 -0.453
 0.500  1.155  0.137 -0.166 -0.265 -0.452 -0.452
 0.502  1.156  0.138 -0.165 -0.265 -0.451 -0.451
 0.504  1.157  0.139 -0.165 -0.264 -0.451 -0.451
 0.506  1.157  0.140 -0.164 -0.264 -0.451 -0.451
 0.508  1.158  0.141 -0.164 -0.263 -0.450 -0.450
 0.510  1.159  0.142 -0.163 -0.262 -0.449 -0.449
 0.512  1.160  0.143 -0.163 -0.262 -0.449 -0.449
 0.514  1.160  0.144 -0.163 -0.261 -0.448 -0.448
 0.516  1.161  0.145 -0.162 -0.261 -0.448 -0.448
 0.518  1.162  0.145 -0.162 -0.260 -0.447 -0.447
 0.520  1.163  0.146 -0.161 -0.260 -0.447 -0.447
 0.522  1.163  0.147 -0.161 -0.260 -0.447 -0.447
 0.524  1.164  0.148 -0.161 -0.259 -0.446 -0.446
 0.526  1.165  0.148 -0.160 -0.258 -0.445 -0.445
 0.528  1.165  0.149 -0.160 -0.258 -0.445 -0.445
 0.530  1.166  0.150 -0.159 -0.257 -0.445 -0.445
 0.532  1.166  0.150 -0.159 -0.257 -0.444 -0.444
 0.534  1.167  0.151 -0.158 -0.256 -0.444 -0.444
 0.536  1.167  0.151 -0.158 -0.256 -0.443 -0.443
 0.538  1.168  0.152 -0.158 -0.255 -0.443 -0.443
 0.540  1.168  0.152 -0.157 -0.255 -0.442 -0.442
 0.542  1.169  0.153 -0.157 -0.254 -0.442 -0.442
 0.544  1.169  0.153 -0.156 -0.254 -0.441 -0.441
 0.546  1.169  0.153 -0.156 -0.253 -0.441 -0.441
 0.548  1.170  0.154 -0.156 -0.253 -0.441 -0.441
 0.550  1.170  0.154 -0.155 -0.252 -0.440 -0.440
 0.552  1.170  0.154 -0.155 -0.252 -0.440 -0.440
 0.554  1.170  0.154 -0.155 -0.251 -0.439 -0.439
 0.556  1.170  0.155 -0.154 -0.251 -0.438 -0.438
 0.558  1.171  0.155 -0.154 -0.250 -0.438 -0.438
 0.560  1.171  0.155 -0.154 -0.250 -0.438 -0.438
 0.562  1.171  0.155 -0.153 -0.249 -0.437 -0.437
 0.564  1.171  0.155 -0.153 -0.249 -0.437 -0.437
 0.566  1.171  0.155 -0.153 -0.248 -0.436 -0.436
 0.568  1.171  0.155 -0.152 -0.248 -0.436 -0.436
 0.570  1.171  0.155 -0.152 -0.247 -0.436 -0.436
 0.572  1.171  0.155 -0.151 -0.247 -0.435 -0.435
 0.574  1.171  0.155 -0.151 -0.246 -0.435 -0.435
 0.576  1.171  0.155 -0.151 -0.246 -0.434 -0.434
 0.578  1.171  0.154 -0.150 -0.245 -0.434 -0.434
 0.580  1.171  0.154 -0.150 -0.245 -0.434 -0.434
 0.582  1.171  0.154 -0.150 -0.244 -0.433 -0.433
 0.584  1.171  0.153 -0.149 -0.244 -0.433 -0.433
 0.586  1.170  0.153 -0.149 -0.243 -0.432 -0.432
 0.588  1.170  0.153 -0.149 -0.243 -0.432 -0.432
 0.590  1.170  0.153 -0.148 -0.242 -0.432 -0.432
 0.592  1.170  0.152 -0.148 -0.242 -0.431 -0.431
 0.594  1.170  0.152 -0.147 -0.241 -0.431 -0.431
 0.596  1.170  0.152 -0.147 -0.241 -0.430 -0.430
 0.598  1.169  0.151 -0.147 -0.241 -0.430 -0.430
 0.600  1.169  0.151 -0.146 -0.240 -0.430 -0.430
 0.602  1.169  0.151 -0.146 -0.240 -0.429 -0.429
 0.604  1.169  0.151 -0.146 -0.240 -0.429 -0.429
 0.606  1.169  0.150 -0.145 -0.239 -0.428 -0.428
 0.608  1.169  0.150 -0.145 -0.239 -0.428 -0.428
 0.610  1.168  0.150 -0.144 -0.239 -0.428 -0.428
 0.612  1.168  0.150 -0.144 -0.239 -0.427 -0.427
 0.614  1.168  0.150 -0.143 -0.238 -0.427 -0.427
 0.616  1.168  0.150 -0.143 -0.238 -0.426 -0.426
 0.618  1.168  0.150 -0.143 -0.238 -0.426 -0.426
 0.620  1.168  0.150 -0.142 -0.238 -0.426 -0.426
 0.622  1.168  0.150 -0.142 -0.237 -0.425 -0.425
 0.624  1.168  0.150 -0.141 -0.237 -0.425 -0.425
 0.626  1.168  0.151 -0.141 -0.237 -0.424 -0.424
 0.628  1.167  0.151 -0.140 -0.237 -0.424 -0.424
 0.630  1.167  0.151 -0.140 -0.236 -0.424 -0.424
 0.632  1.167  0.151 -0.140 -0.236 -0.423 -0.423
 0.634  1.167  0.152 -0.139 -0.236 -0.423 -0.423
 0.636  1.167  0.152 -0.139 -0.236 -0.422 -0.422
 0.638  1.167  0.152 -0.138 -0.236 -0.422 -0.422
 0.640  1.167  0.153 -0.138 -0.236 -0.422 -0.422
 0.642  1.167  0.153 -0.137 -0.236 -0.421 -0.421
 0.644  1.167  0.154 -0.137 -0.236 -0.421 -0.421
 0.646  1.166  0.154 -0.136 -0.236 -0.420 -0.420
 0.648  1.166  0.155 -0.136 -0.235 -0.420 -0.420
 0.650  1.166  0.155 -0.135 -0.235 -0.419 -0.419
 0.652  1.166  0.156 -0.135 -0.235 -0.419 -0.419
 0.654  1.166  0.157 -0.134 -0.235 -0.419 -0.419
 0.656  1.166  0.157 -0.134 -0.235 -0.418 -0.418
 0.658  1.166  0.158 -0.133 -0.235 -0.418 -0.418
 0.660  1.166  0.159 -0.132 -0.235 -0.417 -0.417
 0.662  1.166  0.159 -0.132 -0.235 -0.417 -0.417
 0.664  1.167  0.160 -0.131 -0.234 -0.416 -0.416
 0.666  1.167  0.161 -0.130 -0.234 -0.416 -0.416
 0.668  1.167  0.162 -0.129 -0.234 -0.415 -0.415
 0.670  1.166  0.162 -0.129 -0.234 -0.415 -0.415
 0.672  1.166  0.163 -0.128 -0.233 -0.415 -0.415
 0.674  1.166  0.164 -0.127 -0.233 -0.414 -0.414
 0.676  1.166  0.164 -0.126 -0.233 -0.414 -0.414
 0.678  1.166  0.165 -0.125 -0.232 -0.413 -0.413
 0.680  1.166  0.166 -0.124 -0.232 -0.413 -0.413
 0.682  1.166  0.167 -0.124 -0.232 -0.412 -0.412
 0.684  1.166  0.167 -0.122 -0.231 -0.412 -0.412
 0.686  1.166  0.168 -0.121 -0.231 -0.411 -0.411
 0.688  1.166  0.168 -0.120 -0.230 -0.411 -0.411
 0.690  1.166  0.169 -0.119 -0.230 -0.410 -0.410
 0.692  1.166  0.170 -0.118 -0.229 -0.410 -0.410
 0.694  1.166  0.170 -0.117 -0.229 -0.409 -0.409
 0.696  1.166  0.171 -0.116 -0.228 -0.409 -0.409
 0.698  1.166  0.171 -0.114 -0.228 -0.409 -0.409
 0.700  1.165  0.172 -0.113 -0.227 -0.408 -0.408
 0.702  1.165  0.173 -0.112 -0.227 -0.407 -0.407
 0.704  1.165  0.173 -0.111 -0.226 -0.407 -0.407
 0.706  1.165  0.174 -0.110 -0.225 -0.407 -0.407
 0.708  1.165  0.174 -0.108 -0.225 -0.406 -0.406
 0.710  1.165  0.175 -0.107 -0.224 -0.405 -0.405
 0.712  1.165  0.175 -0.105 -0.223 -0.405 -0.405
 0.714  1.164  0.176 -0.104 -0.223 -0.405 -0.405
 0.716  1.164  0.176 -0.102 -0.222 -0.404 -0.404
 0.718  1.164  0.177 -0.101 -0.221 -0.403 -0.403
 0.720  1.164  0.178 -0.099 -0.220 -0.403 -0.403
 0.722  1.164  0.178 -0.098 -0.219 -0.402 -0.402
 0.724  1.163  0.178 -0.096 -0.219 -0.402 -0.402
 0.726  1.163  0.179 -0.095 -0.218 -0.401 -0.401
 0.728  1.163  0.179 -0.093 -0.217 -0.401 -0.401
 0.730  1.163  0.180 -0.092 -0.216 -0.400 -0.400
 0.732  1.163  0.180 -0.091 -0.215 -0.400 -0.400
 0.734  1.163  0.181 -0.090 -0.214 -0.399 -0.399
 0.736  1.163  0.181 -0.089 -0.213 -0.398 -0.398
 0.738  1.163  0.181 -0.088 -0.212 -0.398 -0.398
 0.740  1.163  0.181 -0.086 -0.211 -0.397 -0.397
 0.742  1.163  0.182 -0.086 -0.209 -0.396 -0.396
 0.744  1.163  0.182 -0.085 -0.208 -0.396 -0.396
 0.746  1.164  0.182 -0.084 -0.207 -0.395 -0.395
 0.748  1.164  0.182 -0.083 -0.206 -0.394 -0.394
 0.750  1.164  0.182 -0.082 -0.204 -0.394 -0.394
 0.752  1.165  0.182 -0.082 -0.203 -0.393 -0.393
 0.754  1.166  0.181 -0.081 -0.202 -0.392 -0.392
 0.756  1.166  0.181 -0.081 -0.200 -0.392 -0.392
 0.758  1.168  0.181 -0.080 -0.199 -0.391 -0.391
 0.760  1.169  0.180 -0.080 -0.198 -0.390 -0.390
 0.762  1.170  0.180 -0.079 -0.196 -0.389 -0.389
 0.764  1.171  0.180 -0.079 -0.195 -0.388 -0.388
 0.766  1.172  0.179 -0.079 -0.193 -0.388 -0.388
 0.768  1.174  0.178 -0.079 -0.191 -0.387 -0.387
 0.770  1.175  0.178 -0.078 -0.189 -0.386 -0.386
 0.772  1.176  0.177 -0.078 -0.188 -0.385 -0.385
 0.774  1.178  0.176 -0.078 -0.186 -0.384 -0.384
 0.776  1.180  0.175 -0.078 -0.184 -0.383 -0.383
 0.778  1.181  0.174 -0.078 -0.182 -0.382 -0.382
 0.780  1.183  0.173 -0.079 -0.180 -0.381 -0.381
 0.782  1.185  0.172 -0.079 -0.178 -0.380 -0.380
 0.784  1.187  0.171 -0.079 -0.176 -0.379 -0.379
 0.786  1.189  0.170 -0.079 -0.174 -0.378 -0.378
 0.788  1.191  0.169 -0.080 -0.172 -0.377 -0.377
 0.790  1.194  0.167 -0.081 -0.170 -0.376 -0.376
 0.792  1.196  0.166 -0.081 -0.168 -0.375 -0.375
 0.794  1.199  0.165 -0.082 -0.167 -0.374 -0.374
 0.796  1.202  0.163 -0.083 -0.165 -0.373 -0.373
 0.798  1.204  0.162 -0.084 -0.163 -0.372 -0.372
 0.800  1.207  0.160 -0.085 -0.162 -0.371 -0.371
 0.802  1.209  0.159 -0.086 -0.160 -0.370 -0.370
 0.804  1.212  0.157 -0.087 -0.159 -0.370 -0.370
 0.806  1.214  0.155 -0.089 -0.158 -0.369 -0.369
 0.808  1.217  0.153 -0.090 -0.157 -0.369 -0.369
