# IsPeriodic    : True
# Period        : 0.469270 days
# Normalization : <g_mag>=0
# 
# Phase u_mag  g_mag  r_mag  i_mag  z_mag  y_mag
 0.000  0.119 -1.026 -0.821 -0.668 -0.574 -0.574
 0.002  0.119 -1.026 -0.821 -0.668 -0.574 -0.574
 0.004  0.122 -1.025 -0.821 -0.667 -0.573 -0.573
 0.006  0.125 -1.023 -0.820 -0.665 -0.573 -0.573
 0.008  0.130 -1.020 -0.818 -0.664 -0.572 -0.572
 0.010  0.136 -1.017 -0.816 -0.661 -0.570 -0.570
 0.012  0.142 -1.013 -0.814 -0.657 -0.569 -0.569
 0.014  0.152 -1.008 -0.812 -0.654 -0.567 -0.567
 0.016  0.160 -1.004 -0.809 -0.650 -0.565 -0.565
 0.018  0.170 -0.998 -0.807 -0.646 -0.563 -0.563
 0.020  0.180 -0.992 -0.804 -0.642 -0.561 -0.561
 0.022  0.191 -0.986 -0.801 -0.637 -0.558 -0.558
 0.024  0.200 -0.980 -0.798 -0.633 -0.556 -0.556
 0.026  0.211 -0.974 -0.795 -0.628 -0.553 -0.553
 0.028  0.222 -0.968 -0.791 -0.624 -0.550 -0.550
 0.030  0.231 -0.960 -0.788 -0.620 -0.548 -0.548
 0.032  0.242 -0.954 -0.783 -0.616 -0.545 -0.545
 0.034  0.252 -0.948 -0.780 -0.612 -0.543 -0.543
 0.036  0.261 -0.941 -0.775 -0.608 -0.540 -0.540
 0.038  0.270 -0.935 -0.771 -0.604 -0.537 -0.537
 0.040  0.280 -0.927 -0.767 -0.600 -0.535 -0.535
 0.042  0.291 -0.920 -0.762 -0.596 -0.532 -0.532
 0.044  0.300 -0.912 -0.757 -0.591 -0.528 -0.528
 0.046  0.310 -0.904 -0.752 -0.588 -0.526 -0.526
 0.048  0.319 -0.897 -0.747 -0.583 -0.523 -0.523
 0.050  0.328 -0.889 -0.741 -0.579 -0.519 -0.519
 0.052  0.338 -0.880 -0.735 -0.575 -0.515 -0.515
 0.054  0.347 -0.871 -0.730 -0.570 -0.512 -0.512
 0.056  0.358 -0.862 -0.723 -0.566 -0.508 -0.508
 0.058  0.367 -0.853 -0.717 -0.561 -0.505 -0.505
 0.060  0.377 -0.844 -0.710 -0.557 -0.501 -0.501
 0.062  0.386 -0.834 -0.704 -0.552 -0.497 -0.497
 0.064  0.395 -0.825 -0.697 -0.547 -0.493 -0.493
 0.066  0.405 -0.814 -0.690 -0.543 -0.489 -0.489
 0.068  0.414 -0.804 -0.683 -0.538 -0.485 -0.485
 0.070  0.424 -0.793 -0.675 -0.533 -0.481 -0.481
 0.072  0.433 -0.783 -0.668 -0.529 -0.476 -0.476
 0.074  0.442 -0.772 -0.660 -0.524 -0.472 -0.472
 0.076  0.452 -0.761 -0.653 -0.519 -0.468 -0.468
 0.078  0.461 -0.751 -0.646 -0.515 -0.463 -0.463
 0.080  0.471 -0.740 -0.639 -0.510 -0.459 -0.459
 0.082  0.478 -0.730 -0.631 -0.506 -0.455 -0.455
 0.084  0.488 -0.719 -0.623 -0.501 -0.450 -0.450
 0.086  0.497 -0.709 -0.616 -0.496 -0.446 -0.446
 0.088  0.506 -0.698 -0.609 -0.492 -0.442 -0.442
 0.090  0.514 -0.688 -0.602 -0.487 -0.438 -0.438
 0.092  0.524 -0.677 -0.595 -0.482 -0.434 -0.434
 0.094  0.533 -0.667 -0.589 -0.478 -0.430 -0.430
 0.096  0.541 -0.658 -0.582 -0.473 -0.426 -0.426
 0.098  0.550 -0.647 -0.575 -0.469 -0.422 -0.422
 0.100  0.558 -0.638 -0.568 -0.464 -0.419 -0.419
 0.102  0.567 -0.627 -0.562 -0.460 -0.415 -0.415
 0.104  0.575 -0.618 -0.556 -0.456 -0.412 -0.412
 0.106  0.583 -0.609 -0.550 -0.451 -0.408 -0.408
 0.108  0.592 -0.600 -0.544 -0.448 -0.404 -0.404
 0.110  0.600 -0.591 -0.537 -0.443 -0.400 -0.400
 0.112  0.608 -0.582 -0.532 -0.439 -0.397 -0.397
 0.114  0.616 -0.575 -0.526 -0.435 -0.394 -0.394
 0.116  0.624 -0.566 -0.520 -0.431 -0.391 -0.391
 0.118  0.631 -0.558 -0.515 -0.427 -0.387 -0.387
 0.120  0.639 -0.549 -0.509 -0.423 -0.384 -0.384
 0.122  0.647 -0.542 -0.503 -0.419 -0.381 -0.381
 0.124  0.653 -0.534 -0.498 -0.416 -0.378 -0.378
 0.126  0.661 -0.527 -0.493 -0.411 -0.374 -0.374
 0.128  0.669 -0.519 -0.487 -0.408 -0.372 -0.372
 0.130  0.675 -0.511 -0.483 -0.404 -0.369 -0.369
 0.132  0.683 -0.504 -0.478 -0.401 -0.366 -0.366
 0.134  0.689 -0.496 -0.474 -0.397 -0.363 -0.363
 0.136  0.697 -0.490 -0.468 -0.394 -0.361 -0.361
 0.138  0.703 -0.483 -0.464 -0.390 -0.358 -0.358
 0.140  0.711 -0.477 -0.459 -0.387 -0.355 -0.355
 0.142  0.717 -0.471 -0.456 -0.383 -0.353 -0.353
 0.144  0.724 -0.463 -0.451 -0.380 -0.350 -0.350
 0.146  0.730 -0.457 -0.446 -0.376 -0.348 -0.348
 0.148  0.736 -0.451 -0.442 -0.374 -0.346 -0.346
 0.150  0.742 -0.445 -0.437 -0.370 -0.343 -0.343
 0.152  0.749 -0.439 -0.434 -0.366 -0.341 -0.341
 0.154  0.755 -0.433 -0.429 -0.364 -0.338 -0.338
 0.156  0.761 -0.427 -0.425 -0.360 -0.336 -0.336
 0.158  0.767 -0.421 -0.421 -0.358 -0.333 -0.333
 0.160  0.774 -0.417 -0.417 -0.354 -0.331 -0.331
 0.162  0.778 -0.411 -0.412 -0.351 -0.329 -0.329
 0.164  0.785 -0.405 -0.409 -0.349 -0.326 -0.326
 0.166  0.791 -0.398 -0.404 -0.345 -0.324 -0.324
 0.168  0.797 -0.392 -0.401 -0.343 -0.321 -0.321
 0.170  0.802 -0.386 -0.396 -0.340 -0.319 -0.319
 0.172  0.808 -0.380 -0.392 -0.336 -0.317 -0.317
 0.174  0.814 -0.374 -0.388 -0.334 -0.314 -0.314
 0.176  0.821 -0.368 -0.384 -0.331 -0.312 -0.312
 0.178  0.825 -0.362 -0.380 -0.328 -0.309 -0.309
 0.180  0.831 -0.356 -0.376 -0.325 -0.307 -0.307
 0.182  0.838 -0.350 -0.371 -0.322 -0.304 -0.304
 0.184  0.842 -0.344 -0.368 -0.320 -0.302 -0.302
 0.186  0.849 -0.338 -0.363 -0.317 -0.300 -0.300
 0.188  0.855 -0.331 -0.360 -0.314 -0.297 -0.297
 0.190  0.860 -0.325 -0.355 -0.311 -0.295 -0.295
 0.192  0.866 -0.319 -0.352 -0.308 -0.293 -0.293
 0.194  0.871 -0.313 -0.347 -0.306 -0.291 -0.291
 0.196  0.877 -0.307 -0.344 -0.303 -0.288 -0.288
 0.198  0.883 -0.301 -0.341 -0.300 -0.286 -0.286
 0.200  0.888 -0.295 -0.336 -0.298 -0.283 -0.283
 0.202  0.894 -0.289 -0.333 -0.295 -0.281 -0.281
 0.204  0.899 -0.283 -0.328 -0.292 -0.279 -0.279
 0.206  0.905 -0.275 -0.325 -0.290 -0.276 -0.276
 0.208  0.911 -0.269 -0.321 -0.287 -0.274 -0.274
 0.210  0.916 -0.263 -0.317 -0.284 -0.271 -0.271
 0.212  0.922 -0.257 -0.313 -0.283 -0.269 -0.269
 0.214  0.927 -0.249 -0.309 -0.280 -0.267 -0.267
 0.216  0.933 -0.243 -0.305 -0.277 -0.264 -0.264
 0.218  0.938 -0.237 -0.302 -0.275 -0.262 -0.262
 0.220  0.944 -0.231 -0.297 -0.272 -0.259 -0.259
 0.222  0.949 -0.224 -0.294 -0.270 -0.257 -0.257
 0.224  0.955 -0.218 -0.291 -0.268 -0.255 -0.255
 0.226  0.960 -0.212 -0.287 -0.265 -0.252 -0.252
 0.228  0.966 -0.206 -0.283 -0.263 -0.250 -0.250
 0.230  0.971 -0.200 -0.279 -0.261 -0.248 -0.248
 0.232  0.977 -0.194 -0.276 -0.258 -0.246 -0.246
 0.234  0.981 -0.188 -0.272 -0.256 -0.243 -0.243
 0.236  0.986 -0.182 -0.269 -0.254 -0.241 -0.241
 0.238  0.992 -0.176 -0.266 -0.251 -0.238 -0.238
 0.240  0.997 -0.170 -0.262 -0.249 -0.237 -0.237
 0.242  1.002 -0.164 -0.258 -0.247 -0.234 -0.234
 0.244  1.008 -0.158 -0.254 -0.244 -0.232 -0.232
 0.246  1.013 -0.152 -0.251 -0.242 -0.230 -0.230
 0.248  1.017 -0.147 -0.247 -0.239 -0.228 -0.228
 0.250  1.022 -0.141 -0.244 -0.237 -0.226 -0.226
 0.252  1.027 -0.135 -0.241 -0.235 -0.223 -0.223
 0.254  1.031 -0.130 -0.237 -0.232 -0.221 -0.221
 0.256  1.036 -0.124 -0.235 -0.231 -0.219 -0.219
 0.258  1.041 -0.118 -0.231 -0.228 -0.217 -0.217
 0.260  1.046 -0.114 -0.228 -0.225 -0.215 -0.215
 0.262  1.050 -0.108 -0.225 -0.224 -0.213 -0.213
 0.264  1.055 -0.103 -0.221 -0.221 -0.211 -0.211
 0.266  1.060 -0.099 -0.218 -0.218 -0.209 -0.209
 0.268  1.064 -0.093 -0.214 -0.217 -0.207 -0.207
 0.270  1.067 -0.088 -0.212 -0.214 -0.205 -0.205
 0.272  1.072 -0.084 -0.209 -0.212 -0.203 -0.203
 0.274  1.077 -0.078 -0.205 -0.209 -0.201 -0.201
 0.276  1.081 -0.073 -0.202 -0.208 -0.199 -0.199
 0.278  1.085 -0.069 -0.200 -0.205 -0.197 -0.197
 0.280  1.089 -0.064 -0.196 -0.202 -0.195 -0.195
 0.282  1.092 -0.060 -0.193 -0.201 -0.193 -0.193
 0.284  1.097 -0.055 -0.190 -0.198 -0.191 -0.191
 0.286  1.102 -0.051 -0.187 -0.196 -0.189 -0.189
 0.288  1.105 -0.046 -0.184 -0.194 -0.187 -0.187
 0.290  1.108 -0.042 -0.181 -0.192 -0.185 -0.185
 0.292  1.113 -0.037 -0.178 -0.189 -0.183 -0.183
 0.294  1.116 -0.033 -0.176 -0.187 -0.181 -0.181
 0.296  1.119 -0.028 -0.172 -0.185 -0.180 -0.180
 0.298  1.124 -0.024 -0.170 -0.182 -0.177 -0.177
 0.300  1.127 -0.019 -0.167 -0.180 -0.176 -0.176
 0.302  1.130 -0.014 -0.163 -0.178 -0.174 -0.174
 0.304  1.135 -0.011 -0.161 -0.176 -0.172 -0.172
 0.306  1.138 -0.007 -0.157 -0.173 -0.170 -0.170
 0.308  1.141 -0.002 -0.155 -0.172 -0.168 -0.168
 0.310  1.144  0.002 -0.152 -0.169 -0.166 -0.166
 0.312  1.149  0.007 -0.150 -0.167 -0.164 -0.164
 0.314  1.152  0.010 -0.146 -0.164 -0.163 -0.163
 0.316  1.155  0.014 -0.143 -0.162 -0.160 -0.160
 0.318  1.160  0.019 -0.140 -0.160 -0.159 -0.159
 0.320  1.163  0.023 -0.137 -0.157 -0.157 -0.157
 0.322  1.166  0.028 -0.135 -0.156 -0.155 -0.155
 0.324  1.171  0.032 -0.131 -0.153 -0.153 -0.153
 0.326  1.174  0.035 -0.128 -0.150 -0.151 -0.151
 0.328  1.178  0.040 -0.126 -0.149 -0.149 -0.149
 0.330  1.182  0.044 -0.122 -0.146 -0.147 -0.147
 0.332  1.186  0.049 -0.120 -0.144 -0.146 -0.146
 0.334  1.189  0.052 -0.117 -0.142 -0.144 -0.144
 0.336  1.192  0.056 -0.114 -0.139 -0.142 -0.142
 0.338  1.197  0.061 -0.111 -0.137 -0.140 -0.140
 0.340  1.202  0.065 -0.109 -0.135 -0.139 -0.139
 0.342  1.205  0.070 -0.105 -0.133 -0.136 -0.136
 0.344  1.210  0.073 -0.102 -0.130 -0.135 -0.135
 0.346  1.213  0.077 -0.099 -0.127 -0.133 -0.133
 0.348  1.217  0.082 -0.096 -0.126 -0.130 -0.130
 0.350  1.221  0.085 -0.094 -0.123 -0.129 -0.129
 0.352  1.225  0.089 -0.090 -0.120 -0.127 -0.127
 0.354  1.230  0.094 -0.088 -0.119 -0.125 -0.125
 0.356  1.233  0.098 -0.085 -0.116 -0.123 -0.123
 0.358  1.238  0.101 -0.081 -0.113 -0.122 -0.122
 0.360  1.242  0.106 -0.079 -0.112 -0.120 -0.120
 0.362  1.247  0.111 -0.076 -0.109 -0.118 -0.118
 0.364  1.250  0.114 -0.073 -0.106 -0.116 -0.116
 0.366  1.255  0.118 -0.070 -0.104 -0.114 -0.114
 0.368  1.260  0.123 -0.068 -0.102 -0.112 -0.112
 0.370  1.264  0.127 -0.064 -0.099 -0.110 -0.110
 0.372  1.267  0.130 -0.062 -0.097 -0.109 -0.109
 0.374  1.272  0.135 -0.059 -0.095 -0.106 -0.106
 0.376  1.277  0.139 -0.056 -0.092 -0.105 -0.105
 0.378  1.282  0.142 -0.053 -0.090 -0.102 -0.102
 0.380  1.286  0.147 -0.051 -0.088 -0.101 -0.101
 0.382  1.289  0.151 -0.047 -0.085 -0.099 -0.099
 0.384  1.294  0.156 -0.045 -0.083 -0.097 -0.097
 0.386  1.299  0.159 -0.041 -0.081 -0.095 -0.095
 0.388  1.302  0.163 -0.039 -0.078 -0.093 -0.093
 0.390  1.307  0.168 -0.036 -0.076 -0.091 -0.091
 0.392  1.311  0.172 -0.033 -0.074 -0.089 -0.089
 0.394  1.314  0.175 -0.030 -0.072 -0.087 -0.087
 0.396  1.319  0.180 -0.028 -0.069 -0.085 -0.085
 0.398  1.322  0.184 -0.024 -0.067 -0.083 -0.083
 0.400  1.327  0.187 -0.022 -0.065 -0.081 -0.081
 0.402  1.330  0.192 -0.019 -0.062 -0.079 -0.079
 0.404  1.335  0.196 -0.016 -0.060 -0.077 -0.077
 0.406  1.338  0.201 -0.013 -0.058 -0.075 -0.075
 0.408  1.342  0.204 -0.011 -0.056 -0.073 -0.073
 0.410  1.346  0.208 -0.007 -0.053 -0.070 -0.070
 0.412  1.350  0.213 -0.005 -0.052 -0.068 -0.068
 0.414  1.353  0.217 -0.002 -0.049 -0.066 -0.066
 0.416  1.357  0.220  0.001 -0.047 -0.064 -0.064
 0.418  1.361  0.225  0.003 -0.045 -0.062 -0.062
 0.420  1.364  0.229  0.006 -0.043 -0.060 -0.060
 0.422  1.367  0.234  0.009 -0.041 -0.058 -0.058
 0.424  1.371  0.239  0.012 -0.038 -0.056 -0.056
 0.426  1.375  0.242  0.014 -0.037 -0.053 -0.053
 0.428  1.378  0.246  0.018 -0.034 -0.052 -0.052
 0.430  1.382  0.251  0.020 -0.032 -0.049 -0.049
 0.432  1.385  0.255  0.022 -0.030 -0.047 -0.047
 0.434  1.388  0.258  0.026 -0.028 -0.045 -0.045
 0.436  1.391  0.263  0.028 -0.026 -0.043 -0.043
 0.438  1.394  0.267  0.031 -0.023 -0.040 -0.040
 0.440  1.397  0.272  0.034 -0.022 -0.039 -0.039
 0.442  1.400  0.275  0.036 -0.020 -0.036 -0.036
 0.444  1.403  0.279  0.039 -0.017 -0.034 -0.034
 0.446  1.407  0.282  0.042 -0.015 -0.032 -0.032
 0.448  1.410  0.287  0.044 -0.014 -0.030 -0.030
 0.450  1.413  0.290  0.046 -0.011 -0.028 -0.028
 0.452  1.416  0.294  0.050 -0.009 -0.026 -0.026
 0.454  1.419  0.297  0.052 -0.008 -0.024 -0.024
 0.456  1.422  0.300  0.054 -0.005 -0.022 -0.022
 0.458  1.425  0.305  0.056 -0.003 -0.020 -0.020
 0.460  1.428  0.308  0.060 -0.001 -0.018 -0.018
 0.462  1.432  0.311  0.062  0.001 -0.016 -0.016
 0.464  1.433  0.314  0.064  0.003 -0.015 -0.015
 0.466  1.436  0.317  0.067  0.005 -0.012 -0.012
 0.468  1.439  0.320  0.069  0.007 -0.011 -0.011
 0.470  1.442  0.323  0.071  0.009 -0.009 -0.009
 0.472  1.444  0.326  0.075  0.011 -0.006 -0.006
 0.474  1.447  0.329  0.077  0.013 -0.005 -0.005
 0.476  1.450  0.332  0.079  0.015 -0.003 -0.003
 0.478  1.453  0.335  0.081  0.017 -0.002 -0.002
 0.480  1.455  0.336  0.084  0.019  0.001  0.001
 0.482  1.458  0.339  0.086  0.021  0.002  0.002
 0.484  1.461  0.342  0.088  0.023  0.004  0.004
 0.486  1.463  0.344  0.091  0.025  0.006  0.006
 0.488  1.466  0.347  0.093  0.027  0.007  0.007
 0.490  1.467  0.348  0.095  0.030  0.009  0.009
 0.492  1.471  0.351  0.097  0.031  0.010  0.010
 0.494  1.472  0.353  0.100  0.033  0.012  0.012
 0.496  1.475  0.354  0.102  0.035  0.014  0.014
 0.498  1.478  0.357  0.104  0.037  0.015  0.015
 0.500  1.480  0.359  0.106  0.039  0.017  0.017
 0.502  1.483  0.361  0.109  0.041  0.018  0.018
 0.504  1.485  0.362  0.111  0.044  0.020  0.020
 0.506  1.486  0.364  0.113  0.045  0.022  0.022
 0.508  1.489  0.365  0.114  0.047  0.023  0.023
 0.510  1.491  0.367  0.117  0.049  0.024  0.024
 0.512  1.494  0.368  0.119  0.051  0.026  0.026
 0.514  1.496  0.370  0.121  0.052  0.027  0.027
 0.516  1.497  0.371  0.122  0.055  0.029  0.029
 0.518  1.500  0.373  0.125  0.057  0.031  0.031
 0.520  1.502  0.374  0.127  0.059  0.031  0.031
 0.522  1.503  0.376  0.128  0.060  0.033  0.033
 0.524  1.505  0.377  0.130  0.061  0.035  0.035
 0.526  1.508  0.379  0.131  0.063  0.035  0.035
 0.528  1.510  0.380  0.134  0.065  0.037  0.037
 0.530  1.511  0.380  0.135  0.067  0.038  0.038
 0.532  1.513  0.382  0.137  0.068  0.039  0.039
 0.534  1.514  0.383  0.138  0.069  0.041  0.041
 0.536  1.514  0.385  0.141  0.071  0.042  0.042
 0.538  1.516  0.385  0.142  0.072  0.043  0.043
 0.540  1.517  0.386  0.143  0.073  0.044  0.044
 0.542  1.519  0.388  0.145  0.075  0.046  0.046
 0.544  1.519  0.388  0.146  0.075  0.047  0.047
 0.546  1.521  0.389  0.147  0.076  0.047  0.047
 0.548  1.522  0.389  0.149  0.078  0.049  0.049
 0.550  1.522  0.391  0.150  0.079  0.050  0.050
 0.552  1.524  0.391  0.152  0.080  0.051  0.051
 0.554  1.524  0.392  0.153  0.081  0.052  0.052
 0.556  1.524  0.392  0.154  0.082  0.053  0.053
 0.558  1.525  0.394  0.155  0.082  0.054  0.054
 0.560  1.525  0.394  0.156  0.083  0.056  0.056
 0.562  1.525  0.394  0.158  0.083  0.056  0.056
 0.564  1.527  0.395  0.159  0.084  0.057  0.057
 0.566  1.527  0.395  0.160  0.085  0.058  0.058
 0.568  1.527  0.395  0.161  0.086  0.059  0.059
 0.570  1.527  0.397  0.161  0.086  0.060  0.060
 0.572  1.527  0.397  0.162  0.087  0.061  0.061
 0.574  1.527  0.397  0.163  0.087  0.062  0.062
 0.576  1.527  0.397  0.164  0.087  0.063  0.063
 0.578  1.525  0.397  0.164  0.088  0.064  0.064
 0.580  1.525  0.398  0.166  0.088  0.064  0.064
 0.582  1.525  0.398  0.167  0.088  0.065  0.065
 0.584  1.525  0.398  0.167  0.089  0.066  0.066
 0.586  1.524  0.398  0.168  0.089  0.067  0.067
 0.588  1.524  0.398  0.168  0.089  0.068  0.068
 0.590  1.524  0.398  0.169  0.089  0.068  0.068
 0.592  1.522  0.398  0.169  0.089  0.069  0.069
 0.594  1.522  0.398  0.170  0.089  0.070  0.070
 0.596  1.522  0.398  0.170  0.089  0.070  0.070
 0.598  1.521  0.398  0.171  0.090  0.071  0.071
 0.600  1.521  0.398  0.171  0.090  0.072  0.072
 0.602  1.521  0.398  0.171  0.090  0.072  0.072
 0.604  1.519  0.398  0.171  0.091  0.073  0.073
 0.606  1.519  0.398  0.172  0.091  0.074  0.074
 0.608  1.519  0.398  0.172  0.091  0.074  0.074
 0.610  1.517  0.398  0.172  0.091  0.075  0.075
 0.612  1.517  0.398  0.172  0.092  0.076  0.076
 0.614  1.517  0.398  0.172  0.092  0.076  0.076
 0.616  1.517  0.398  0.172  0.093  0.076  0.076
 0.618  1.516  0.398  0.172  0.093  0.077  0.077
 0.620  1.516  0.398  0.172  0.093  0.078  0.078
 0.622  1.516  0.398  0.172  0.094  0.079  0.079
 0.624  1.516  0.398  0.172  0.094  0.079  0.079
 0.626  1.516  0.398  0.172  0.094  0.080  0.080
 0.628  1.514  0.398  0.171  0.095  0.080  0.080
 0.630  1.514  0.398  0.171  0.095  0.080  0.080
 0.632  1.514  0.398  0.171  0.096  0.081  0.081
 0.634  1.514  0.397  0.170  0.096  0.081  0.081
 0.636  1.514  0.397  0.170  0.097  0.082  0.082
 0.638  1.514  0.397  0.170  0.097  0.082  0.082
 0.640  1.514  0.397  0.169  0.097  0.083  0.083
 0.642  1.514  0.397  0.169  0.097  0.083  0.083
 0.644  1.514  0.397  0.168  0.097  0.084  0.084
 0.646  1.513  0.395  0.168  0.098  0.084  0.084
 0.648  1.513  0.395  0.167  0.098  0.085  0.085
 0.650  1.513  0.395  0.167  0.099  0.085  0.085
 0.652  1.513  0.395  0.166  0.099  0.085  0.085
 0.654  1.513  0.394  0.166  0.100  0.085  0.085
 0.656  1.513  0.394  0.164  0.100  0.085  0.085
 0.658  1.513  0.394  0.164  0.101  0.086  0.086
 0.660  1.513  0.394  0.164  0.101  0.086  0.086
 0.662  1.513  0.392  0.163  0.101  0.087  0.087
 0.664  1.514  0.392  0.163  0.102  0.087  0.087
 0.666  1.514  0.392  0.162  0.102  0.088  0.088
 0.668  1.514  0.391  0.162  0.102  0.088  0.088
 0.670  1.513  0.391  0.161  0.103  0.088  0.088
 0.672  1.513  0.391  0.161  0.103  0.089  0.089
 0.674  1.513  0.389  0.161  0.103  0.089  0.089
 0.676  1.513  0.389  0.160  0.103  0.089  0.089
 0.678  1.513  0.389  0.160  0.103  0.089  0.089
 0.680  1.513  0.388  0.160  0.103  0.090  0.090
 0.682  1.513  0.388  0.159  0.103  0.090  0.090
 0.684  1.513  0.386  0.159  0.103  0.091  0.091
 0.686  1.513  0.386  0.159  0.103  0.091  0.091
 0.688  1.511  0.386  0.159  0.103  0.091  0.091
 0.690  1.511  0.385  0.158  0.103  0.092  0.092
 0.692  1.511  0.385  0.158  0.103  0.092  0.092
 0.694  1.511  0.383  0.158  0.102  0.093  0.093
 0.696  1.511  0.383  0.158  0.102  0.093  0.093
 0.698  1.511  0.382  0.158  0.102  0.093  0.093
 0.700  1.510  0.382  0.156  0.102  0.093  0.093
 0.702  1.510  0.380  0.156  0.102  0.093  0.093
 0.704  1.510  0.380  0.156  0.101  0.094  0.094
 0.706  1.510  0.379  0.156  0.101  0.094  0.094
 0.708  1.508  0.379  0.156  0.100  0.095  0.095
 0.710  1.508  0.377  0.156  0.100  0.095  0.095
 0.712  1.508  0.377  0.156  0.099  0.096  0.096
 0.714  1.507  0.376  0.155  0.099  0.096  0.096
 0.716  1.507  0.376  0.155  0.098  0.096  0.096
 0.718  1.505  0.374  0.155  0.097  0.097  0.097
 0.720  1.505  0.373  0.155  0.097  0.097  0.097
 0.722  1.505  0.373  0.155  0.097  0.097  0.097
 0.724  1.503  0.371  0.155  0.096  0.097  0.097
 0.726  1.503  0.371  0.155  0.096  0.098  0.098
 0.728  1.503  0.370  0.155  0.095  0.099  0.099
 0.730  1.502  0.370  0.155  0.095  0.099  0.099
 0.732  1.502  0.370  0.155  0.095  0.100  0.100
 0.734  1.502  0.370  0.155  0.095  0.101  0.101
 0.736  1.502  0.368  0.155  0.095  0.101  0.101
 0.738  1.502  0.368  0.155  0.095  0.102  0.102
 0.740  1.502  0.368  0.155  0.095  0.103  0.103
 0.742  1.502  0.368  0.154  0.096  0.104  0.104
 0.744  1.503  0.368  0.154  0.097  0.105  0.105
 0.746  1.505  0.368  0.154  0.097  0.106  0.106
 0.748  1.505  0.368  0.154  0.097  0.107  0.107
 0.750  1.507  0.370  0.154  0.098  0.109  0.109
 0.752  1.508  0.370  0.154  0.100  0.109  0.109
 0.754  1.511  0.370  0.154  0.101  0.111  0.111
 0.756  1.513  0.370  0.154  0.103  0.112  0.112
 0.758  1.516  0.371  0.154  0.104  0.113  0.113
 0.760  1.519  0.371  0.154  0.105  0.114  0.114
 0.762  1.522  0.373  0.154  0.107  0.116  0.116
 0.764  1.525  0.373  0.154  0.110  0.118  0.118
 0.766  1.528  0.374  0.154  0.112  0.119  0.119
 0.768  1.533  0.376  0.154  0.113  0.121  0.121
 0.770  1.538  0.376  0.154  0.116  0.122  0.122
 0.772  1.541  0.377  0.154  0.119  0.124  0.124
 0.774  1.546  0.379  0.154  0.121  0.126  0.126
 0.776  1.550  0.380  0.154  0.124  0.127  0.127
 0.778  1.555  0.382  0.154  0.127  0.130  0.130
 0.780  1.560  0.383  0.153  0.130  0.131  0.131
 0.782  1.566  0.385  0.153  0.134  0.134  0.134
 0.784  1.572  0.386  0.153  0.137  0.135  0.135
 0.786  1.577  0.389  0.154  0.141  0.138  0.138
 0.788  1.583  0.391  0.154  0.144  0.139  0.139
 0.790  1.591  0.392  0.154  0.148  0.142  0.142
 0.792  1.597  0.394  0.154  0.151  0.143  0.143
 0.794  1.605  0.397  0.155  0.156  0.146  0.146
 0.796  1.613  0.398  0.156  0.159  0.148  0.148
 0.798  1.621  0.400  0.156  0.163  0.150  0.150
 0.800  1.627  0.403  0.159  0.167  0.152  0.152
 0.802  1.635  0.404  0.160  0.171  0.155  0.155
 0.804  1.642  0.406  0.161  0.174  0.157  0.157
 0.806  1.649  0.409  0.163  0.178  0.159  0.159
 0.808  1.655  0.410  0.164  0.181  0.161  0.161
