# IsPeriodic    : True
# Period        : 0.549881 days
# Normalization : <g_mag>=0
# 
# Phase u_mag  g_mag  r_mag  i_mag  z_mag  y_mag
 0.000  0.572 -0.629 -0.522 -0.451 -0.449 -0.449
 0.002  0.572 -0.629 -0.522 -0.451 -0.449 -0.449
 0.004  0.573 -0.629 -0.521 -0.450 -0.449 -0.449
 0.006  0.574 -0.628 -0.521 -0.450 -0.448 -0.448
 0.008  0.575 -0.627 -0.520 -0.449 -0.447 -0.447
 0.010  0.576 -0.625 -0.520 -0.449 -0.445 -0.445
 0.012  0.578 -0.624 -0.519 -0.448 -0.444 -0.444
 0.014  0.580 -0.622 -0.518 -0.447 -0.442 -0.442
 0.016  0.583 -0.620 -0.518 -0.446 -0.440 -0.440
 0.018  0.585 -0.618 -0.517 -0.445 -0.438 -0.438
 0.020  0.587 -0.615 -0.516 -0.443 -0.436 -0.436
 0.022  0.590 -0.613 -0.515 -0.442 -0.433 -0.433
 0.024  0.594 -0.610 -0.513 -0.441 -0.431 -0.431
 0.026  0.596 -0.607 -0.512 -0.440 -0.429 -0.429
 0.028  0.599 -0.604 -0.511 -0.438 -0.427 -0.427
 0.030  0.603 -0.601 -0.510 -0.437 -0.425 -0.425
 0.032  0.606 -0.598 -0.509 -0.435 -0.423 -0.423
 0.034  0.610 -0.595 -0.507 -0.434 -0.421 -0.421
 0.036  0.614 -0.592 -0.505 -0.433 -0.418 -0.418
 0.038  0.618 -0.588 -0.504 -0.431 -0.416 -0.416
 0.040  0.622 -0.585 -0.502 -0.430 -0.414 -0.414
 0.042  0.627 -0.581 -0.500 -0.429 -0.412 -0.412
 0.044  0.631 -0.577 -0.499 -0.427 -0.410 -0.410
 0.046  0.636 -0.573 -0.497 -0.426 -0.409 -0.409
 0.048  0.640 -0.569 -0.495 -0.424 -0.407 -0.407
 0.050  0.646 -0.564 -0.492 -0.423 -0.405 -0.405
 0.052  0.651 -0.560 -0.490 -0.421 -0.403 -0.403
 0.054  0.657 -0.555 -0.488 -0.420 -0.401 -0.401
 0.056  0.662 -0.550 -0.485 -0.418 -0.399 -0.399
 0.058  0.668 -0.545 -0.483 -0.417 -0.397 -0.397
 0.060  0.674 -0.539 -0.481 -0.415 -0.395 -0.395
 0.062  0.679 -0.534 -0.478 -0.414 -0.393 -0.393
 0.064  0.686 -0.529 -0.475 -0.412 -0.391 -0.391
 0.066  0.692 -0.523 -0.472 -0.410 -0.389 -0.389
 0.068  0.699 -0.517 -0.469 -0.408 -0.387 -0.387
 0.070  0.706 -0.511 -0.467 -0.407 -0.385 -0.385
 0.072  0.713 -0.505 -0.464 -0.405 -0.383 -0.383
 0.074  0.719 -0.499 -0.461 -0.403 -0.381 -0.381
 0.076  0.727 -0.493 -0.458 -0.402 -0.380 -0.380
 0.078  0.733 -0.487 -0.455 -0.400 -0.378 -0.378
 0.080  0.740 -0.481 -0.452 -0.398 -0.376 -0.376
 0.082  0.748 -0.475 -0.449 -0.396 -0.374 -0.374
 0.084  0.754 -0.469 -0.446 -0.395 -0.372 -0.372
 0.086  0.760 -0.463 -0.443 -0.392 -0.370 -0.370
 0.088  0.767 -0.457 -0.440 -0.391 -0.369 -0.369
 0.090  0.773 -0.451 -0.437 -0.389 -0.367 -0.367
 0.092  0.780 -0.445 -0.434 -0.387 -0.365 -0.365
 0.094  0.786 -0.439 -0.431 -0.385 -0.363 -0.363
 0.096  0.791 -0.434 -0.428 -0.384 -0.362 -0.362
 0.098  0.798 -0.428 -0.425 -0.382 -0.360 -0.360
 0.100  0.803 -0.423 -0.422 -0.380 -0.358 -0.358
 0.102  0.809 -0.417 -0.419 -0.378 -0.356 -0.356
 0.104  0.814 -0.412 -0.416 -0.376 -0.355 -0.355
 0.106  0.820 -0.406 -0.413 -0.375 -0.353 -0.353
 0.108  0.825 -0.401 -0.410 -0.372 -0.351 -0.351
 0.110  0.830 -0.396 -0.407 -0.371 -0.350 -0.350
 0.112  0.835 -0.390 -0.404 -0.369 -0.348 -0.348
 0.114  0.840 -0.385 -0.401 -0.368 -0.346 -0.346
 0.116  0.845 -0.380 -0.398 -0.365 -0.345 -0.345
 0.118  0.850 -0.375 -0.395 -0.364 -0.343 -0.343
 0.120  0.854 -0.370 -0.393 -0.362 -0.341 -0.341
 0.122  0.859 -0.365 -0.389 -0.360 -0.340 -0.340
 0.124  0.863 -0.360 -0.386 -0.358 -0.338 -0.338
 0.126  0.868 -0.355 -0.383 -0.357 -0.337 -0.337
 0.128  0.872 -0.351 -0.380 -0.355 -0.335 -0.335
 0.130  0.876 -0.346 -0.377 -0.353 -0.334 -0.334
 0.132  0.880 -0.341 -0.374 -0.351 -0.332 -0.332
 0.134  0.883 -0.337 -0.372 -0.350 -0.331 -0.331
 0.136  0.887 -0.332 -0.368 -0.348 -0.329 -0.329
 0.138  0.891 -0.328 -0.365 -0.346 -0.328 -0.328
 0.140  0.894 -0.323 -0.362 -0.345 -0.326 -0.326
 0.142  0.898 -0.319 -0.359 -0.343 -0.325 -0.325
 0.144  0.901 -0.315 -0.356 -0.341 -0.323 -0.323
 0.146  0.904 -0.310 -0.353 -0.339 -0.322 -0.322
 0.148  0.908 -0.306 -0.351 -0.338 -0.320 -0.320
 0.150  0.911 -0.302 -0.348 -0.336 -0.319 -0.319
 0.152  0.914 -0.298 -0.345 -0.334 -0.317 -0.317
 0.154  0.917 -0.294 -0.342 -0.332 -0.316 -0.316
 0.156  0.921 -0.289 -0.339 -0.331 -0.314 -0.314
 0.158  0.924 -0.285 -0.337 -0.329 -0.313 -0.313
 0.160  0.927 -0.281 -0.334 -0.327 -0.312 -0.312
 0.162  0.930 -0.277 -0.331 -0.326 -0.310 -0.310
 0.164  0.934 -0.273 -0.328 -0.324 -0.309 -0.309
 0.166  0.936 -0.269 -0.325 -0.322 -0.308 -0.308
 0.168  0.940 -0.265 -0.323 -0.321 -0.306 -0.306
 0.170  0.944 -0.261 -0.321 -0.319 -0.305 -0.305
 0.172  0.946 -0.257 -0.318 -0.318 -0.303 -0.303
 0.174  0.950 -0.252 -0.316 -0.316 -0.302 -0.302
 0.176  0.954 -0.248 -0.313 -0.314 -0.301 -0.301
 0.178  0.956 -0.244 -0.311 -0.313 -0.299 -0.299
 0.180  0.960 -0.240 -0.308 -0.311 -0.298 -0.298
 0.182  0.964 -0.236 -0.306 -0.309 -0.297 -0.297
 0.184  0.966 -0.232 -0.303 -0.308 -0.295 -0.295
 0.186  0.970 -0.228 -0.301 -0.306 -0.294 -0.294
 0.188  0.974 -0.224 -0.299 -0.305 -0.292 -0.292
 0.190  0.977 -0.221 -0.297 -0.303 -0.291 -0.291
 0.192  0.980 -0.217 -0.294 -0.301 -0.290 -0.290
 0.194  0.984 -0.213 -0.292 -0.300 -0.288 -0.288
 0.196  0.987 -0.209 -0.290 -0.298 -0.287 -0.287
 0.198  0.991 -0.205 -0.288 -0.296 -0.286 -0.286
 0.200  0.994 -0.201 -0.286 -0.295 -0.284 -0.284
 0.202  0.997 -0.197 -0.283 -0.293 -0.283 -0.283
 0.204  1.001 -0.193 -0.281 -0.292 -0.281 -0.281
 0.206  1.005 -0.190 -0.279 -0.290 -0.280 -0.280
 0.208  1.008 -0.186 -0.278 -0.288 -0.279 -0.279
 0.210  1.011 -0.182 -0.276 -0.287 -0.277 -0.277
 0.212  1.015 -0.178 -0.274 -0.286 -0.276 -0.276
 0.214  1.018 -0.174 -0.272 -0.284 -0.275 -0.275
 0.216  1.022 -0.171 -0.270 -0.282 -0.273 -0.273
 0.218  1.026 -0.167 -0.268 -0.281 -0.272 -0.272
 0.220  1.029 -0.163 -0.266 -0.279 -0.270 -0.270
 0.222  1.033 -0.159 -0.265 -0.278 -0.269 -0.269
 0.224  1.036 -0.156 -0.263 -0.276 -0.268 -0.268
 0.226  1.039 -0.152 -0.260 -0.275 -0.266 -0.266
 0.228  1.043 -0.148 -0.259 -0.273 -0.265 -0.265
 0.230  1.047 -0.145 -0.257 -0.272 -0.264 -0.264
 0.232  1.049 -0.141 -0.255 -0.270 -0.262 -0.262
 0.234  1.053 -0.138 -0.253 -0.269 -0.261 -0.261
 0.236  1.056 -0.134 -0.251 -0.267 -0.260 -0.260
 0.238  1.059 -0.131 -0.249 -0.266 -0.258 -0.258
 0.240  1.063 -0.127 -0.247 -0.264 -0.257 -0.257
 0.242  1.066 -0.124 -0.246 -0.263 -0.256 -0.256
 0.244  1.069 -0.120 -0.244 -0.261 -0.254 -0.254
 0.246  1.072 -0.117 -0.242 -0.260 -0.253 -0.253
 0.248  1.075 -0.113 -0.239 -0.259 -0.252 -0.252
 0.250  1.079 -0.110 -0.237 -0.257 -0.250 -0.250
 0.252  1.081 -0.106 -0.236 -0.255 -0.249 -0.249
 0.254  1.085 -0.103 -0.234 -0.254 -0.248 -0.248
 0.256  1.088 -0.100 -0.232 -0.253 -0.247 -0.247
 0.258  1.090 -0.096 -0.230 -0.251 -0.245 -0.245
 0.260  1.093 -0.093 -0.228 -0.249 -0.244 -0.244
 0.262  1.097 -0.090 -0.225 -0.248 -0.243 -0.243
 0.264  1.099 -0.087 -0.223 -0.247 -0.242 -0.242
 0.266  1.102 -0.083 -0.222 -0.245 -0.240 -0.240
 0.268  1.105 -0.080 -0.220 -0.244 -0.239 -0.239
 0.270  1.108 -0.077 -0.218 -0.242 -0.238 -0.238
 0.272  1.110 -0.074 -0.216 -0.241 -0.237 -0.237
 0.274  1.113 -0.071 -0.214 -0.240 -0.236 -0.236
 0.276  1.116 -0.067 -0.211 -0.238 -0.234 -0.234
 0.278  1.119 -0.064 -0.209 -0.236 -0.233 -0.233
 0.280  1.121 -0.061 -0.207 -0.235 -0.232 -0.232
 0.282  1.124 -0.058 -0.205 -0.234 -0.231 -0.231
 0.284  1.127 -0.055 -0.203 -0.232 -0.230 -0.230
 0.286  1.130 -0.052 -0.201 -0.231 -0.229 -0.229
 0.288  1.132 -0.049 -0.199 -0.229 -0.228 -0.228
 0.290  1.135 -0.046 -0.197 -0.228 -0.226 -0.226
 0.292  1.137 -0.043 -0.195 -0.227 -0.225 -0.225
 0.294  1.140 -0.040 -0.193 -0.225 -0.224 -0.224
 0.296  1.142 -0.037 -0.191 -0.224 -0.223 -0.223
 0.298  1.145 -0.034 -0.189 -0.222 -0.222 -0.222
 0.300  1.148 -0.031 -0.187 -0.221 -0.221 -0.221
 0.302  1.150 -0.028 -0.185 -0.219 -0.220 -0.220
 0.304  1.152 -0.025 -0.183 -0.218 -0.219 -0.219
 0.306  1.155 -0.022 -0.181 -0.216 -0.218 -0.218
 0.308  1.158 -0.019 -0.179 -0.215 -0.217 -0.217
 0.310  1.161 -0.016 -0.177 -0.213 -0.216 -0.216
 0.312  1.162 -0.013 -0.174 -0.212 -0.215 -0.215
 0.314  1.165 -0.010 -0.172 -0.211 -0.214 -0.214
 0.316  1.168 -0.007 -0.170 -0.209 -0.212 -0.212
 0.318  1.171 -0.004 -0.169 -0.208 -0.211 -0.211
 0.320  1.173  0.000 -0.167 -0.206 -0.210 -0.210
 0.322  1.175  0.003 -0.165 -0.204 -0.209 -0.209
 0.324  1.178  0.006 -0.163 -0.203 -0.208 -0.208
 0.326  1.181  0.009 -0.160 -0.202 -0.207 -0.207
 0.328  1.183  0.012 -0.158 -0.200 -0.205 -0.205
 0.330  1.185  0.015 -0.157 -0.198 -0.204 -0.204
 0.332  1.188  0.018 -0.155 -0.197 -0.203 -0.203
 0.334  1.191  0.021 -0.153 -0.195 -0.202 -0.202
 0.336  1.193  0.025 -0.151 -0.193 -0.201 -0.201
 0.338  1.195  0.028 -0.149 -0.192 -0.199 -0.199
 0.340  1.198  0.031 -0.147 -0.190 -0.198 -0.198
 0.342  1.201  0.034 -0.145 -0.189 -0.197 -0.197
 0.344  1.203  0.037 -0.143 -0.187 -0.196 -0.196
 0.346  1.206  0.040 -0.141 -0.185 -0.194 -0.194
 0.348  1.208  0.044 -0.139 -0.184 -0.193 -0.193
 0.350  1.211  0.047 -0.137 -0.182 -0.192 -0.192
 0.352  1.213  0.050 -0.135 -0.180 -0.191 -0.191
 0.354  1.216  0.053 -0.133 -0.179 -0.189 -0.189
 0.356  1.218  0.056 -0.131 -0.177 -0.187 -0.187
 0.358  1.221  0.060 -0.130 -0.176 -0.186 -0.186
 0.360  1.223  0.063 -0.128 -0.174 -0.185 -0.185
 0.362  1.225  0.066 -0.126 -0.172 -0.183 -0.183
 0.364  1.228  0.069 -0.124 -0.170 -0.182 -0.182
 0.366  1.231  0.072 -0.122 -0.168 -0.181 -0.181
 0.368  1.233  0.075 -0.120 -0.167 -0.179 -0.179
 0.370  1.235  0.078 -0.119 -0.165 -0.178 -0.178
 0.372  1.238  0.081 -0.116 -0.163 -0.177 -0.177
 0.374  1.241  0.084 -0.114 -0.161 -0.175 -0.175
 0.376  1.243  0.087 -0.113 -0.160 -0.174 -0.174
 0.378  1.245  0.090 -0.111 -0.158 -0.172 -0.172
 0.380  1.248  0.093 -0.109 -0.157 -0.171 -0.171
 0.382  1.250  0.096 -0.107 -0.154 -0.170 -0.170
 0.384  1.253  0.099 -0.106 -0.153 -0.168 -0.168
 0.386  1.254  0.101 -0.104 -0.151 -0.167 -0.167
 0.388  1.257  0.104 -0.102 -0.150 -0.166 -0.166
 0.390  1.260  0.107 -0.100 -0.148 -0.164 -0.164
 0.392  1.262  0.109 -0.099 -0.146 -0.163 -0.163
 0.394  1.264  0.112 -0.097 -0.145 -0.161 -0.161
 0.396  1.266  0.115 -0.095 -0.143 -0.160 -0.160
 0.398  1.269  0.117 -0.093 -0.141 -0.159 -0.159
 0.400  1.271  0.120 -0.092 -0.140 -0.157 -0.157
 0.402  1.274  0.122 -0.091 -0.138 -0.156 -0.156
 0.404  1.275  0.125 -0.088 -0.137 -0.155 -0.155
 0.406  1.278  0.127 -0.087 -0.135 -0.154 -0.154
 0.408  1.280  0.129 -0.085 -0.134 -0.152 -0.152
 0.410  1.283  0.132 -0.084 -0.132 -0.151 -0.151
 0.412  1.284  0.134 -0.082 -0.131 -0.150 -0.150
 0.414  1.287  0.136 -0.081 -0.129 -0.148 -0.148
 0.416  1.289  0.138 -0.079 -0.128 -0.147 -0.147
 0.418  1.292  0.140 -0.077 -0.126 -0.146 -0.146
 0.420  1.294  0.142 -0.076 -0.125 -0.145 -0.145
 0.422  1.296  0.145 -0.074 -0.123 -0.143 -0.143
 0.424  1.298  0.147 -0.072 -0.122 -0.142 -0.142
 0.426  1.300  0.149 -0.071 -0.121 -0.141 -0.141
 0.428  1.303  0.151 -0.070 -0.119 -0.140 -0.140
 0.430  1.305  0.152 -0.068 -0.118 -0.138 -0.138
 0.432  1.306  0.154 -0.066 -0.116 -0.137 -0.137
 0.434  1.309  0.156 -0.065 -0.115 -0.136 -0.136
 0.436  1.311  0.158 -0.063 -0.114 -0.135 -0.135
 0.438  1.313  0.160 -0.062 -0.113 -0.133 -0.133
 0.440  1.315  0.162 -0.061 -0.112 -0.132 -0.132
 0.442  1.317  0.163 -0.059 -0.110 -0.131 -0.131
 0.444  1.319  0.165 -0.058 -0.109 -0.130 -0.130
 0.446  1.321  0.167 -0.056 -0.108 -0.129 -0.129
 0.448  1.323  0.169 -0.054 -0.107 -0.128 -0.128
 0.450  1.325  0.170 -0.053 -0.105 -0.126 -0.126
 0.452  1.327  0.172 -0.051 -0.104 -0.125 -0.125
 0.454  1.329  0.174 -0.050 -0.103 -0.124 -0.124
 0.456  1.331  0.175 -0.049 -0.101 -0.123 -0.123
 0.458  1.333  0.177 -0.047 -0.100 -0.122 -0.122
 0.460  1.335  0.178 -0.046 -0.099 -0.121 -0.121
 0.462  1.336  0.180 -0.044 -0.098 -0.120 -0.120
 0.464  1.338  0.182 -0.043 -0.096 -0.119 -0.119
 0.466  1.340  0.183 -0.041 -0.095 -0.118 -0.118
 0.468  1.342  0.185 -0.040 -0.094 -0.117 -0.117
 0.470  1.344  0.186 -0.038 -0.093 -0.115 -0.115
 0.472  1.346  0.187 -0.037 -0.091 -0.114 -0.114
 0.474  1.347  0.189 -0.035 -0.090 -0.113 -0.113
 0.476  1.348  0.190 -0.034 -0.089 -0.112 -0.112
 0.478  1.350  0.192 -0.033 -0.088 -0.111 -0.111
 0.480  1.352  0.193 -0.031 -0.087 -0.111 -0.111
 0.482  1.354  0.194 -0.030 -0.086 -0.110 -0.110
 0.484  1.355  0.196 -0.028 -0.084 -0.109 -0.109
 0.486  1.356  0.197 -0.027 -0.083 -0.108 -0.108
 0.488  1.358  0.198 -0.026 -0.082 -0.107 -0.107
 0.490  1.360  0.200 -0.024 -0.081 -0.106 -0.106
 0.492  1.361  0.201 -0.023 -0.080 -0.105 -0.105
 0.494  1.363  0.202 -0.021 -0.078 -0.104 -0.104
 0.496  1.365  0.203 -0.020 -0.077 -0.103 -0.103
 0.498  1.366  0.204 -0.019 -0.076 -0.102 -0.102
 0.500  1.367  0.205 -0.017 -0.075 -0.102 -0.102
 0.502  1.368  0.207 -0.016 -0.074 -0.101 -0.101
 0.504  1.370  0.208 -0.015 -0.072 -0.100 -0.100
 0.506  1.371  0.209 -0.014 -0.071 -0.099 -0.099
 0.508  1.373  0.210 -0.012 -0.070 -0.098 -0.098
 0.510  1.374  0.211 -0.011 -0.069 -0.098 -0.098
 0.512  1.375  0.212 -0.010 -0.068 -0.097 -0.097
 0.514  1.377  0.213 -0.008 -0.067 -0.096 -0.096
 0.516  1.377  0.214 -0.007 -0.066 -0.095 -0.095
 0.518  1.378  0.215 -0.006 -0.065 -0.095 -0.095
 0.520  1.379  0.216 -0.005 -0.064 -0.094 -0.094
 0.522  1.380  0.217 -0.003 -0.063 -0.093 -0.093
 0.524  1.381  0.218 -0.003 -0.062 -0.092 -0.092
 0.526  1.382  0.219 -0.001 -0.061 -0.092 -0.092
 0.528  1.383  0.220  0.000 -0.059 -0.091 -0.091
 0.530  1.384  0.221  0.001 -0.058 -0.090 -0.090
 0.532  1.385  0.222  0.002 -0.058 -0.089 -0.089
 0.534  1.386  0.223  0.004 -0.057 -0.089 -0.089
 0.536  1.387  0.224  0.004 -0.056 -0.088 -0.088
 0.538  1.387  0.225  0.006 -0.055 -0.087 -0.087
 0.540  1.387  0.226  0.007 -0.054 -0.086 -0.086
 0.542  1.388  0.227  0.008 -0.053 -0.086 -0.086
 0.544  1.389  0.228  0.009 -0.052 -0.085 -0.085
 0.546  1.389  0.229  0.010 -0.051 -0.084 -0.084
 0.548  1.390  0.230  0.011 -0.051 -0.084 -0.084
 0.550  1.390  0.231  0.012 -0.050 -0.083 -0.083
 0.552  1.391  0.232  0.013 -0.049 -0.082 -0.082
 0.554  1.391  0.233  0.014 -0.048 -0.081 -0.081
 0.556  1.392  0.234  0.015 -0.048 -0.081 -0.081
 0.558  1.392  0.235  0.016 -0.047 -0.080 -0.080
 0.560  1.392  0.236  0.017 -0.046 -0.079 -0.079
 0.562  1.393  0.237  0.018 -0.045 -0.078 -0.078
 0.564  1.393  0.237  0.018 -0.045 -0.078 -0.078
 0.566  1.393  0.238  0.020 -0.044 -0.077 -0.077
 0.568  1.393  0.239  0.021 -0.044 -0.076 -0.076
 0.570  1.393  0.240  0.021 -0.043 -0.075 -0.075
 0.572  1.393  0.241  0.022 -0.042 -0.075 -0.075
 0.574  1.393  0.242  0.023 -0.042 -0.074 -0.074
 0.576  1.393  0.242  0.024 -0.041 -0.073 -0.073
 0.578  1.393  0.243  0.025 -0.041 -0.072 -0.072
 0.580  1.393  0.244  0.025 -0.041 -0.072 -0.072
 0.582  1.393  0.245  0.026 -0.040 -0.071 -0.071
 0.584  1.393  0.245  0.027 -0.039 -0.070 -0.070
 0.586  1.393  0.246  0.028 -0.039 -0.069 -0.069
 0.588  1.393  0.247  0.028 -0.038 -0.069 -0.069
 0.590  1.393  0.247  0.029 -0.038 -0.068 -0.068
 0.592  1.393  0.248  0.030 -0.038 -0.067 -0.067
 0.594  1.393  0.249  0.030 -0.037 -0.067 -0.067
 0.596  1.393  0.249  0.030 -0.037 -0.066 -0.066
 0.598  1.393  0.250  0.031 -0.036 -0.065 -0.065
 0.600  1.393  0.250  0.032 -0.036 -0.065 -0.065
 0.602  1.393  0.251  0.032 -0.036 -0.064 -0.064
 0.604  1.393  0.251  0.032 -0.035 -0.063 -0.063
 0.606  1.393  0.251  0.033 -0.035 -0.063 -0.063
 0.608  1.393  0.252  0.033 -0.034 -0.062 -0.062
 0.610  1.393  0.252  0.034 -0.034 -0.061 -0.061
 0.612  1.393  0.252  0.034 -0.033 -0.061 -0.061
 0.614  1.392  0.253  0.035 -0.033 -0.060 -0.060
 0.616  1.392  0.253  0.035 -0.032 -0.060 -0.060
 0.618  1.392  0.253  0.035 -0.032 -0.059 -0.059
 0.620  1.392  0.253  0.035 -0.032 -0.058 -0.058
 0.622  1.392  0.254  0.036 -0.031 -0.058 -0.058
 0.624  1.392  0.254  0.036 -0.031 -0.057 -0.057
 0.626  1.392  0.254  0.036 -0.030 -0.057 -0.057
 0.628  1.392  0.254  0.036 -0.030 -0.056 -0.056
 0.630  1.392  0.254  0.037 -0.030 -0.056 -0.056
 0.632  1.392  0.254  0.037 -0.029 -0.055 -0.055
 0.634  1.392  0.254  0.037 -0.029 -0.055 -0.055
 0.636  1.392  0.254  0.037 -0.029 -0.054 -0.054
 0.638  1.392  0.254  0.037 -0.028 -0.054 -0.054
 0.640  1.392  0.254  0.037 -0.027 -0.054 -0.054
 0.642  1.392  0.254  0.037 -0.027 -0.053 -0.053
 0.644  1.392  0.254  0.037 -0.027 -0.053 -0.053
 0.646  1.392  0.254  0.037 -0.026 -0.052 -0.052
 0.648  1.391  0.254  0.037 -0.026 -0.052 -0.052
 0.650  1.391  0.253  0.037 -0.025 -0.052 -0.052
 0.652  1.391  0.253  0.037 -0.025 -0.051 -0.051
 0.654  1.391  0.253  0.037 -0.025 -0.051 -0.051
 0.656  1.391  0.253  0.037 -0.024 -0.051 -0.051
 0.658  1.391  0.253  0.037 -0.024 -0.050 -0.050
 0.660  1.391  0.252  0.037 -0.023 -0.050 -0.050
 0.662  1.391  0.252  0.038 -0.023 -0.050 -0.050
 0.664  1.390  0.252  0.038 -0.022 -0.049 -0.049
 0.666  1.390  0.252  0.039 -0.022 -0.049 -0.049
 0.668  1.390  0.252  0.039 -0.021 -0.048 -0.048
 0.670  1.390  0.251  0.039 -0.020 -0.048 -0.048
 0.672  1.390  0.251  0.040 -0.019 -0.047 -0.047
 0.674  1.389  0.251  0.041 -0.018 -0.047 -0.047
 0.676  1.389  0.251  0.041 -0.017 -0.046 -0.046
 0.678  1.389  0.250  0.042 -0.016 -0.046 -0.046
 0.680  1.389  0.250  0.042 -0.015 -0.045 -0.045
 0.682  1.388  0.250  0.043 -0.013 -0.045 -0.045
 0.684  1.388  0.250  0.044 -0.012 -0.044 -0.044
 0.686  1.388  0.249  0.044 -0.011 -0.043 -0.043
 0.688  1.388  0.249  0.045 -0.009 -0.043 -0.043
 0.690  1.387  0.249  0.046 -0.008 -0.042 -0.042
 0.692  1.387  0.248  0.047 -0.006 -0.041 -0.041
 0.694  1.387  0.248  0.048 -0.005 -0.041 -0.041
 0.696  1.387  0.248  0.049 -0.003 -0.040 -0.040
 0.698  1.387  0.247  0.050 -0.001 -0.039 -0.039
 0.700  1.386  0.247  0.051  0.001 -0.038 -0.038
 0.702  1.386  0.247  0.052  0.003 -0.037 -0.037
 0.704  1.386  0.246  0.053  0.005 -0.036 -0.036
 0.706  1.385  0.246  0.054  0.007 -0.036 -0.036
 0.708  1.385  0.246  0.055  0.009 -0.035 -0.035
 0.710  1.384  0.245  0.056  0.011 -0.034 -0.034
 0.712  1.384  0.245  0.058  0.014 -0.033 -0.033
 0.714  1.383  0.245  0.059  0.016 -0.032 -0.032
 0.716  1.383  0.244  0.060  0.019 -0.031 -0.031
 0.718  1.383  0.244  0.062  0.021 -0.030 -0.030
 0.720  1.382  0.244  0.063  0.024 -0.029 -0.029
 0.722  1.382  0.244  0.065  0.027 -0.027 -0.027
 0.724  1.381  0.244  0.066  0.029 -0.026 -0.026
 0.726  1.381  0.244  0.068  0.032 -0.025 -0.025
 0.728  1.381  0.244  0.069  0.035 -0.024 -0.024
 0.730  1.381  0.245  0.072  0.038 -0.023 -0.023
 0.732  1.381  0.245  0.073  0.040 -0.021 -0.021
 0.734  1.381  0.246  0.075  0.043 -0.020 -0.020
 0.736  1.381  0.247  0.077  0.046 -0.019 -0.019
 0.738  1.381  0.248  0.079  0.048 -0.018 -0.018
 0.740  1.381  0.250  0.081  0.051 -0.016 -0.016
 0.742  1.381  0.251  0.083  0.053 -0.015 -0.015
 0.744  1.381  0.253  0.086  0.055 -0.013 -0.013
 0.746  1.381  0.254  0.088  0.058 -0.012 -0.012
 0.748  1.382  0.256  0.090  0.060 -0.010 -0.010
 0.750  1.382  0.258  0.093  0.063 -0.009 -0.009
 0.752  1.382  0.260  0.095  0.065 -0.007 -0.007
 0.754  1.383  0.262  0.097  0.067 -0.006 -0.006
 0.756  1.383  0.264  0.100  0.068 -0.004 -0.004
 0.758  1.384  0.266  0.103  0.071 -0.002 -0.002
 0.760  1.384  0.269  0.105  0.072 -0.001 -0.001
 0.762  1.385  0.271  0.108  0.074  0.001  0.001
 0.764  1.386  0.274  0.111  0.076  0.003  0.003
 0.766  1.387  0.277  0.114  0.077  0.005  0.005
 0.768  1.387  0.280  0.117  0.078  0.007  0.007
 0.770  1.387  0.284  0.120  0.080  0.009  0.009
 0.772  1.388  0.287  0.123  0.081  0.010  0.010
 0.774  1.389  0.291  0.127  0.082  0.012  0.012
 0.776  1.390  0.295  0.130  0.083  0.014  0.014
 0.778  1.391  0.299  0.134  0.084  0.016  0.016
 0.780  1.392  0.303  0.137  0.085  0.018  0.018
 0.782  1.393  0.307  0.141  0.086  0.020  0.020
 0.784  1.395  0.311  0.144  0.087  0.022  0.022
 0.786  1.396  0.315  0.147  0.088  0.024  0.024
 0.788  1.397  0.320  0.151  0.089  0.027  0.027
 0.790  1.398  0.324  0.153  0.089  0.029  0.029
 0.792  1.399  0.328  0.157  0.090  0.031  0.031
 0.794  1.400  0.332  0.160  0.090  0.034  0.034
 0.796  1.402  0.335  0.162  0.091  0.036  0.036
 0.798  1.404  0.339  0.165  0.091  0.038  0.038
 0.800  1.405  0.343  0.167  0.091  0.041  0.041
 0.802  1.407  0.346  0.169  0.091  0.043  0.043
 0.804  1.408  0.349  0.171  0.091  0.045  0.045
 0.806  1.410  0.352  0.172  0.090  0.047  0.047
 0.808  1.412  0.355  0.174  0.090  0.048  0.048
