# IsPeriodic    : True
# Period        : 0.569411 days
# Normalization : <g_mag>=0
# 
# Phase u_mag  g_mag  r_mag  i_mag  z_mag  y_mag
 0.000  0.563 -0.459 -0.458 -0.474 -0.446 -0.446
 0.002  0.564 -0.459 -0.458 -0.474 -0.446 -0.446
 0.004  0.565 -0.459 -0.458 -0.474 -0.446 -0.446
 0.006  0.566 -0.458 -0.458 -0.474 -0.446 -0.446
 0.008  0.568 -0.458 -0.457 -0.473 -0.445 -0.445
 0.010  0.570 -0.458 -0.457 -0.473 -0.445 -0.445
 0.012  0.572 -0.457 -0.457 -0.473 -0.444 -0.444
 0.014  0.575 -0.455 -0.456 -0.472 -0.443 -0.443
 0.016  0.578 -0.455 -0.455 -0.471 -0.442 -0.442
 0.018  0.582 -0.454 -0.455 -0.470 -0.441 -0.441
 0.020  0.585 -0.452 -0.454 -0.468 -0.439 -0.439
 0.022  0.589 -0.451 -0.454 -0.467 -0.438 -0.438
 0.024  0.593 -0.449 -0.453 -0.465 -0.437 -0.437
 0.026  0.597 -0.448 -0.452 -0.464 -0.435 -0.435
 0.028  0.601 -0.446 -0.451 -0.462 -0.434 -0.434
 0.030  0.605 -0.444 -0.450 -0.460 -0.432 -0.432
 0.032  0.607 -0.441 -0.449 -0.458 -0.431 -0.431
 0.034  0.611 -0.440 -0.448 -0.456 -0.430 -0.430
 0.036  0.616 -0.437 -0.447 -0.454 -0.428 -0.428
 0.038  0.620 -0.435 -0.446 -0.452 -0.427 -0.427
 0.040  0.624 -0.432 -0.444 -0.450 -0.425 -0.425
 0.042  0.628 -0.430 -0.443 -0.447 -0.424 -0.424
 0.044  0.633 -0.426 -0.441 -0.445 -0.422 -0.422
 0.046  0.637 -0.423 -0.439 -0.442 -0.421 -0.421
 0.048  0.642 -0.420 -0.438 -0.440 -0.419 -0.419
 0.050  0.646 -0.417 -0.437 -0.437 -0.418 -0.418
 0.052  0.651 -0.414 -0.435 -0.435 -0.417 -0.417
 0.054  0.656 -0.410 -0.433 -0.432 -0.415 -0.415
 0.056  0.661 -0.406 -0.431 -0.430 -0.414 -0.414
 0.058  0.667 -0.403 -0.429 -0.428 -0.412 -0.412
 0.060  0.672 -0.399 -0.427 -0.425 -0.411 -0.411
 0.062  0.678 -0.395 -0.425 -0.423 -0.410 -0.410
 0.064  0.683 -0.391 -0.423 -0.421 -0.409 -0.409
 0.066  0.688 -0.387 -0.421 -0.418 -0.407 -0.407
 0.068  0.694 -0.382 -0.419 -0.416 -0.406 -0.406
 0.070  0.701 -0.377 -0.416 -0.414 -0.405 -0.405
 0.072  0.707 -0.373 -0.414 -0.412 -0.404 -0.404
 0.074  0.713 -0.369 -0.411 -0.410 -0.402 -0.402
 0.076  0.718 -0.364 -0.409 -0.408 -0.401 -0.401
 0.078  0.724 -0.359 -0.406 -0.406 -0.399 -0.399
 0.080  0.731 -0.355 -0.404 -0.404 -0.398 -0.398
 0.082  0.737 -0.350 -0.401 -0.402 -0.397 -0.397
 0.084  0.743 -0.346 -0.399 -0.400 -0.396 -0.396
 0.086  0.749 -0.342 -0.396 -0.399 -0.394 -0.394
 0.088  0.754 -0.337 -0.394 -0.397 -0.393 -0.393
 0.090  0.760 -0.333 -0.392 -0.395 -0.392 -0.392
 0.092  0.766 -0.329 -0.389 -0.394 -0.391 -0.391
 0.094  0.772 -0.324 -0.387 -0.392 -0.390 -0.390
 0.096  0.778 -0.321 -0.385 -0.390 -0.388 -0.388
 0.098  0.783 -0.317 -0.382 -0.388 -0.387 -0.387
 0.100  0.788 -0.313 -0.380 -0.387 -0.386 -0.386
 0.102  0.793 -0.309 -0.379 -0.386 -0.385 -0.385
 0.104  0.799 -0.305 -0.376 -0.384 -0.384 -0.384
 0.106  0.804 -0.302 -0.374 -0.383 -0.382 -0.382
 0.108  0.809 -0.298 -0.372 -0.381 -0.381 -0.381
 0.110  0.815 -0.294 -0.370 -0.380 -0.380 -0.380
 0.112  0.820 -0.290 -0.368 -0.379 -0.379 -0.379
 0.114  0.825 -0.287 -0.366 -0.377 -0.378 -0.378
 0.116  0.829 -0.283 -0.364 -0.376 -0.377 -0.377
 0.118  0.833 -0.280 -0.363 -0.375 -0.375 -0.375
 0.120  0.838 -0.276 -0.360 -0.373 -0.374 -0.374
 0.122  0.843 -0.273 -0.359 -0.372 -0.373 -0.373
 0.124  0.847 -0.270 -0.357 -0.371 -0.372 -0.372
 0.126  0.852 -0.267 -0.355 -0.370 -0.371 -0.371
 0.128  0.856 -0.264 -0.354 -0.369 -0.370 -0.370
 0.130  0.861 -0.261 -0.352 -0.367 -0.368 -0.368
 0.132  0.864 -0.257 -0.350 -0.366 -0.367 -0.367
 0.134  0.868 -0.254 -0.349 -0.365 -0.366 -0.366
 0.136  0.872 -0.251 -0.347 -0.364 -0.365 -0.365
 0.138  0.876 -0.249 -0.346 -0.362 -0.364 -0.364
 0.140  0.880 -0.246 -0.344 -0.361 -0.363 -0.363
 0.142  0.884 -0.243 -0.343 -0.359 -0.362 -0.362
 0.144  0.887 -0.240 -0.342 -0.358 -0.361 -0.361
 0.146  0.891 -0.237 -0.340 -0.357 -0.359 -0.359
 0.148  0.895 -0.234 -0.338 -0.355 -0.358 -0.358
 0.150  0.897 -0.232 -0.337 -0.354 -0.358 -0.358
 0.152  0.901 -0.229 -0.336 -0.352 -0.356 -0.356
 0.154  0.905 -0.225 -0.335 -0.351 -0.355 -0.355
 0.156  0.908 -0.223 -0.333 -0.350 -0.354 -0.354
 0.158  0.912 -0.220 -0.332 -0.348 -0.353 -0.353
 0.160  0.915 -0.217 -0.330 -0.347 -0.352 -0.352
 0.162  0.919 -0.214 -0.329 -0.345 -0.351 -0.351
 0.164  0.922 -0.211 -0.327 -0.344 -0.350 -0.350
 0.166  0.926 -0.208 -0.326 -0.343 -0.349 -0.349
 0.168  0.929 -0.205 -0.324 -0.341 -0.348 -0.348
 0.170  0.933 -0.202 -0.322 -0.339 -0.347 -0.347
 0.172  0.935 -0.199 -0.321 -0.338 -0.346 -0.346
 0.174  0.939 -0.196 -0.319 -0.337 -0.345 -0.345
 0.176  0.943 -0.193 -0.318 -0.335 -0.344 -0.344
 0.178  0.946 -0.190 -0.316 -0.333 -0.343 -0.343
 0.180  0.950 -0.187 -0.314 -0.332 -0.342 -0.342
 0.182  0.954 -0.183 -0.312 -0.330 -0.341 -0.341
 0.184  0.957 -0.180 -0.310 -0.329 -0.340 -0.340
 0.186  0.961 -0.177 -0.308 -0.327 -0.339 -0.339
 0.188  0.965 -0.174 -0.307 -0.325 -0.338 -0.338
 0.190  0.968 -0.170 -0.305 -0.324 -0.337 -0.337
 0.192  0.971 -0.167 -0.303 -0.322 -0.336 -0.336
 0.194  0.975 -0.164 -0.301 -0.321 -0.335 -0.335
 0.196  0.978 -0.161 -0.299 -0.319 -0.334 -0.334
 0.198  0.982 -0.157 -0.297 -0.318 -0.332 -0.332
 0.200  0.986 -0.154 -0.295 -0.316 -0.331 -0.331
 0.202  0.989 -0.151 -0.293 -0.315 -0.331 -0.331
 0.204  0.993 -0.147 -0.291 -0.314 -0.330 -0.330
 0.206  0.997 -0.144 -0.289 -0.312 -0.329 -0.329
 0.208  1.001 -0.140 -0.287 -0.311 -0.328 -0.328
 0.210  1.004 -0.137 -0.285 -0.309 -0.327 -0.327
 0.212  1.007 -0.133 -0.282 -0.308 -0.325 -0.325
 0.214  1.011 -0.130 -0.280 -0.307 -0.324 -0.324
 0.216  1.015 -0.126 -0.278 -0.306 -0.324 -0.324
 0.218  1.019 -0.123 -0.276 -0.304 -0.323 -0.323
 0.220  1.022 -0.119 -0.274 -0.303 -0.322 -0.322
 0.222  1.026 -0.116 -0.271 -0.302 -0.321 -0.321
 0.224  1.030 -0.112 -0.269 -0.301 -0.320 -0.320
 0.226  1.034 -0.109 -0.266 -0.300 -0.319 -0.319
 0.228  1.037 -0.105 -0.264 -0.298 -0.318 -0.318
 0.230  1.041 -0.102 -0.262 -0.297 -0.317 -0.317
 0.232  1.044 -0.099 -0.260 -0.296 -0.316 -0.316
 0.234  1.048 -0.095 -0.258 -0.295 -0.315 -0.315
 0.236  1.051 -0.092 -0.255 -0.294 -0.314 -0.314
 0.238  1.055 -0.089 -0.253 -0.293 -0.313 -0.313
 0.240  1.059 -0.086 -0.250 -0.292 -0.312 -0.312
 0.242  1.062 -0.083 -0.248 -0.291 -0.311 -0.311
 0.244  1.066 -0.081 -0.246 -0.290 -0.310 -0.310
 0.246  1.069 -0.077 -0.244 -0.289 -0.309 -0.309
 0.248  1.073 -0.074 -0.242 -0.287 -0.308 -0.308
 0.250  1.077 -0.071 -0.240 -0.287 -0.307 -0.307
 0.252  1.079 -0.068 -0.237 -0.286 -0.305 -0.305
 0.254  1.083 -0.066 -0.235 -0.285 -0.304 -0.304
 0.256  1.086 -0.063 -0.232 -0.284 -0.304 -0.304
 0.258  1.090 -0.060 -0.230 -0.283 -0.302 -0.302
 0.260  1.093 -0.057 -0.228 -0.282 -0.301 -0.301
 0.262  1.096 -0.054 -0.226 -0.281 -0.300 -0.300
 0.264  1.100 -0.052 -0.224 -0.280 -0.299 -0.299
 0.266  1.103 -0.049 -0.221 -0.279 -0.298 -0.298
 0.268  1.107 -0.046 -0.219 -0.279 -0.297 -0.297
 0.270  1.110 -0.044 -0.216 -0.278 -0.296 -0.296
 0.272  1.113 -0.042 -0.214 -0.277 -0.294 -0.294
 0.274  1.116 -0.039 -0.212 -0.276 -0.293 -0.293
 0.276  1.119 -0.036 -0.210 -0.274 -0.292 -0.292
 0.278  1.122 -0.034 -0.208 -0.273 -0.291 -0.291
 0.280  1.126 -0.031 -0.205 -0.272 -0.290 -0.290
 0.282  1.129 -0.029 -0.203 -0.271 -0.288 -0.288
 0.284  1.132 -0.027 -0.201 -0.270 -0.287 -0.287
 0.286  1.135 -0.024 -0.198 -0.269 -0.286 -0.286
 0.288  1.139 -0.022 -0.196 -0.268 -0.284 -0.284
 0.290  1.142 -0.020 -0.194 -0.266 -0.283 -0.283
 0.292  1.145 -0.017 -0.192 -0.265 -0.282 -0.282
 0.294  1.148 -0.015 -0.190 -0.264 -0.280 -0.280
 0.296  1.151 -0.013 -0.187 -0.263 -0.279 -0.279
 0.298  1.153 -0.010 -0.185 -0.261 -0.277 -0.277
 0.300  1.157 -0.008 -0.183 -0.260 -0.277 -0.277
 0.302  1.160 -0.006 -0.181 -0.258 -0.275 -0.275
 0.304  1.163 -0.003 -0.179 -0.257 -0.274 -0.274
 0.306  1.166 -0.001 -0.176 -0.256 -0.272 -0.272
 0.308  1.169  0.001 -0.174 -0.254 -0.271 -0.271
 0.310  1.172  0.004 -0.172 -0.252 -0.270 -0.270
 0.312  1.175  0.006 -0.170 -0.251 -0.268 -0.268
 0.314  1.178  0.008 -0.168 -0.250 -0.267 -0.267
 0.316  1.181  0.011 -0.166 -0.248 -0.265 -0.265
 0.318  1.183  0.013 -0.164 -0.246 -0.264 -0.264
 0.320  1.186  0.015 -0.163 -0.244 -0.263 -0.263
 0.322  1.189  0.018 -0.160 -0.243 -0.261 -0.261
 0.324  1.191  0.021 -0.159 -0.241 -0.260 -0.260
 0.326  1.194  0.023 -0.157 -0.240 -0.258 -0.258
 0.328  1.197  0.025 -0.155 -0.238 -0.257 -0.257
 0.330  1.199  0.028 -0.153 -0.236 -0.256 -0.256
 0.332  1.202  0.030 -0.152 -0.235 -0.255 -0.255
 0.334  1.205  0.033 -0.150 -0.233 -0.253 -0.253
 0.336  1.208  0.036 -0.148 -0.231 -0.252 -0.252
 0.338  1.210  0.038 -0.147 -0.229 -0.251 -0.251
 0.340  1.213  0.040 -0.145 -0.228 -0.250 -0.250
 0.342  1.216  0.043 -0.143 -0.226 -0.248 -0.248
 0.344  1.218  0.046 -0.142 -0.225 -0.247 -0.247
 0.346  1.221  0.048 -0.140 -0.223 -0.246 -0.246
 0.348  1.224  0.051 -0.138 -0.222 -0.245 -0.245
 0.350  1.225  0.053 -0.137 -0.220 -0.244 -0.244
 0.352  1.228  0.056 -0.136 -0.218 -0.242 -0.242
 0.354  1.230  0.059 -0.134 -0.217 -0.241 -0.241
 0.356  1.233  0.061 -0.133 -0.215 -0.240 -0.240
 0.358  1.235  0.064 -0.131 -0.214 -0.239 -0.239
 0.360  1.238  0.067 -0.130 -0.213 -0.237 -0.237
 0.362  1.240  0.069 -0.129 -0.211 -0.237 -0.237
 0.364  1.243  0.071 -0.127 -0.210 -0.235 -0.235
 0.366  1.245  0.074 -0.126 -0.208 -0.234 -0.234
 0.368  1.248  0.077 -0.125 -0.207 -0.233 -0.233
 0.370  1.250  0.079 -0.124 -0.206 -0.232 -0.232
 0.372  1.252  0.081 -0.122 -0.205 -0.231 -0.231
 0.374  1.255  0.084 -0.121 -0.203 -0.230 -0.230
 0.376  1.257  0.086 -0.119 -0.202 -0.229 -0.229
 0.378  1.260  0.089 -0.118 -0.201 -0.228 -0.228
 0.380  1.262  0.091 -0.116 -0.200 -0.227 -0.227
 0.382  1.264  0.093 -0.115 -0.198 -0.226 -0.226
 0.384  1.266  0.096 -0.114 -0.197 -0.224 -0.224
 0.386  1.269  0.098 -0.113 -0.196 -0.223 -0.223
 0.388  1.271  0.100 -0.112 -0.195 -0.223 -0.223
 0.390  1.274  0.103 -0.110 -0.194 -0.221 -0.221
 0.392  1.276  0.104 -0.109 -0.193 -0.220 -0.220
 0.394  1.279  0.106 -0.107 -0.192 -0.219 -0.219
 0.396  1.281  0.109 -0.106 -0.191 -0.218 -0.218
 0.398  1.284  0.111 -0.105 -0.190 -0.217 -0.217
 0.400  1.286  0.113 -0.103 -0.189 -0.216 -0.216
 0.402  1.289  0.115 -0.102 -0.188 -0.214 -0.214
 0.404  1.291  0.117 -0.101 -0.187 -0.213 -0.213
 0.406  1.294  0.119 -0.099 -0.186 -0.212 -0.212
 0.408  1.296  0.121 -0.098 -0.185 -0.210 -0.210
 0.410  1.298  0.123 -0.097 -0.184 -0.210 -0.210
 0.412  1.300  0.124 -0.096 -0.183 -0.208 -0.208
 0.414  1.303  0.127 -0.094 -0.182 -0.207 -0.207
 0.416  1.305  0.128 -0.093 -0.181 -0.206 -0.206
 0.418  1.308  0.131 -0.091 -0.180 -0.204 -0.204
 0.420  1.310  0.132 -0.090 -0.179 -0.203 -0.203
 0.422  1.313  0.134 -0.089 -0.178 -0.202 -0.202
 0.424  1.315  0.135 -0.087 -0.177 -0.200 -0.200
 0.426  1.318  0.138 -0.086 -0.176 -0.199 -0.199
 0.428  1.320  0.139 -0.085 -0.174 -0.198 -0.198
 0.430  1.323  0.141 -0.083 -0.173 -0.196 -0.196
 0.432  1.325  0.142 -0.082 -0.172 -0.195 -0.195
 0.434  1.328  0.144 -0.081 -0.172 -0.194 -0.194
 0.436  1.330  0.145 -0.080 -0.170 -0.192 -0.192
 0.438  1.333  0.147 -0.078 -0.169 -0.190 -0.190
 0.440  1.334  0.149 -0.077 -0.168 -0.189 -0.189
 0.442  1.337  0.150 -0.076 -0.167 -0.188 -0.188
 0.444  1.339  0.152 -0.074 -0.166 -0.186 -0.186
 0.446  1.341  0.153 -0.073 -0.165 -0.185 -0.185
 0.448  1.344  0.155 -0.072 -0.164 -0.183 -0.183
 0.450  1.346  0.156 -0.071 -0.163 -0.182 -0.182
 0.452  1.348  0.158 -0.069 -0.161 -0.180 -0.180
 0.454  1.350  0.159 -0.068 -0.160 -0.179 -0.179
 0.456  1.352  0.161 -0.067 -0.159 -0.177 -0.177
 0.458  1.354  0.163 -0.066 -0.158 -0.176 -0.176
 0.460  1.356  0.164 -0.064 -0.157 -0.175 -0.175
 0.462  1.358  0.166 -0.063 -0.156 -0.173 -0.173
 0.464  1.360  0.167 -0.062 -0.154 -0.172 -0.172
 0.466  1.362  0.169 -0.061 -0.153 -0.170 -0.170
 0.468  1.364  0.170 -0.060 -0.152 -0.169 -0.169
 0.470  1.366  0.171 -0.059 -0.151 -0.168 -0.168
 0.472  1.367  0.173 -0.057 -0.150 -0.167 -0.167
 0.474  1.369  0.174 -0.056 -0.149 -0.165 -0.165
 0.476  1.371  0.176 -0.055 -0.148 -0.164 -0.164
 0.478  1.371  0.177 -0.054 -0.146 -0.163 -0.163
 0.480  1.373  0.178 -0.053 -0.145 -0.162 -0.162
 0.482  1.375  0.180 -0.052 -0.144 -0.161 -0.161
 0.484  1.376  0.181 -0.051 -0.143 -0.159 -0.159
 0.486  1.377  0.182 -0.049 -0.142 -0.158 -0.158
 0.488  1.379  0.184 -0.048 -0.141 -0.157 -0.157
 0.490  1.380  0.185 -0.047 -0.140 -0.156 -0.156
 0.492  1.381  0.186 -0.046 -0.139 -0.155 -0.155
 0.494  1.383  0.187 -0.045 -0.138 -0.154 -0.154
 0.496  1.384  0.188 -0.044 -0.137 -0.153 -0.153
 0.498  1.385  0.190 -0.043 -0.136 -0.152 -0.152
 0.500  1.386  0.191 -0.042 -0.135 -0.151 -0.151
 0.502  1.387  0.192 -0.041 -0.134 -0.150 -0.150
 0.504  1.388  0.194 -0.040 -0.133 -0.149 -0.149
 0.506  1.389  0.194 -0.039 -0.132 -0.149 -0.149
 0.508  1.390  0.196 -0.038 -0.132 -0.148 -0.148
 0.510  1.391  0.197 -0.037 -0.131 -0.147 -0.147
 0.512  1.392  0.198 -0.036 -0.130 -0.146 -0.146
 0.514  1.393  0.199 -0.035 -0.129 -0.145 -0.145
 0.516  1.394  0.200 -0.034 -0.129 -0.145 -0.145
 0.518  1.395  0.201 -0.033 -0.128 -0.144 -0.144
 0.520  1.396  0.201 -0.032 -0.127 -0.143 -0.143
 0.522  1.397  0.202 -0.031 -0.126 -0.143 -0.143
 0.524  1.397  0.203 -0.030 -0.126 -0.142 -0.142
 0.526  1.398  0.204 -0.029 -0.125 -0.141 -0.141
 0.528  1.399  0.205 -0.029 -0.124 -0.141 -0.141
 0.530  1.400  0.205 -0.027 -0.124 -0.140 -0.140
 0.532  1.401  0.206 -0.026 -0.123 -0.139 -0.139
 0.534  1.401  0.207 -0.026 -0.122 -0.138 -0.138
 0.536  1.402  0.208 -0.025 -0.122 -0.138 -0.138
 0.538  1.403  0.208 -0.024 -0.122 -0.137 -0.137
 0.540  1.404  0.208 -0.023 -0.121 -0.136 -0.136
 0.542  1.404  0.209 -0.022 -0.121 -0.136 -0.136
 0.544  1.405  0.210 -0.021 -0.120 -0.135 -0.135
 0.546  1.406  0.210 -0.020 -0.120 -0.135 -0.135
 0.548  1.407  0.211 -0.020 -0.119 -0.134 -0.134
 0.550  1.407  0.211 -0.019 -0.119 -0.133 -0.133
 0.552  1.407  0.212 -0.018 -0.118 -0.132 -0.132
 0.554  1.408  0.212 -0.018 -0.118 -0.132 -0.132
 0.556  1.408  0.212 -0.016 -0.117 -0.131 -0.131
 0.558  1.409  0.212 -0.016 -0.117 -0.130 -0.130
 0.560  1.409  0.212 -0.015 -0.116 -0.129 -0.129
 0.562  1.410  0.212 -0.014 -0.116 -0.129 -0.129
 0.564  1.411  0.212 -0.014 -0.115 -0.128 -0.128
 0.566  1.411  0.212 -0.013 -0.115 -0.128 -0.128
 0.568  1.412  0.212 -0.013 -0.115 -0.127 -0.127
 0.570  1.412  0.213 -0.012 -0.114 -0.126 -0.126
 0.572  1.413  0.213 -0.011 -0.114 -0.125 -0.125
 0.574  1.413  0.213 -0.010 -0.113 -0.125 -0.125
 0.576  1.414  0.213 -0.010 -0.113 -0.124 -0.124
 0.578  1.414  0.213 -0.009 -0.112 -0.123 -0.123
 0.580  1.415  0.213 -0.008 -0.112 -0.123 -0.123
 0.582  1.415  0.213 -0.008 -0.111 -0.122 -0.122
 0.584  1.416  0.213 -0.007 -0.110 -0.121 -0.121
 0.586  1.416  0.213 -0.006 -0.110 -0.121 -0.121
 0.588  1.417  0.213 -0.005 -0.109 -0.120 -0.120
 0.590  1.417  0.213 -0.005 -0.109 -0.119 -0.119
 0.592  1.417  0.213 -0.004 -0.108 -0.118 -0.118
 0.594  1.418  0.213 -0.003 -0.108 -0.118 -0.118
 0.596  1.418  0.213 -0.003 -0.108 -0.117 -0.117
 0.598  1.418  0.214 -0.002 -0.107 -0.116 -0.116
 0.600  1.419  0.214 -0.001 -0.107 -0.116 -0.116
 0.602  1.419  0.214 -0.001 -0.106 -0.115 -0.115
 0.604  1.419  0.214  0.001 -0.106 -0.114 -0.114
 0.606  1.420  0.215  0.001 -0.105 -0.113 -0.113
 0.608  1.420  0.215  0.002 -0.104 -0.112 -0.112
 0.610  1.420  0.215  0.003 -0.104 -0.112 -0.112
 0.612  1.420  0.215  0.004 -0.103 -0.111 -0.111
 0.614  1.421  0.216  0.004 -0.103 -0.110 -0.110
 0.616  1.421  0.216  0.006 -0.102 -0.109 -0.109
 0.618  1.421  0.216  0.006 -0.102 -0.108 -0.108
 0.620  1.421  0.216  0.007 -0.101 -0.108 -0.108
 0.622  1.421  0.216  0.008 -0.101 -0.107 -0.107
 0.624  1.421  0.216  0.009 -0.100 -0.106 -0.106
 0.626  1.422  0.217  0.010 -0.100 -0.105 -0.105
 0.628  1.422  0.217  0.010 -0.100 -0.104 -0.104
 0.630  1.422  0.217  0.012 -0.099 -0.103 -0.103
 0.632  1.422  0.218  0.013 -0.099 -0.102 -0.102
 0.634  1.422  0.218  0.013 -0.098 -0.101 -0.101
 0.636  1.422  0.219  0.014 -0.098 -0.100 -0.100
 0.638  1.422  0.219  0.015 -0.097 -0.099 -0.099
 0.640  1.422  0.219  0.016 -0.097 -0.098 -0.098
 0.642  1.422  0.219  0.017 -0.097 -0.097 -0.097
 0.644  1.422  0.219  0.018 -0.096 -0.096 -0.096
 0.646  1.422  0.220  0.019 -0.096 -0.095 -0.095
 0.648  1.422  0.221  0.020 -0.095 -0.094 -0.094
 0.650  1.422  0.221  0.021 -0.095 -0.093 -0.093
 0.652  1.422  0.222  0.023 -0.095 -0.092 -0.092
 0.654  1.422  0.223  0.024 -0.094 -0.090 -0.090
 0.656  1.421  0.223  0.025 -0.094 -0.089 -0.089
 0.658  1.421  0.223  0.026 -0.094 -0.089 -0.089
 0.660  1.421  0.224  0.027 -0.094 -0.087 -0.087
 0.662  1.421  0.225  0.029 -0.093 -0.086 -0.086
 0.664  1.421  0.226  0.030 -0.093 -0.085 -0.085
 0.666  1.421  0.227  0.031 -0.093 -0.084 -0.084
 0.668  1.420  0.228  0.032 -0.093 -0.082 -0.082
 0.670  1.420  0.229  0.034 -0.093 -0.081 -0.081
 0.672  1.420  0.230  0.035 -0.093 -0.080 -0.080
 0.674  1.420  0.230  0.037 -0.092 -0.079 -0.079
 0.676  1.419  0.232  0.038 -0.092 -0.077 -0.077
 0.678  1.419  0.233  0.040 -0.092 -0.076 -0.076
 0.680  1.419  0.234  0.042 -0.092 -0.074 -0.074
 0.682  1.418  0.235  0.043 -0.092 -0.073 -0.073
 0.684  1.418  0.237  0.045 -0.092 -0.071 -0.071
 0.686  1.418  0.237  0.047 -0.092 -0.069 -0.069
 0.688  1.417  0.239  0.049 -0.092 -0.068 -0.068
 0.690  1.417  0.240  0.051 -0.091 -0.066 -0.066
 0.692  1.417  0.242  0.053 -0.091 -0.065 -0.065
 0.694  1.416  0.243  0.054 -0.091 -0.063 -0.063
 0.696  1.416  0.244  0.057 -0.091 -0.061 -0.061
 0.698  1.416  0.246  0.058 -0.090 -0.059 -0.059
 0.700  1.415  0.247  0.060 -0.090 -0.057 -0.057
 0.702  1.415  0.250  0.063 -0.090 -0.055 -0.055
 0.704  1.414  0.251  0.065 -0.089 -0.054 -0.054
 0.706  1.414  0.253  0.067 -0.089 -0.051 -0.051
 0.708  1.413  0.254  0.069 -0.089 -0.049 -0.049
 0.710  1.413  0.256  0.071 -0.088 -0.047 -0.047
 0.712  1.412  0.258  0.074 -0.088 -0.045 -0.045
 0.714  1.411  0.260  0.076 -0.087 -0.043 -0.043
 0.716  1.411  0.261  0.079 -0.087 -0.041 -0.041
 0.718  1.410  0.264  0.081 -0.086 -0.038 -0.038
 0.720  1.410  0.265  0.083 -0.086 -0.036 -0.036
 0.722  1.409  0.267  0.085 -0.085 -0.034 -0.034
 0.724  1.409  0.269  0.087 -0.085 -0.031 -0.031
 0.726  1.409  0.271  0.088 -0.084 -0.028 -0.028
 0.728  1.409  0.272  0.090 -0.083 -0.026 -0.026
 0.730  1.409  0.275  0.091 -0.082 -0.023 -0.023
 0.732  1.409  0.276  0.091 -0.082 -0.021 -0.021
 0.734  1.409  0.278  0.092 -0.081 -0.018 -0.018
 0.736  1.410  0.280  0.092 -0.080 -0.016 -0.016
 0.738  1.411  0.282  0.091 -0.079 -0.013 -0.013
 0.740  1.412  0.283  0.091 -0.078 -0.011 -0.011
 0.742  1.413  0.285  0.090 -0.077 -0.008 -0.008
 0.744  1.415  0.287  0.088 -0.076 -0.006 -0.006
 0.746  1.416  0.289  0.087 -0.075 -0.004 -0.004
 0.748  1.418  0.290  0.085 -0.074 -0.001 -0.001
 0.750  1.419  0.292  0.084 -0.073  0.001  0.001
 0.752  1.421  0.293  0.081 -0.072  0.003  0.003
 0.754  1.423  0.295  0.079 -0.072  0.005  0.005
 0.756  1.426  0.297  0.076 -0.070  0.006  0.006
 0.758  1.428  0.298  0.073 -0.069  0.008  0.008
 0.760  1.430  0.299  0.069 -0.068  0.009  0.009
 0.762  1.433  0.300  0.066 -0.067  0.011  0.011
 0.764  1.436  0.302  0.062 -0.065  0.012  0.012
 0.766  1.439  0.304  0.058 -0.065  0.013  0.013
 0.768  1.442  0.305  0.053 -0.063  0.014  0.014
 0.770  1.445  0.307  0.048 -0.062  0.015  0.015
 0.772  1.449  0.308  0.042 -0.060  0.016  0.016
 0.774  1.453  0.310  0.037 -0.059  0.017  0.017
 0.776  1.457  0.311  0.031 -0.058  0.017  0.017
 0.778  1.462  0.313  0.025 -0.056  0.018  0.018
 0.780  1.466  0.314  0.018 -0.055  0.018  0.018
 0.782  1.471  0.316  0.012 -0.053  0.019  0.019
 0.784  1.475  0.318  0.004 -0.051  0.019  0.019
 0.786  1.480  0.318 -0.003 -0.050  0.019  0.019
 0.788  1.484  0.319 -0.010 -0.049  0.019  0.019
 0.790  1.489  0.320 -0.018 -0.047  0.019  0.019
 0.792  1.494  0.320 -0.025 -0.045  0.019  0.019
 0.794  1.498  0.320 -0.032 -0.044  0.019  0.019
 0.796  1.503  0.319 -0.040 -0.043  0.019  0.019
 0.798  1.507  0.318 -0.048 -0.041  0.018  0.018
 0.800  1.511  0.317 -0.055 -0.039  0.017  0.017
 0.802  1.515  0.315 -0.063 -0.038  0.017  0.017
 0.804  1.518  0.314 -0.071 -0.036  0.016  0.016
 0.806  1.522  0.311 -0.079 -0.035  0.015  0.015
 0.808  1.525  0.308 -0.086 -0.033  0.014  0.014
