# IsPeriodic    : True
# Period        : 0.507847 days
# Normalization : <g_mag>=0
# 
# Phase u_mag  g_mag  r_mag  i_mag  z_mag  y_mag
 0.000  0.305 -0.854 -0.703 -0.568 -0.486 -0.486
 0.002  0.305 -0.854 -0.703 -0.568 -0.486 -0.486
 0.004  0.308 -0.854 -0.703 -0.568 -0.485 -0.485
 0.006  0.310 -0.852 -0.702 -0.567 -0.485 -0.485
 0.008  0.314 -0.851 -0.701 -0.565 -0.484 -0.484
 0.010  0.319 -0.848 -0.699 -0.564 -0.483 -0.483
 0.012  0.324 -0.846 -0.697 -0.562 -0.482 -0.482
 0.014  0.331 -0.843 -0.696 -0.560 -0.480 -0.480
 0.016  0.337 -0.841 -0.694 -0.558 -0.478 -0.478
 0.018  0.346 -0.838 -0.692 -0.555 -0.477 -0.477
 0.020  0.353 -0.834 -0.689 -0.552 -0.475 -0.475
 0.022  0.361 -0.830 -0.687 -0.549 -0.473 -0.473
 0.024  0.369 -0.826 -0.684 -0.547 -0.472 -0.472
 0.026  0.377 -0.822 -0.681 -0.544 -0.470 -0.470
 0.028  0.386 -0.819 -0.678 -0.541 -0.467 -0.467
 0.030  0.393 -0.815 -0.675 -0.539 -0.465 -0.465
 0.032  0.401 -0.809 -0.672 -0.536 -0.463 -0.463
 0.034  0.409 -0.804 -0.669 -0.533 -0.461 -0.461
 0.036  0.416 -0.799 -0.665 -0.530 -0.460 -0.460
 0.038  0.423 -0.794 -0.661 -0.527 -0.457 -0.457
 0.040  0.430 -0.789 -0.658 -0.525 -0.455 -0.455
 0.042  0.439 -0.782 -0.653 -0.522 -0.453 -0.453
 0.044  0.446 -0.777 -0.649 -0.519 -0.450 -0.450
 0.046  0.454 -0.771 -0.646 -0.516 -0.448 -0.448
 0.048  0.461 -0.764 -0.641 -0.513 -0.446 -0.446
 0.050  0.468 -0.758 -0.636 -0.510 -0.443 -0.443
 0.052  0.475 -0.750 -0.631 -0.506 -0.440 -0.440
 0.054  0.483 -0.742 -0.626 -0.503 -0.438 -0.438
 0.056  0.491 -0.734 -0.621 -0.499 -0.434 -0.434
 0.058  0.498 -0.726 -0.616 -0.495 -0.432 -0.432
 0.060  0.506 -0.719 -0.610 -0.492 -0.429 -0.429
 0.062  0.513 -0.711 -0.604 -0.488 -0.426 -0.426
 0.064  0.520 -0.702 -0.599 -0.484 -0.422 -0.422
 0.066  0.528 -0.693 -0.593 -0.480 -0.419 -0.419
 0.068  0.535 -0.684 -0.587 -0.476 -0.416 -0.416
 0.070  0.542 -0.674 -0.580 -0.473 -0.413 -0.413
 0.072  0.549 -0.665 -0.574 -0.469 -0.409 -0.409
 0.074  0.557 -0.656 -0.568 -0.465 -0.406 -0.406
 0.076  0.564 -0.647 -0.562 -0.460 -0.403 -0.403
 0.078  0.571 -0.637 -0.555 -0.457 -0.399 -0.399
 0.080  0.579 -0.628 -0.550 -0.453 -0.396 -0.396
 0.082  0.585 -0.619 -0.543 -0.449 -0.393 -0.393
 0.084  0.592 -0.610 -0.536 -0.444 -0.389 -0.389
 0.086  0.599 -0.600 -0.530 -0.441 -0.386 -0.386
 0.088  0.606 -0.591 -0.525 -0.437 -0.383 -0.383
 0.090  0.612 -0.582 -0.519 -0.433 -0.380 -0.380
 0.092  0.620 -0.573 -0.513 -0.429 -0.377 -0.377
 0.094  0.627 -0.565 -0.507 -0.425 -0.373 -0.373
 0.096  0.633 -0.556 -0.501 -0.422 -0.370 -0.370
 0.098  0.640 -0.549 -0.496 -0.419 -0.367 -0.367
 0.100  0.646 -0.541 -0.490 -0.415 -0.365 -0.365
 0.102  0.654 -0.533 -0.485 -0.412 -0.361 -0.361
 0.104  0.660 -0.525 -0.479 -0.408 -0.359 -0.359
 0.106  0.666 -0.517 -0.475 -0.405 -0.356 -0.356
 0.108  0.673 -0.510 -0.470 -0.401 -0.353 -0.353
 0.110  0.679 -0.503 -0.464 -0.398 -0.350 -0.350
 0.112  0.685 -0.495 -0.459 -0.395 -0.348 -0.348
 0.114  0.691 -0.488 -0.454 -0.392 -0.345 -0.345
 0.116  0.697 -0.481 -0.450 -0.389 -0.343 -0.343
 0.118  0.704 -0.475 -0.445 -0.386 -0.340 -0.340
 0.120  0.710 -0.467 -0.440 -0.383 -0.338 -0.338
 0.122  0.716 -0.460 -0.435 -0.380 -0.335 -0.335
 0.124  0.721 -0.454 -0.430 -0.377 -0.333 -0.333
 0.126  0.727 -0.447 -0.426 -0.374 -0.330 -0.330
 0.128  0.733 -0.441 -0.422 -0.371 -0.328 -0.328
 0.130  0.737 -0.436 -0.418 -0.369 -0.326 -0.326
 0.132  0.744 -0.429 -0.414 -0.366 -0.323 -0.323
 0.134  0.748 -0.424 -0.410 -0.364 -0.321 -0.321
 0.136  0.754 -0.419 -0.405 -0.361 -0.319 -0.319
 0.138  0.759 -0.412 -0.402 -0.358 -0.317 -0.317
 0.140  0.765 -0.407 -0.398 -0.356 -0.315 -0.315
 0.142  0.770 -0.402 -0.395 -0.354 -0.313 -0.313
 0.144  0.775 -0.397 -0.391 -0.352 -0.311 -0.311
 0.146  0.780 -0.391 -0.387 -0.349 -0.309 -0.309
 0.148  0.785 -0.386 -0.383 -0.347 -0.307 -0.307
 0.150  0.790 -0.381 -0.379 -0.345 -0.306 -0.306
 0.152  0.795 -0.376 -0.377 -0.343 -0.304 -0.304
 0.154  0.799 -0.371 -0.373 -0.341 -0.302 -0.302
 0.156  0.804 -0.366 -0.369 -0.339 -0.300 -0.300
 0.158  0.809 -0.360 -0.366 -0.336 -0.298 -0.298
 0.160  0.814 -0.355 -0.362 -0.334 -0.296 -0.296
 0.162  0.818 -0.350 -0.358 -0.333 -0.294 -0.294
 0.164  0.822 -0.345 -0.355 -0.330 -0.292 -0.292
 0.166  0.827 -0.340 -0.352 -0.328 -0.290 -0.290
 0.168  0.832 -0.334 -0.349 -0.326 -0.289 -0.289
 0.170  0.836 -0.329 -0.345 -0.324 -0.287 -0.287
 0.172  0.841 -0.324 -0.341 -0.322 -0.285 -0.285
 0.174  0.846 -0.319 -0.338 -0.320 -0.283 -0.283
 0.176  0.850 -0.314 -0.334 -0.317 -0.281 -0.281
 0.178  0.854 -0.308 -0.331 -0.315 -0.279 -0.279
 0.180  0.859 -0.303 -0.328 -0.313 -0.277 -0.277
 0.182  0.864 -0.298 -0.324 -0.311 -0.275 -0.275
 0.184  0.867 -0.293 -0.321 -0.308 -0.273 -0.273
 0.186  0.872 -0.288 -0.317 -0.307 -0.272 -0.272
 0.188  0.877 -0.282 -0.314 -0.304 -0.270 -0.270
 0.190  0.881 -0.277 -0.310 -0.302 -0.268 -0.268
 0.192  0.886 -0.272 -0.307 -0.300 -0.267 -0.267
 0.194  0.889 -0.267 -0.303 -0.298 -0.265 -0.265
 0.196  0.894 -0.262 -0.301 -0.295 -0.263 -0.263
 0.198  0.899 -0.256 -0.298 -0.293 -0.261 -0.261
 0.200  0.903 -0.251 -0.294 -0.291 -0.259 -0.259
 0.202  0.907 -0.246 -0.291 -0.288 -0.257 -0.257
 0.204  0.911 -0.241 -0.287 -0.286 -0.255 -0.255
 0.206  0.916 -0.236 -0.284 -0.285 -0.253 -0.253
 0.208  0.921 -0.229 -0.281 -0.282 -0.251 -0.251
 0.210  0.924 -0.224 -0.278 -0.280 -0.250 -0.250
 0.212  0.929 -0.219 -0.275 -0.278 -0.248 -0.248
 0.214  0.933 -0.214 -0.271 -0.276 -0.246 -0.246
 0.216  0.938 -0.208 -0.268 -0.273 -0.244 -0.244
 0.218  0.941 -0.203 -0.265 -0.271 -0.242 -0.242
 0.220  0.946 -0.198 -0.261 -0.269 -0.240 -0.240
 0.222  0.950 -0.193 -0.258 -0.266 -0.238 -0.238
 0.224  0.955 -0.188 -0.255 -0.264 -0.236 -0.236
 0.226  0.958 -0.183 -0.253 -0.262 -0.234 -0.234
 0.228  0.963 -0.177 -0.249 -0.260 -0.233 -0.233
 0.230  0.967 -0.172 -0.246 -0.257 -0.231 -0.231
 0.232  0.972 -0.167 -0.243 -0.255 -0.229 -0.229
 0.234  0.975 -0.162 -0.240 -0.253 -0.228 -0.228
 0.236  0.979 -0.158 -0.237 -0.250 -0.226 -0.226
 0.238  0.984 -0.153 -0.234 -0.249 -0.224 -0.224
 0.240  0.987 -0.147 -0.231 -0.247 -0.222 -0.222
 0.242  0.991 -0.144 -0.228 -0.244 -0.221 -0.221
 0.244  0.996 -0.138 -0.225 -0.242 -0.219 -0.219
 0.246  1.000 -0.134 -0.222 -0.240 -0.217 -0.217
 0.248  1.003 -0.129 -0.219 -0.238 -0.216 -0.216
 0.250  1.007 -0.125 -0.216 -0.236 -0.214 -0.214
 0.252  1.011 -0.120 -0.213 -0.234 -0.212 -0.212
 0.254  1.014 -0.116 -0.210 -0.231 -0.211 -0.211
 0.256  1.018 -0.112 -0.208 -0.230 -0.209 -0.209
 0.258  1.021 -0.107 -0.205 -0.228 -0.207 -0.207
 0.260  1.025 -0.103 -0.203 -0.225 -0.206 -0.206
 0.262  1.029 -0.099 -0.200 -0.224 -0.204 -0.204
 0.264  1.032 -0.096 -0.197 -0.221 -0.202 -0.202
 0.266  1.036 -0.092 -0.194 -0.219 -0.200 -0.200
 0.268  1.040 -0.088 -0.191 -0.218 -0.199 -0.199
 0.270  1.042 -0.084 -0.189 -0.215 -0.197 -0.197
 0.272  1.046 -0.080 -0.186 -0.213 -0.196 -0.196
 0.274  1.049 -0.076 -0.183 -0.212 -0.194 -0.194
 0.276  1.053 -0.072 -0.180 -0.209 -0.193 -0.193
 0.278  1.055 -0.068 -0.179 -0.208 -0.191 -0.191
 0.280  1.059 -0.066 -0.176 -0.206 -0.190 -0.190
 0.282  1.062 -0.062 -0.173 -0.204 -0.188 -0.188
 0.284  1.065 -0.058 -0.171 -0.202 -0.187 -0.187
 0.286  1.069 -0.055 -0.168 -0.200 -0.185 -0.185
 0.288  1.071 -0.051 -0.165 -0.198 -0.184 -0.184
 0.290  1.074 -0.048 -0.163 -0.196 -0.182 -0.182
 0.292  1.077 -0.045 -0.160 -0.194 -0.180 -0.180
 0.294  1.080 -0.041 -0.158 -0.193 -0.179 -0.179
 0.296  1.082 -0.037 -0.156 -0.190 -0.178 -0.178
 0.298  1.086 -0.035 -0.154 -0.189 -0.176 -0.176
 0.300  1.088 -0.031 -0.151 -0.187 -0.175 -0.175
 0.302  1.091 -0.028 -0.148 -0.185 -0.173 -0.173
 0.304  1.094 -0.024 -0.146 -0.183 -0.172 -0.172
 0.306  1.097 -0.020 -0.143 -0.181 -0.170 -0.170
 0.308  1.099 -0.018 -0.141 -0.180 -0.169 -0.169
 0.310  1.102 -0.014 -0.138 -0.177 -0.167 -0.167
 0.312  1.105 -0.010 -0.136 -0.176 -0.166 -0.166
 0.314  1.108 -0.007 -0.133 -0.174 -0.165 -0.165
 0.316  1.110 -0.003 -0.131 -0.172 -0.163 -0.163
 0.318  1.114  0.001 -0.129 -0.170 -0.161 -0.161
 0.320  1.116  0.004 -0.126 -0.168 -0.160 -0.160
 0.322  1.119  0.008 -0.124 -0.167 -0.158 -0.158
 0.324  1.122  0.011 -0.121 -0.164 -0.157 -0.157
 0.326  1.125  0.015 -0.118 -0.163 -0.156 -0.156
 0.328  1.128  0.019 -0.116 -0.161 -0.154 -0.154
 0.330  1.131  0.023 -0.113 -0.159 -0.153 -0.153
 0.332  1.134  0.026 -0.111 -0.157 -0.151 -0.151
 0.334  1.137  0.029 -0.108 -0.155 -0.150 -0.150
 0.336  1.139  0.033 -0.107 -0.153 -0.148 -0.148
 0.338  1.143  0.037 -0.104 -0.151 -0.147 -0.147
 0.340  1.146  0.041 -0.102 -0.149 -0.146 -0.146
 0.342  1.149  0.045 -0.099 -0.148 -0.144 -0.144
 0.344  1.153  0.049 -0.096 -0.145 -0.143 -0.143
 0.346  1.155  0.051 -0.094 -0.144 -0.141 -0.141
 0.348  1.159  0.055 -0.091 -0.142 -0.139 -0.139
 0.350  1.161  0.059 -0.089 -0.140 -0.138 -0.138
 0.352  1.165  0.063 -0.086 -0.138 -0.137 -0.137
 0.354  1.168  0.067 -0.084 -0.136 -0.135 -0.135
 0.356  1.171  0.071 -0.082 -0.134 -0.134 -0.134
 0.358  1.174  0.075 -0.079 -0.132 -0.133 -0.133
 0.360  1.178  0.078 -0.077 -0.130 -0.131 -0.131
 0.362  1.182  0.082 -0.074 -0.129 -0.129 -0.129
 0.364  1.184  0.086 -0.072 -0.126 -0.128 -0.128
 0.366  1.188  0.090 -0.069 -0.125 -0.127 -0.127
 0.368  1.191  0.094 -0.067 -0.123 -0.125 -0.125
 0.370  1.195  0.098 -0.064 -0.121 -0.124 -0.124
 0.372  1.197  0.100 -0.062 -0.119 -0.123 -0.123
 0.374  1.201  0.104 -0.059 -0.117 -0.121 -0.121
 0.376  1.205  0.108 -0.057 -0.116 -0.119 -0.119
 0.378  1.208  0.112 -0.055 -0.113 -0.117 -0.117
 0.380  1.212  0.116 -0.053 -0.112 -0.116 -0.116
 0.382  1.214  0.120 -0.050 -0.110 -0.115 -0.115
 0.384  1.218  0.124 -0.048 -0.108 -0.113 -0.113
 0.386  1.222  0.126 -0.045 -0.106 -0.112 -0.112
 0.388  1.224  0.130 -0.043 -0.104 -0.110 -0.110
 0.390  1.228  0.134 -0.040 -0.102 -0.109 -0.109
 0.392  1.231  0.138 -0.038 -0.101 -0.107 -0.107
 0.394  1.234  0.142 -0.035 -0.098 -0.106 -0.106
 0.396  1.237  0.145 -0.033 -0.097 -0.104 -0.104
 0.398  1.240  0.149 -0.031 -0.095 -0.102 -0.102
 0.400  1.244  0.152 -0.029 -0.093 -0.100 -0.100
 0.402  1.246  0.156 -0.026 -0.091 -0.099 -0.099
 0.404  1.250  0.160 -0.024 -0.089 -0.097 -0.097
 0.406  1.252  0.163 -0.021 -0.088 -0.096 -0.096
 0.408  1.256  0.167 -0.019 -0.085 -0.094 -0.094
 0.410  1.258  0.171 -0.016 -0.084 -0.092 -0.092
 0.412  1.262  0.173 -0.014 -0.082 -0.091 -0.091
 0.414  1.264  0.177 -0.011 -0.080 -0.089 -0.089
 0.416  1.267  0.181 -0.009 -0.078 -0.088 -0.088
 0.418  1.270  0.185 -0.008 -0.076 -0.086 -0.086
 0.420  1.273  0.187 -0.005 -0.075 -0.084 -0.084
 0.422  1.275  0.191 -0.003 -0.073 -0.083 -0.083
 0.424  1.278  0.195  0.000 -0.071 -0.081 -0.081
 0.426  1.281  0.198  0.002 -0.069 -0.079 -0.079
 0.428  1.284  0.202  0.005 -0.068 -0.078 -0.078
 0.430  1.286  0.204  0.007 -0.066 -0.076 -0.076
 0.432  1.288  0.208  0.009 -0.064 -0.074 -0.074
 0.434  1.291  0.212  0.012 -0.062 -0.073 -0.073
 0.436  1.293  0.215  0.014 -0.060 -0.071 -0.071
 0.438  1.296  0.219  0.017 -0.059 -0.069 -0.069
 0.440  1.298  0.221  0.018 -0.056 -0.068 -0.068
 0.442  1.301  0.225  0.020 -0.055 -0.066 -0.066
 0.444  1.303  0.228  0.023 -0.053 -0.064 -0.064
 0.446  1.305  0.230  0.025 -0.051 -0.063 -0.063
 0.448  1.308  0.234  0.027 -0.050 -0.061 -0.061
 0.450  1.310  0.237  0.029 -0.048 -0.060 -0.060
 0.452  1.313  0.239  0.032 -0.046 -0.058 -0.058
 0.454  1.315  0.243  0.034 -0.044 -0.056 -0.056
 0.456  1.318  0.246  0.036 -0.043 -0.055 -0.055
 0.458  1.320  0.248  0.038 -0.041 -0.053 -0.053
 0.460  1.322  0.251  0.041 -0.039 -0.051 -0.051
 0.462  1.325  0.254  0.042 -0.037 -0.050 -0.050
 0.464  1.326  0.258  0.044 -0.036 -0.049 -0.049
 0.466  1.329  0.260  0.046 -0.034 -0.047 -0.047
 0.468  1.331  0.263  0.048 -0.033 -0.046 -0.046
 0.470  1.333  0.265  0.050 -0.031 -0.045 -0.045
 0.472  1.335  0.268  0.053 -0.029 -0.043 -0.043
 0.474  1.337  0.271  0.055 -0.027 -0.041 -0.041
 0.476  1.339  0.273  0.057 -0.026 -0.040 -0.040
 0.478  1.342  0.274  0.059 -0.024 -0.039 -0.039
 0.480  1.343  0.277  0.061 -0.022 -0.037 -0.037
 0.482  1.345  0.280  0.063 -0.021 -0.036 -0.036
 0.484  1.348  0.282  0.065 -0.019 -0.034 -0.034
 0.486  1.349  0.285  0.066 -0.018 -0.033 -0.033
 0.488  1.352  0.286  0.068 -0.016 -0.032 -0.032
 0.490  1.353  0.289  0.070 -0.015 -0.031 -0.031
 0.492  1.355  0.291  0.072 -0.013 -0.029 -0.029
 0.494  1.356  0.293  0.074 -0.011 -0.028 -0.028
 0.496  1.359  0.295  0.076 -0.009 -0.027 -0.027
 0.498  1.361  0.298  0.078 -0.008 -0.026 -0.026
 0.500  1.362  0.299  0.080 -0.006 -0.024 -0.024
 0.502  1.365  0.302  0.082 -0.005 -0.023 -0.023
 0.504  1.366  0.303  0.084 -0.003 -0.022 -0.022
 0.506  1.367  0.304  0.086 -0.002 -0.021 -0.021
 0.508  1.370  0.307  0.087 -0.000 -0.019 -0.019
 0.510  1.371  0.308  0.089  0.001 -0.019 -0.019
 0.512  1.373  0.311  0.090  0.003 -0.017 -0.017
 0.514  1.375  0.312  0.092  0.004 -0.016 -0.016
 0.516  1.376  0.313  0.093  0.006 -0.015 -0.015
 0.518  1.378  0.315  0.095  0.007 -0.014 -0.014
 0.520  1.379  0.317  0.097  0.008 -0.013 -0.013
 0.522  1.381  0.319  0.098  0.010 -0.012 -0.012
 0.524  1.382  0.320  0.100  0.011 -0.011 -0.011
 0.526  1.384  0.321  0.101  0.012 -0.010 -0.010
 0.528  1.386  0.322  0.103  0.014 -0.009 -0.009
 0.530  1.387  0.324  0.104  0.014 -0.008 -0.008
 0.532  1.388  0.325  0.106  0.016 -0.007 -0.007
 0.534  1.389  0.326  0.107  0.017 -0.006 -0.006
 0.536  1.389  0.328  0.109  0.018 -0.005 -0.005
 0.538  1.390  0.329  0.110  0.019 -0.004 -0.004
 0.540  1.392  0.330  0.111  0.020 -0.003 -0.003
 0.542  1.393  0.332  0.113  0.021 -0.002 -0.002
 0.544  1.393  0.333  0.114  0.022 -0.001 -0.001
 0.546  1.394  0.333  0.115  0.024 -0.001 -0.001
 0.548  1.395  0.334  0.115  0.024  0.001  0.001
 0.550  1.395  0.335  0.116  0.025  0.001  0.001
 0.552  1.396  0.337  0.118  0.026  0.003  0.003
 0.554  1.396  0.337  0.119  0.027  0.003  0.003
 0.556  1.396  0.338  0.120  0.027  0.004  0.004
 0.558  1.398  0.338  0.121  0.028  0.005  0.005
 0.560  1.398  0.339  0.122  0.029  0.006  0.006
 0.562  1.398  0.341  0.123  0.030  0.006  0.006
 0.564  1.399  0.341  0.124  0.030  0.007  0.007
 0.566  1.399  0.342  0.125  0.031  0.008  0.008
 0.568  1.399  0.342  0.126  0.032  0.008  0.008
 0.570  1.399  0.342  0.126  0.032  0.010  0.010
 0.572  1.399  0.343  0.127  0.033  0.010  0.010
 0.574  1.399  0.343  0.128  0.033  0.011  0.011
 0.576  1.399  0.343  0.129  0.034  0.011  0.011
 0.578  1.398  0.345  0.129  0.034  0.012  0.012
 0.580  1.398  0.345  0.130  0.035  0.013  0.013
 0.582  1.398  0.345  0.131  0.035  0.013  0.013
 0.584  1.398  0.345  0.131  0.036  0.014  0.014
 0.586  1.396  0.346  0.132  0.036  0.015  0.015
 0.588  1.396  0.346  0.132  0.036  0.015  0.015
 0.590  1.396  0.346  0.133  0.037  0.016  0.016
 0.592  1.395  0.346  0.133  0.037  0.016  0.016
 0.594  1.395  0.346  0.134  0.038  0.017  0.017
 0.596  1.395  0.346  0.134  0.038  0.017  0.017
 0.598  1.394  0.346  0.135  0.039  0.018  0.018
 0.600  1.394  0.346  0.135  0.039  0.018  0.018
 0.602  1.394  0.346  0.135  0.039  0.019  0.019
 0.604  1.393  0.346  0.135  0.039  0.020  0.020
 0.606  1.393  0.346  0.136  0.040  0.020  0.020
 0.608  1.393  0.346  0.136  0.040  0.020  0.020
 0.610  1.392  0.346  0.136  0.041  0.021  0.021
 0.612  1.392  0.346  0.136  0.041  0.022  0.022
 0.614  1.392  0.346  0.136  0.042  0.022  0.022
 0.616  1.392  0.346  0.136  0.042  0.022  0.022
 0.618  1.390  0.346  0.136  0.043  0.023  0.023
 0.620  1.390  0.346  0.136  0.043  0.023  0.023
 0.622  1.390  0.345  0.136  0.043  0.024  0.024
 0.624  1.390  0.345  0.136  0.043  0.024  0.024
 0.626  1.390  0.345  0.136  0.043  0.025  0.025
 0.628  1.389  0.345  0.135  0.044  0.025  0.025
 0.630  1.389  0.343  0.135  0.044  0.025  0.025
 0.632  1.389  0.343  0.135  0.044  0.026  0.026
 0.634  1.389  0.343  0.134  0.045  0.026  0.026
 0.636  1.389  0.342  0.134  0.045  0.027  0.027
 0.638  1.389  0.342  0.134  0.046  0.027  0.027
 0.640  1.389  0.341  0.133  0.046  0.027  0.027
 0.642  1.389  0.341  0.133  0.046  0.027  0.027
 0.644  1.389  0.339  0.132  0.046  0.028  0.028
 0.646  1.388  0.339  0.132  0.046  0.028  0.028
 0.648  1.388  0.339  0.131  0.046  0.028  0.028
 0.650  1.388  0.338  0.131  0.047  0.028  0.028
 0.652  1.388  0.338  0.130  0.047  0.029  0.029
 0.654  1.388  0.337  0.130  0.047  0.029  0.029
 0.656  1.388  0.337  0.129  0.047  0.029  0.029
 0.658  1.388  0.335  0.129  0.048  0.030  0.030
 0.660  1.388  0.335  0.129  0.048  0.030  0.030
 0.662  1.388  0.334  0.128  0.048  0.030  0.030
 0.664  1.389  0.334  0.128  0.049  0.030  0.030
 0.666  1.389  0.333  0.127  0.049  0.031  0.031
 0.668  1.389  0.333  0.127  0.049  0.031  0.031
 0.670  1.388  0.332  0.126  0.049  0.031  0.031
 0.672  1.388  0.332  0.126  0.049  0.032  0.032
 0.674  1.388  0.330  0.126  0.049  0.032  0.032
 0.676  1.388  0.330  0.125  0.049  0.032  0.032
 0.678  1.388  0.329  0.125  0.049  0.032  0.032
 0.680  1.388  0.329  0.125  0.049  0.033  0.033
 0.682  1.388  0.328  0.124  0.050  0.033  0.033
 0.684  1.388  0.328  0.124  0.050  0.033  0.033
 0.686  1.388  0.326  0.124  0.050  0.033  0.033
 0.688  1.387  0.326  0.124  0.050  0.033  0.033
 0.690  1.387  0.325  0.123  0.050  0.034  0.034
 0.692  1.387  0.325  0.123  0.051  0.034  0.034
 0.694  1.387  0.324  0.123  0.051  0.035  0.035
 0.696  1.387  0.324  0.123  0.051  0.035  0.035
 0.698  1.387  0.322  0.123  0.051  0.035  0.035
 0.700  1.386  0.322  0.122  0.051  0.035  0.035
 0.702  1.386  0.321  0.122  0.052  0.035  0.035
 0.704  1.386  0.321  0.122  0.052  0.036  0.036
 0.706  1.386  0.320  0.122  0.052  0.036  0.036
 0.708  1.384  0.320  0.122  0.052  0.037  0.037
 0.710  1.384  0.319  0.122  0.052  0.037  0.037
 0.712  1.384  0.319  0.122  0.052  0.037  0.037
 0.714  1.383  0.317  0.121  0.052  0.037  0.037
 0.716  1.383  0.317  0.121  0.052  0.037  0.037
 0.718  1.382  0.316  0.121  0.052  0.038  0.038
 0.720  1.382  0.316  0.121  0.052  0.038  0.038
 0.722  1.382  0.315  0.121  0.052  0.038  0.038
 0.724  1.381  0.315  0.121  0.052  0.038  0.038
 0.726  1.381  0.315  0.121  0.052  0.039  0.039
 0.728  1.381  0.313  0.121  0.053  0.040  0.040
 0.730  1.379  0.313  0.121  0.053  0.040  0.040
 0.732  1.379  0.313  0.121  0.053  0.040  0.040
 0.734  1.379  0.313  0.121  0.054  0.041  0.041
 0.736  1.379  0.313  0.121  0.055  0.042  0.042
 0.738  1.379  0.313  0.121  0.055  0.042  0.042
 0.740  1.379  0.313  0.121  0.055  0.043  0.043
 0.742  1.379  0.313  0.120  0.056  0.044  0.044
 0.744  1.381  0.313  0.120  0.057  0.045  0.045
 0.746  1.382  0.315  0.120  0.058  0.045  0.045
 0.748  1.382  0.315  0.120  0.059  0.046  0.046
 0.750  1.383  0.315  0.120  0.059  0.047  0.047
 0.752  1.384  0.316  0.120  0.060  0.048  0.048
 0.754  1.387  0.316  0.120  0.061  0.049  0.049
 0.756  1.388  0.317  0.120  0.062  0.050  0.050
 0.758  1.390  0.317  0.120  0.063  0.051  0.051
 0.760  1.393  0.319  0.120  0.064  0.052  0.052
 0.762  1.395  0.319  0.120  0.065  0.053  0.053
 0.764  1.398  0.320  0.120  0.066  0.054  0.054
 0.766  1.400  0.321  0.120  0.068  0.055  0.055
 0.768  1.404  0.322  0.120  0.068  0.057  0.057
 0.770  1.407  0.322  0.120  0.070  0.058  0.058
 0.772  1.410  0.324  0.120  0.071  0.059  0.059
 0.774  1.413  0.325  0.120  0.073  0.060  0.060
 0.776  1.417  0.326  0.120  0.074  0.062  0.062
 0.778  1.421  0.328  0.120  0.076  0.064  0.064
 0.780  1.424  0.329  0.119  0.078  0.065  0.065
 0.782  1.429  0.332  0.119  0.079  0.067  0.067
 0.784  1.434  0.333  0.119  0.081  0.068  0.068
 0.786  1.438  0.334  0.120  0.083  0.070  0.070
 0.788  1.443  0.335  0.120  0.084  0.071  0.071
 0.790  1.449  0.338  0.120  0.087  0.073  0.073
 0.792  1.454  0.339  0.120  0.088  0.074  0.074
 0.794  1.460  0.342  0.121  0.090  0.076  0.076
 0.796  1.466  0.343  0.122  0.092  0.078  0.078
 0.798  1.472  0.346  0.122  0.094  0.079  0.079
 0.800  1.477  0.347  0.124  0.096  0.081  0.081
 0.802  1.483  0.350  0.125  0.098  0.083  0.083
 0.804  1.489  0.352  0.126  0.100  0.085  0.085
 0.806  1.494  0.354  0.128  0.103  0.086  0.086
 0.808  1.498  0.356  0.129  0.105  0.088  0.088
