# IsPeriodic    : True
# Period        : 0.647261 days
# Normalization : <g_mag>=0
# 
# Phase u_mag  g_mag  r_mag  i_mag  z_mag  y_mag
 0.000  0.584 -0.602 -0.590 -0.576 -0.500 -0.500
 0.002  0.584 -0.602 -0.590 -0.576 -0.500 -0.500
 0.004  0.585 -0.601 -0.590 -0.575 -0.499 -0.499
 0.006  0.586 -0.600 -0.589 -0.575 -0.499 -0.499
 0.008  0.587 -0.599 -0.588 -0.574 -0.499 -0.499
 0.010  0.589 -0.599 -0.588 -0.572 -0.498 -0.498
 0.012  0.590 -0.598 -0.587 -0.571 -0.498 -0.498
 0.014  0.592 -0.596 -0.586 -0.569 -0.497 -0.497
 0.016  0.595 -0.594 -0.584 -0.568 -0.496 -0.496
 0.018  0.596 -0.592 -0.583 -0.565 -0.495 -0.495
 0.020  0.599 -0.590 -0.581 -0.563 -0.494 -0.494
 0.022  0.602 -0.588 -0.579 -0.561 -0.493 -0.493
 0.024  0.605 -0.585 -0.578 -0.559 -0.492 -0.492
 0.026  0.608 -0.582 -0.576 -0.557 -0.491 -0.491
 0.028  0.610 -0.579 -0.574 -0.554 -0.489 -0.489
 0.030  0.614 -0.576 -0.572 -0.553 -0.488 -0.488
 0.032  0.617 -0.573 -0.569 -0.550 -0.486 -0.486
 0.034  0.621 -0.569 -0.567 -0.548 -0.484 -0.484
 0.036  0.624 -0.565 -0.565 -0.546 -0.482 -0.482
 0.038  0.628 -0.561 -0.562 -0.544 -0.480 -0.480
 0.040  0.632 -0.556 -0.560 -0.542 -0.478 -0.478
 0.042  0.636 -0.552 -0.558 -0.539 -0.475 -0.475
 0.044  0.640 -0.547 -0.555 -0.537 -0.473 -0.473
 0.046  0.645 -0.541 -0.551 -0.535 -0.470 -0.470
 0.048  0.649 -0.536 -0.548 -0.532 -0.468 -0.468
 0.050  0.654 -0.529 -0.545 -0.530 -0.465 -0.465
 0.052  0.659 -0.524 -0.542 -0.527 -0.463 -0.463
 0.054  0.664 -0.518 -0.539 -0.524 -0.460 -0.460
 0.056  0.670 -0.511 -0.534 -0.521 -0.457 -0.457
 0.058  0.675 -0.505 -0.531 -0.518 -0.454 -0.454
 0.060  0.681 -0.499 -0.527 -0.515 -0.451 -0.451
 0.062  0.686 -0.492 -0.523 -0.512 -0.448 -0.448
 0.064  0.692 -0.485 -0.519 -0.509 -0.446 -0.446
 0.066  0.698 -0.479 -0.515 -0.506 -0.443 -0.443
 0.068  0.705 -0.473 -0.510 -0.503 -0.440 -0.440
 0.070  0.711 -0.466 -0.506 -0.500 -0.438 -0.438
 0.072  0.718 -0.459 -0.502 -0.497 -0.436 -0.436
 0.074  0.724 -0.454 -0.497 -0.494 -0.433 -0.433
 0.076  0.731 -0.447 -0.493 -0.491 -0.430 -0.430
 0.078  0.737 -0.441 -0.488 -0.488 -0.428 -0.428
 0.080  0.743 -0.435 -0.484 -0.485 -0.426 -0.426
 0.082  0.750 -0.430 -0.480 -0.482 -0.424 -0.424
 0.084  0.756 -0.423 -0.475 -0.478 -0.422 -0.422
 0.086  0.762 -0.417 -0.470 -0.475 -0.420 -0.420
 0.088  0.768 -0.412 -0.466 -0.472 -0.418 -0.418
 0.090  0.774 -0.407 -0.462 -0.469 -0.416 -0.416
 0.092  0.780 -0.401 -0.458 -0.466 -0.414 -0.414
 0.094  0.786 -0.396 -0.454 -0.463 -0.412 -0.412
 0.096  0.792 -0.390 -0.450 -0.461 -0.410 -0.410
 0.098  0.798 -0.386 -0.446 -0.458 -0.409 -0.409
 0.100  0.803 -0.380 -0.442 -0.455 -0.407 -0.407
 0.102  0.808 -0.375 -0.438 -0.452 -0.405 -0.405
 0.104  0.813 -0.370 -0.435 -0.449 -0.403 -0.403
 0.106  0.818 -0.365 -0.431 -0.447 -0.402 -0.402
 0.108  0.823 -0.361 -0.428 -0.444 -0.400 -0.400
 0.110  0.828 -0.356 -0.424 -0.441 -0.399 -0.399
 0.112  0.833 -0.352 -0.421 -0.439 -0.398 -0.398
 0.114  0.837 -0.347 -0.417 -0.437 -0.396 -0.396
 0.116  0.842 -0.342 -0.414 -0.434 -0.395 -0.395
 0.118  0.847 -0.339 -0.410 -0.432 -0.394 -0.394
 0.120  0.851 -0.334 -0.407 -0.429 -0.393 -0.393
 0.122  0.855 -0.330 -0.404 -0.427 -0.392 -0.392
 0.124  0.860 -0.326 -0.401 -0.424 -0.391 -0.391
 0.126  0.864 -0.322 -0.398 -0.423 -0.390 -0.390
 0.128  0.867 -0.318 -0.395 -0.420 -0.389 -0.389
 0.130  0.872 -0.315 -0.392 -0.418 -0.388 -0.388
 0.132  0.875 -0.311 -0.389 -0.416 -0.387 -0.387
 0.134  0.878 -0.307 -0.386 -0.414 -0.386 -0.386
 0.136  0.882 -0.303 -0.384 -0.412 -0.385 -0.385
 0.138  0.885 -0.299 -0.381 -0.410 -0.384 -0.384
 0.140  0.889 -0.295 -0.378 -0.408 -0.383 -0.383
 0.142  0.892 -0.292 -0.376 -0.406 -0.382 -0.382
 0.144  0.895 -0.289 -0.373 -0.405 -0.380 -0.380
 0.146  0.898 -0.285 -0.371 -0.403 -0.379 -0.379
 0.148  0.902 -0.281 -0.369 -0.401 -0.378 -0.378
 0.150  0.904 -0.277 -0.366 -0.399 -0.377 -0.377
 0.152  0.908 -0.273 -0.364 -0.398 -0.375 -0.375
 0.154  0.910 -0.270 -0.362 -0.396 -0.374 -0.374
 0.156  0.914 -0.266 -0.359 -0.394 -0.373 -0.373
 0.158  0.916 -0.262 -0.357 -0.393 -0.372 -0.372
 0.160  0.920 -0.258 -0.355 -0.391 -0.371 -0.371
 0.162  0.922 -0.254 -0.352 -0.390 -0.369 -0.369
 0.164  0.926 -0.250 -0.350 -0.388 -0.368 -0.368
 0.166  0.928 -0.246 -0.348 -0.386 -0.367 -0.367
 0.168  0.932 -0.243 -0.345 -0.384 -0.365 -0.365
 0.170  0.935 -0.239 -0.343 -0.383 -0.364 -0.364
 0.172  0.938 -0.234 -0.340 -0.381 -0.363 -0.363
 0.174  0.941 -0.230 -0.338 -0.379 -0.361 -0.361
 0.176  0.945 -0.226 -0.336 -0.378 -0.360 -0.360
 0.178  0.947 -0.222 -0.333 -0.376 -0.359 -0.359
 0.180  0.951 -0.219 -0.331 -0.374 -0.357 -0.357
 0.182  0.954 -0.215 -0.329 -0.372 -0.356 -0.356
 0.184  0.957 -0.211 -0.326 -0.370 -0.354 -0.354
 0.186  0.960 -0.207 -0.324 -0.369 -0.353 -0.353
 0.188  0.964 -0.203 -0.322 -0.367 -0.351 -0.351
 0.190  0.967 -0.199 -0.319 -0.366 -0.350 -0.350
 0.192  0.970 -0.195 -0.317 -0.364 -0.348 -0.348
 0.194  0.973 -0.191 -0.314 -0.362 -0.347 -0.347
 0.196  0.977 -0.187 -0.312 -0.360 -0.345 -0.345
 0.198  0.980 -0.183 -0.310 -0.358 -0.344 -0.344
 0.200  0.983 -0.179 -0.307 -0.357 -0.342 -0.342
 0.202  0.986 -0.175 -0.305 -0.355 -0.341 -0.341
 0.204  0.989 -0.171 -0.303 -0.353 -0.339 -0.339
 0.206  0.993 -0.167 -0.300 -0.352 -0.338 -0.338
 0.208  0.996 -0.163 -0.298 -0.350 -0.336 -0.336
 0.210  0.999 -0.159 -0.296 -0.348 -0.335 -0.335
 0.212  1.002 -0.155 -0.294 -0.346 -0.333 -0.333
 0.214  1.006 -0.152 -0.291 -0.345 -0.332 -0.332
 0.216  1.009 -0.148 -0.289 -0.343 -0.330 -0.330
 0.218  1.013 -0.144 -0.287 -0.341 -0.329 -0.329
 0.220  1.016 -0.140 -0.285 -0.339 -0.327 -0.327
 0.222  1.019 -0.136 -0.282 -0.337 -0.326 -0.326
 0.224  1.022 -0.132 -0.280 -0.336 -0.325 -0.325
 0.226  1.026 -0.129 -0.278 -0.334 -0.323 -0.323
 0.228  1.029 -0.126 -0.276 -0.332 -0.322 -0.322
 0.230  1.032 -0.122 -0.274 -0.330 -0.321 -0.321
 0.232  1.035 -0.119 -0.272 -0.328 -0.319 -0.319
 0.234  1.038 -0.115 -0.270 -0.326 -0.318 -0.318
 0.236  1.041 -0.112 -0.267 -0.325 -0.317 -0.317
 0.238  1.044 -0.108 -0.265 -0.323 -0.315 -0.315
 0.240  1.048 -0.105 -0.263 -0.322 -0.314 -0.314
 0.242  1.050 -0.102 -0.260 -0.320 -0.313 -0.313
 0.244  1.054 -0.099 -0.258 -0.318 -0.312 -0.312
 0.246  1.056 -0.095 -0.256 -0.316 -0.310 -0.310
 0.248  1.059 -0.092 -0.254 -0.315 -0.309 -0.309
 0.250  1.062 -0.089 -0.252 -0.313 -0.308 -0.308
 0.252  1.065 -0.086 -0.250 -0.311 -0.307 -0.307
 0.254  1.069 -0.083 -0.248 -0.310 -0.305 -0.305
 0.256  1.071 -0.081 -0.246 -0.308 -0.304 -0.304
 0.258  1.074 -0.077 -0.244 -0.307 -0.303 -0.303
 0.260  1.076 -0.074 -0.242 -0.305 -0.302 -0.302
 0.262  1.080 -0.071 -0.240 -0.304 -0.301 -0.301
 0.264  1.082 -0.069 -0.238 -0.302 -0.299 -0.299
 0.266  1.085 -0.066 -0.236 -0.300 -0.298 -0.298
 0.268  1.087 -0.063 -0.234 -0.299 -0.297 -0.297
 0.270  1.090 -0.060 -0.232 -0.297 -0.296 -0.296
 0.272  1.093 -0.058 -0.230 -0.295 -0.295 -0.295
 0.274  1.095 -0.055 -0.228 -0.294 -0.294 -0.294
 0.276  1.098 -0.053 -0.226 -0.292 -0.293 -0.293
 0.278  1.100 -0.050 -0.225 -0.291 -0.292 -0.292
 0.280  1.103 -0.047 -0.222 -0.289 -0.291 -0.291
 0.282  1.105 -0.044 -0.220 -0.288 -0.289 -0.289
 0.284  1.108 -0.042 -0.219 -0.286 -0.288 -0.288
 0.286  1.111 -0.039 -0.217 -0.285 -0.287 -0.287
 0.288  1.113 -0.036 -0.215 -0.283 -0.286 -0.286
 0.290  1.116 -0.034 -0.213 -0.282 -0.285 -0.285
 0.292  1.118 -0.032 -0.211 -0.280 -0.284 -0.284
 0.294  1.120 -0.029 -0.209 -0.279 -0.283 -0.283
 0.296  1.123 -0.026 -0.208 -0.277 -0.282 -0.282
 0.298  1.125 -0.023 -0.206 -0.276 -0.280 -0.280
 0.300  1.128 -0.020 -0.204 -0.275 -0.279 -0.279
 0.302  1.130 -0.017 -0.202 -0.273 -0.278 -0.278
 0.304  1.132 -0.014 -0.200 -0.272 -0.277 -0.277
 0.306  1.135 -0.012 -0.198 -0.270 -0.275 -0.275
 0.308  1.137 -0.010 -0.196 -0.269 -0.274 -0.274
 0.310  1.140 -0.007 -0.194 -0.267 -0.273 -0.273
 0.312  1.142 -0.004 -0.192 -0.266 -0.272 -0.272
 0.314  1.144 -0.001 -0.190 -0.264 -0.271 -0.271
 0.316  1.147  0.002 -0.189 -0.263 -0.270 -0.270
 0.318  1.149  0.005 -0.187 -0.261 -0.268 -0.268
 0.320  1.152  0.008 -0.185 -0.260 -0.267 -0.267
 0.322  1.154  0.011 -0.182 -0.259 -0.266 -0.266
 0.324  1.156  0.013 -0.180 -0.257 -0.265 -0.265
 0.326  1.159  0.016 -0.179 -0.256 -0.264 -0.264
 0.328  1.161  0.019 -0.177 -0.254 -0.263 -0.263
 0.330  1.163  0.022 -0.175 -0.253 -0.261 -0.261
 0.332  1.166  0.025 -0.173 -0.251 -0.260 -0.260
 0.334  1.168  0.028 -0.170 -0.250 -0.259 -0.259
 0.336  1.171  0.031 -0.169 -0.248 -0.258 -0.258
 0.338  1.173  0.034 -0.167 -0.247 -0.256 -0.256
 0.340  1.175  0.036 -0.165 -0.245 -0.255 -0.255
 0.342  1.178  0.040 -0.163 -0.244 -0.254 -0.254
 0.344  1.180  0.043 -0.161 -0.242 -0.253 -0.253
 0.346  1.183  0.046 -0.159 -0.241 -0.251 -0.251
 0.348  1.185  0.049 -0.156 -0.239 -0.250 -0.250
 0.350  1.187  0.052 -0.154 -0.238 -0.249 -0.249
 0.352  1.190  0.055 -0.152 -0.236 -0.248 -0.248
 0.354  1.192  0.058 -0.150 -0.234 -0.246 -0.246
 0.356  1.194  0.060 -0.148 -0.233 -0.245 -0.245
 0.358  1.197  0.063 -0.147 -0.231 -0.244 -0.244
 0.360  1.199  0.066 -0.145 -0.230 -0.243 -0.243
 0.362  1.201  0.069 -0.142 -0.228 -0.242 -0.242
 0.364  1.203  0.072 -0.140 -0.227 -0.240 -0.240
 0.366  1.206  0.075 -0.138 -0.225 -0.239 -0.239
 0.368  1.209  0.078 -0.136 -0.224 -0.238 -0.238
 0.370  1.210  0.081 -0.134 -0.222 -0.237 -0.237
 0.372  1.213  0.083 -0.132 -0.221 -0.235 -0.235
 0.374  1.216  0.086 -0.130 -0.219 -0.234 -0.234
 0.376  1.217  0.089 -0.128 -0.218 -0.233 -0.233
 0.378  1.220  0.092 -0.126 -0.216 -0.231 -0.231
 0.380  1.222  0.094 -0.124 -0.215 -0.230 -0.230
 0.382  1.224  0.097 -0.122 -0.213 -0.228 -0.228
 0.384  1.227  0.100 -0.120 -0.212 -0.227 -0.227
 0.386  1.228  0.103 -0.119 -0.210 -0.226 -0.226
 0.388  1.231  0.106 -0.116 -0.209 -0.225 -0.225
 0.390  1.234  0.107 -0.114 -0.207 -0.223 -0.223
 0.392  1.235  0.110 -0.113 -0.206 -0.222 -0.222
 0.394  1.238  0.113 -0.111 -0.204 -0.221 -0.221
 0.396  1.240  0.116 -0.109 -0.203 -0.219 -0.219
 0.398  1.242  0.118 -0.107 -0.202 -0.218 -0.218
 0.400  1.244  0.121 -0.105 -0.200 -0.217 -0.217
 0.402  1.246  0.124 -0.103 -0.199 -0.215 -0.215
 0.404  1.248  0.126 -0.102 -0.197 -0.214 -0.214
 0.406  1.251  0.129 -0.100 -0.196 -0.213 -0.213
 0.408  1.253  0.131 -0.098 -0.194 -0.211 -0.211
 0.410  1.255  0.133 -0.096 -0.193 -0.210 -0.210
 0.412  1.257  0.136 -0.095 -0.192 -0.209 -0.209
 0.414  1.259  0.138 -0.093 -0.190 -0.207 -0.207
 0.416  1.261  0.141 -0.091 -0.189 -0.206 -0.206
 0.418  1.264  0.143 -0.089 -0.187 -0.204 -0.204
 0.420  1.265  0.146 -0.088 -0.186 -0.203 -0.203
 0.422  1.268  0.148 -0.086 -0.185 -0.202 -0.202
 0.424  1.270  0.151 -0.084 -0.183 -0.200 -0.200
 0.426  1.271  0.153 -0.083 -0.182 -0.199 -0.199
 0.428  1.274  0.155 -0.081 -0.180 -0.198 -0.198
 0.430  1.276  0.157 -0.079 -0.179 -0.197 -0.197
 0.432  1.277  0.159 -0.078 -0.177 -0.195 -0.195
 0.434  1.280  0.162 -0.076 -0.176 -0.194 -0.194
 0.436  1.282  0.164 -0.074 -0.174 -0.193 -0.193
 0.438  1.283  0.166 -0.073 -0.173 -0.192 -0.192
 0.440  1.286  0.168 -0.071 -0.171 -0.191 -0.191
 0.442  1.288  0.170 -0.069 -0.170 -0.189 -0.189
 0.444  1.289  0.173 -0.068 -0.169 -0.188 -0.188
 0.446  1.291  0.175 -0.066 -0.167 -0.187 -0.187
 0.448  1.293  0.177 -0.064 -0.166 -0.186 -0.186
 0.450  1.295  0.178 -0.063 -0.165 -0.185 -0.185
 0.452  1.297  0.180 -0.062 -0.164 -0.184 -0.184
 0.454  1.299  0.182 -0.060 -0.162 -0.182 -0.182
 0.456  1.301  0.184 -0.058 -0.161 -0.181 -0.181
 0.458  1.302  0.186 -0.057 -0.159 -0.180 -0.180
 0.460  1.304  0.187 -0.055 -0.158 -0.179 -0.179
 0.462  1.306  0.189 -0.054 -0.156 -0.178 -0.178
 0.464  1.308  0.191 -0.052 -0.155 -0.176 -0.176
 0.466  1.309  0.193 -0.051 -0.154 -0.175 -0.175
 0.468  1.311  0.195 -0.049 -0.153 -0.174 -0.174
 0.470  1.313  0.196 -0.048 -0.151 -0.173 -0.173
 0.472  1.314  0.198 -0.046 -0.150 -0.172 -0.172
 0.474  1.316  0.200 -0.045 -0.149 -0.171 -0.171
 0.476  1.317  0.201 -0.043 -0.147 -0.170 -0.170
 0.478  1.319  0.202 -0.042 -0.146 -0.169 -0.169
 0.480  1.320  0.203 -0.041 -0.144 -0.168 -0.168
 0.482  1.322  0.205 -0.039 -0.143 -0.167 -0.167
 0.484  1.323  0.206 -0.038 -0.142 -0.166 -0.166
 0.486  1.325  0.208 -0.036 -0.141 -0.165 -0.165
 0.488  1.326  0.209 -0.035 -0.140 -0.164 -0.164
 0.490  1.328  0.211 -0.034 -0.138 -0.163 -0.163
 0.492  1.329  0.212 -0.032 -0.137 -0.162 -0.162
 0.494  1.331  0.213 -0.031 -0.136 -0.161 -0.161
 0.496  1.332  0.215 -0.029 -0.134 -0.161 -0.161
 0.498  1.333  0.216 -0.028 -0.133 -0.160 -0.160
 0.500  1.335  0.217 -0.026 -0.132 -0.159 -0.159
 0.502  1.336  0.218 -0.025 -0.130 -0.158 -0.158
 0.504  1.338  0.220 -0.024 -0.129 -0.156 -0.156
 0.506  1.338  0.221 -0.022 -0.128 -0.156 -0.156
 0.508  1.340  0.222 -0.022 -0.127 -0.155 -0.155
 0.510  1.341  0.223 -0.020 -0.126 -0.154 -0.154
 0.512  1.342  0.224 -0.019 -0.124 -0.153 -0.153
 0.514  1.344  0.225 -0.017 -0.123 -0.152 -0.152
 0.516  1.345  0.225 -0.017 -0.122 -0.151 -0.151
 0.518  1.345  0.226 -0.015 -0.121 -0.151 -0.151
 0.520  1.346  0.227 -0.015 -0.120 -0.150 -0.150
 0.522  1.347  0.228 -0.013 -0.119 -0.149 -0.149
 0.524  1.348  0.229 -0.012 -0.118 -0.148 -0.148
 0.526  1.349  0.230 -0.011 -0.117 -0.147 -0.147
 0.528  1.350  0.231 -0.010 -0.116 -0.147 -0.147
 0.530  1.351  0.232 -0.010 -0.115 -0.146 -0.146
 0.532  1.351  0.233 -0.009 -0.114 -0.145 -0.145
 0.534  1.352  0.233 -0.008 -0.114 -0.144 -0.144
 0.536  1.353  0.234 -0.007 -0.112 -0.144 -0.144
 0.538  1.354  0.235 -0.006 -0.112 -0.143 -0.143
 0.540  1.354  0.236 -0.005 -0.111 -0.142 -0.142
 0.542  1.355  0.236 -0.005 -0.110 -0.142 -0.142
 0.544  1.356  0.237 -0.004 -0.109 -0.141 -0.141
 0.546  1.356  0.238 -0.003 -0.108 -0.140 -0.140
 0.548  1.357  0.238 -0.003 -0.108 -0.140 -0.140
 0.550  1.357  0.239 -0.002 -0.107 -0.139 -0.139
 0.552  1.357  0.239 -0.002 -0.106 -0.138 -0.138
 0.554  1.357  0.240 -0.001 -0.106 -0.138 -0.138
 0.556  1.358  0.240 -0.001 -0.105 -0.137 -0.137
 0.558  1.358  0.241 -0.001 -0.105 -0.136 -0.136
 0.560  1.358  0.241  0.000 -0.104 -0.136 -0.136
 0.562  1.359  0.242  0.000 -0.103 -0.135 -0.135
 0.564  1.359  0.242  0.001 -0.103 -0.135 -0.135
 0.566  1.359  0.243  0.001 -0.102 -0.134 -0.134
 0.568  1.359  0.243  0.002 -0.102 -0.133 -0.133
 0.570  1.359  0.243  0.002 -0.102 -0.133 -0.133
 0.572  1.359  0.244  0.002 -0.101 -0.132 -0.132
 0.574  1.359  0.244  0.002 -0.100 -0.131 -0.131
 0.576  1.359  0.245  0.002 -0.100 -0.130 -0.130
 0.578  1.359  0.245  0.002 -0.100 -0.130 -0.130
 0.580  1.359  0.245  0.003 -0.099 -0.129 -0.129
 0.582  1.359  0.246  0.003 -0.099 -0.129 -0.129
 0.584  1.359  0.246  0.003 -0.099 -0.128 -0.128
 0.586  1.359  0.246  0.004 -0.098 -0.127 -0.127
 0.588  1.359  0.247  0.004 -0.098 -0.127 -0.127
 0.590  1.359  0.247  0.004 -0.097 -0.126 -0.126
 0.592  1.359  0.247  0.004 -0.097 -0.126 -0.126
 0.594  1.359  0.247  0.004 -0.097 -0.125 -0.125
 0.596  1.359  0.248  0.004 -0.097 -0.124 -0.124
 0.598  1.359  0.248  0.004 -0.096 -0.124 -0.124
 0.600  1.359  0.248  0.005 -0.096 -0.123 -0.123
 0.602  1.359  0.248  0.005 -0.096 -0.123 -0.123
 0.604  1.359  0.248  0.006 -0.096 -0.122 -0.122
 0.606  1.359  0.248  0.006 -0.095 -0.122 -0.122
 0.608  1.359  0.248  0.006 -0.095 -0.121 -0.121
 0.610  1.359  0.248  0.007 -0.094 -0.120 -0.120
 0.612  1.359  0.249  0.007 -0.094 -0.120 -0.120
 0.614  1.358  0.249  0.007 -0.094 -0.119 -0.119
 0.616  1.358  0.249  0.007 -0.094 -0.119 -0.119
 0.618  1.358  0.249  0.007 -0.093 -0.118 -0.118
 0.620  1.358  0.249  0.008 -0.093 -0.118 -0.118
 0.622  1.358  0.249  0.008 -0.093 -0.117 -0.117
 0.624  1.358  0.250  0.009 -0.093 -0.116 -0.116
 0.626  1.358  0.250  0.009 -0.093 -0.116 -0.116
 0.628  1.358  0.250  0.009 -0.092 -0.115 -0.115
 0.630  1.358  0.250  0.009 -0.092 -0.115 -0.115
 0.632  1.358  0.250  0.010 -0.092 -0.114 -0.114
 0.634  1.358  0.250  0.010 -0.091 -0.114 -0.114
 0.636  1.358  0.250  0.011 -0.091 -0.113 -0.113
 0.638  1.358  0.250  0.011 -0.091 -0.113 -0.113
 0.640  1.358  0.250  0.011 -0.091 -0.112 -0.112
 0.642  1.358  0.250  0.011 -0.091 -0.112 -0.112
 0.644  1.358  0.250  0.012 -0.090 -0.111 -0.111
 0.646  1.358  0.250  0.012 -0.090 -0.111 -0.111
 0.648  1.357  0.250  0.013 -0.090 -0.110 -0.110
 0.650  1.357  0.249  0.013 -0.090 -0.110 -0.110
 0.652  1.357  0.249  0.013 -0.090 -0.109 -0.109
 0.654  1.357  0.249  0.014 -0.090 -0.109 -0.109
 0.656  1.357  0.248  0.014 -0.090 -0.109 -0.109
 0.658  1.357  0.248  0.014 -0.089 -0.108 -0.108
 0.660  1.357  0.248  0.014 -0.089 -0.108 -0.108
 0.662  1.357  0.248  0.014 -0.089 -0.107 -0.107
 0.664  1.357  0.247  0.014 -0.088 -0.107 -0.107
 0.666  1.357  0.247  0.014 -0.088 -0.106 -0.106
 0.668  1.357  0.246  0.014 -0.088 -0.106 -0.106
 0.670  1.357  0.246  0.014 -0.088 -0.105 -0.105
 0.672  1.357  0.245  0.014 -0.088 -0.105 -0.105
 0.674  1.356  0.244  0.014 -0.088 -0.105 -0.105
 0.676  1.356  0.244  0.013 -0.088 -0.105 -0.105
 0.678  1.356  0.243  0.013 -0.088 -0.104 -0.104
 0.680  1.356  0.242  0.013 -0.088 -0.104 -0.104
 0.682  1.355  0.241  0.012 -0.087 -0.104 -0.104
 0.684  1.355  0.240  0.012 -0.087 -0.103 -0.103
 0.686  1.355  0.239  0.011 -0.087 -0.103 -0.103
 0.688  1.355  0.238  0.011 -0.087 -0.103 -0.103
 0.690  1.354  0.237  0.011 -0.087 -0.103 -0.103
 0.692  1.354  0.236  0.010 -0.087 -0.102 -0.102
 0.694  1.354  0.235  0.009 -0.087 -0.102 -0.102
 0.696  1.353  0.234  0.009 -0.087 -0.102 -0.102
 0.698  1.353  0.233  0.008 -0.087 -0.102 -0.102
 0.700  1.352  0.231  0.007 -0.087 -0.101 -0.101
 0.702  1.352  0.230  0.007 -0.086 -0.101 -0.101
 0.704  1.352  0.229  0.006 -0.086 -0.101 -0.101
 0.706  1.351  0.228  0.005 -0.086 -0.100 -0.100
 0.708  1.351  0.227  0.004 -0.086 -0.100 -0.100
 0.710  1.351  0.226  0.003 -0.086 -0.100 -0.100
 0.712  1.351  0.225  0.002 -0.086 -0.099 -0.099
 0.714  1.350  0.225  0.001 -0.086 -0.099 -0.099
 0.716  1.350  0.225  0.000 -0.086 -0.098 -0.098
 0.718  1.350  0.225 -0.001 -0.086 -0.097 -0.097
 0.720  1.349  0.224 -0.001 -0.085 -0.097 -0.097
 0.722  1.349  0.224 -0.003 -0.085 -0.096 -0.096
 0.724  1.348  0.224 -0.003 -0.085 -0.095 -0.095
 0.726  1.348  0.224 -0.004 -0.085 -0.095 -0.095
 0.728  1.348  0.224 -0.004 -0.085 -0.094 -0.094
 0.730  1.348  0.224 -0.005 -0.085 -0.093 -0.093
 0.732  1.348  0.225 -0.005 -0.085 -0.092 -0.092
 0.734  1.348  0.225 -0.005 -0.084 -0.091 -0.091
 0.736  1.348  0.225 -0.005 -0.084 -0.090 -0.090
 0.738  1.348  0.225 -0.005 -0.084 -0.089 -0.089
 0.740  1.348  0.226 -0.005 -0.083 -0.088 -0.088
 0.742  1.348  0.227 -0.005 -0.082 -0.087 -0.087
 0.744  1.348  0.228 -0.004 -0.082 -0.086 -0.086
 0.746  1.348  0.229 -0.003 -0.081 -0.085 -0.085
 0.748  1.349  0.230 -0.003 -0.081 -0.083 -0.083
 0.750  1.349  0.232 -0.002 -0.080 -0.082 -0.082
 0.752  1.349  0.233 -0.001 -0.079 -0.080 -0.080
 0.754  1.350  0.235 -0.001 -0.079 -0.079 -0.079
 0.756  1.350  0.237  0.001 -0.078 -0.078 -0.078
 0.758  1.351  0.238  0.002 -0.077 -0.076 -0.076
 0.760  1.351  0.240  0.003 -0.076 -0.075 -0.075
 0.762  1.351  0.243  0.004 -0.075 -0.073 -0.073
 0.764  1.352  0.245  0.006 -0.075 -0.072 -0.072
 0.766  1.353  0.247  0.007 -0.073 -0.070 -0.070
 0.768  1.353  0.248  0.009 -0.073 -0.069 -0.069
 0.770  1.354  0.251  0.011 -0.072 -0.067 -0.067
 0.772  1.355  0.253  0.013 -0.070 -0.065 -0.065
 0.774  1.356  0.256  0.015 -0.069 -0.064 -0.064
 0.776  1.357  0.258  0.017 -0.068 -0.062 -0.062
 0.778  1.357  0.261  0.020 -0.067 -0.060 -0.060
 0.780  1.358  0.264  0.022 -0.066 -0.058 -0.058
 0.782  1.359  0.266  0.025 -0.064 -0.056 -0.056
 0.784  1.361  0.269  0.028 -0.063 -0.054 -0.054
 0.786  1.362  0.272  0.030 -0.061 -0.053 -0.053
 0.788  1.363  0.274  0.033 -0.060 -0.051 -0.051
 0.790  1.364  0.277  0.035 -0.058 -0.049 -0.049
 0.792  1.365  0.279  0.038 -0.057 -0.047 -0.047
 0.794  1.366  0.282  0.041 -0.055 -0.045 -0.045
 0.796  1.368  0.285  0.044 -0.054 -0.043 -0.043
 0.798  1.369  0.288  0.046 -0.052 -0.041 -0.041
 0.800  1.370  0.291  0.049 -0.051 -0.039 -0.039
 0.802  1.372  0.294  0.051 -0.049 -0.037 -0.037
 0.804  1.374  0.296  0.054 -0.048 -0.035 -0.035
 0.806  1.375  0.299  0.056 -0.046 -0.033 -0.033
 0.808  1.377  0.302  0.059 -0.044 -0.031 -0.031
