# IsPeriodic    : True
# Period        : 0.581608 days
# Normalization : <g_mag>=0
# 
# Phase u_mag  g_mag  r_mag  i_mag  z_mag  y_mag
 0.000  0.730 -0.484 -0.514 -0.482 -0.438 -0.438
 0.002  0.730 -0.484 -0.514 -0.482 -0.438 -0.438
 0.004  0.730 -0.484 -0.513 -0.482 -0.438 -0.438
 0.006  0.731 -0.483 -0.513 -0.481 -0.438 -0.438
 0.008  0.732 -0.482 -0.513 -0.481 -0.438 -0.438
 0.010  0.733 -0.481 -0.512 -0.480 -0.438 -0.438
 0.012  0.734 -0.480 -0.511 -0.479 -0.437 -0.437
 0.014  0.735 -0.479 -0.511 -0.478 -0.437 -0.437
 0.016  0.737 -0.477 -0.510 -0.477 -0.436 -0.436
 0.018  0.738 -0.476 -0.509 -0.475 -0.436 -0.436
 0.020  0.740 -0.474 -0.508 -0.474 -0.435 -0.435
 0.022  0.742 -0.472 -0.508 -0.473 -0.434 -0.434
 0.024  0.744 -0.471 -0.506 -0.471 -0.434 -0.434
 0.026  0.746 -0.468 -0.505 -0.470 -0.433 -0.433
 0.028  0.748 -0.467 -0.505 -0.469 -0.433 -0.433
 0.030  0.750 -0.464 -0.503 -0.467 -0.432 -0.432
 0.032  0.752 -0.462 -0.502 -0.466 -0.431 -0.431
 0.034  0.754 -0.459 -0.501 -0.465 -0.430 -0.430
 0.036  0.756 -0.457 -0.499 -0.464 -0.430 -0.430
 0.038  0.758 -0.455 -0.498 -0.462 -0.429 -0.429
 0.040  0.761 -0.451 -0.497 -0.462 -0.428 -0.428
 0.042  0.763 -0.449 -0.495 -0.460 -0.427 -0.427
 0.044  0.765 -0.446 -0.494 -0.459 -0.426 -0.426
 0.046  0.769 -0.442 -0.492 -0.458 -0.425 -0.425
 0.048  0.771 -0.440 -0.490 -0.456 -0.424 -0.424
 0.050  0.773 -0.437 -0.488 -0.455 -0.423 -0.423
 0.052  0.777 -0.434 -0.486 -0.453 -0.422 -0.422
 0.054  0.780 -0.430 -0.484 -0.452 -0.420 -0.420
 0.056  0.783 -0.426 -0.482 -0.450 -0.419 -0.419
 0.058  0.786 -0.422 -0.480 -0.449 -0.418 -0.418
 0.060  0.789 -0.419 -0.478 -0.447 -0.417 -0.417
 0.062  0.792 -0.415 -0.475 -0.445 -0.415 -0.415
 0.064  0.796 -0.411 -0.473 -0.444 -0.414 -0.414
 0.066  0.800 -0.407 -0.471 -0.442 -0.413 -0.413
 0.068  0.803 -0.402 -0.468 -0.440 -0.411 -0.411
 0.070  0.807 -0.398 -0.466 -0.439 -0.410 -0.410
 0.072  0.811 -0.393 -0.463 -0.437 -0.408 -0.408
 0.074  0.814 -0.388 -0.461 -0.435 -0.407 -0.407
 0.076  0.818 -0.384 -0.458 -0.434 -0.405 -0.405
 0.078  0.822 -0.379 -0.455 -0.432 -0.404 -0.404
 0.080  0.826 -0.375 -0.453 -0.430 -0.402 -0.402
 0.082  0.830 -0.370 -0.451 -0.429 -0.401 -0.401
 0.084  0.834 -0.365 -0.448 -0.427 -0.399 -0.399
 0.086  0.837 -0.360 -0.445 -0.426 -0.398 -0.398
 0.088  0.841 -0.355 -0.443 -0.424 -0.397 -0.397
 0.090  0.845 -0.350 -0.440 -0.422 -0.395 -0.395
 0.092  0.849 -0.346 -0.437 -0.421 -0.393 -0.393
 0.094  0.853 -0.341 -0.435 -0.419 -0.392 -0.392
 0.096  0.857 -0.337 -0.432 -0.417 -0.391 -0.391
 0.098  0.861 -0.332 -0.429 -0.416 -0.389 -0.389
 0.100  0.865 -0.327 -0.427 -0.414 -0.388 -0.388
 0.102  0.868 -0.323 -0.424 -0.412 -0.387 -0.387
 0.104  0.872 -0.318 -0.422 -0.411 -0.385 -0.385
 0.106  0.876 -0.314 -0.419 -0.409 -0.384 -0.384
 0.108  0.880 -0.309 -0.417 -0.407 -0.383 -0.383
 0.110  0.884 -0.305 -0.414 -0.406 -0.382 -0.382
 0.112  0.887 -0.301 -0.412 -0.404 -0.380 -0.380
 0.114  0.891 -0.297 -0.409 -0.402 -0.379 -0.379
 0.116  0.895 -0.293 -0.406 -0.401 -0.378 -0.378
 0.118  0.899 -0.289 -0.404 -0.399 -0.377 -0.377
 0.120  0.902 -0.285 -0.401 -0.398 -0.375 -0.375
 0.122  0.906 -0.281 -0.398 -0.396 -0.374 -0.374
 0.124  0.910 -0.277 -0.396 -0.394 -0.373 -0.373
 0.126  0.914 -0.274 -0.393 -0.393 -0.372 -0.372
 0.128  0.917 -0.270 -0.390 -0.392 -0.371 -0.371
 0.130  0.921 -0.266 -0.388 -0.390 -0.370 -0.370
 0.132  0.925 -0.262 -0.386 -0.389 -0.369 -0.369
 0.134  0.929 -0.259 -0.383 -0.387 -0.367 -0.367
 0.136  0.933 -0.255 -0.380 -0.386 -0.366 -0.366
 0.138  0.937 -0.252 -0.378 -0.384 -0.365 -0.365
 0.140  0.941 -0.249 -0.375 -0.383 -0.364 -0.364
 0.142  0.944 -0.245 -0.372 -0.381 -0.363 -0.363
 0.144  0.948 -0.242 -0.370 -0.380 -0.362 -0.362
 0.146  0.952 -0.239 -0.367 -0.378 -0.361 -0.361
 0.148  0.955 -0.236 -0.365 -0.377 -0.360 -0.360
 0.150  0.959 -0.233 -0.363 -0.375 -0.359 -0.359
 0.152  0.962 -0.229 -0.360 -0.374 -0.358 -0.358
 0.154  0.966 -0.226 -0.358 -0.372 -0.357 -0.357
 0.156  0.970 -0.224 -0.355 -0.371 -0.356 -0.356
 0.158  0.973 -0.220 -0.353 -0.369 -0.355 -0.355
 0.160  0.977 -0.217 -0.350 -0.368 -0.354 -0.354
 0.162  0.980 -0.214 -0.348 -0.366 -0.353 -0.353
 0.164  0.984 -0.212 -0.345 -0.365 -0.352 -0.352
 0.166  0.987 -0.208 -0.343 -0.363 -0.351 -0.351
 0.168  0.991 -0.205 -0.341 -0.362 -0.350 -0.350
 0.170  0.995 -0.202 -0.339 -0.361 -0.349 -0.349
 0.172  0.999 -0.199 -0.336 -0.360 -0.348 -0.348
 0.174  1.002 -0.195 -0.335 -0.358 -0.347 -0.347
 0.176  1.006 -0.192 -0.332 -0.357 -0.346 -0.346
 0.178  1.009 -0.189 -0.330 -0.355 -0.344 -0.344
 0.180  1.012 -0.186 -0.328 -0.354 -0.344 -0.344
 0.182  1.016 -0.182 -0.326 -0.353 -0.343 -0.343
 0.184  1.019 -0.179 -0.324 -0.351 -0.341 -0.341
 0.186  1.023 -0.176 -0.322 -0.350 -0.340 -0.340
 0.188  1.026 -0.173 -0.320 -0.349 -0.339 -0.339
 0.190  1.030 -0.170 -0.318 -0.347 -0.338 -0.338
 0.192  1.033 -0.166 -0.316 -0.346 -0.337 -0.337
 0.194  1.037 -0.162 -0.314 -0.344 -0.336 -0.336
 0.196  1.040 -0.159 -0.312 -0.343 -0.335 -0.335
 0.198  1.043 -0.156 -0.310 -0.342 -0.334 -0.334
 0.200  1.046 -0.153 -0.308 -0.340 -0.333 -0.333
 0.202  1.050 -0.149 -0.307 -0.339 -0.332 -0.332
 0.204  1.054 -0.145 -0.305 -0.338 -0.330 -0.330
 0.206  1.057 -0.142 -0.303 -0.336 -0.329 -0.329
 0.208  1.060 -0.139 -0.302 -0.335 -0.328 -0.328
 0.210  1.063 -0.135 -0.300 -0.334 -0.327 -0.327
 0.212  1.067 -0.132 -0.298 -0.332 -0.326 -0.326
 0.214  1.070 -0.128 -0.296 -0.331 -0.325 -0.325
 0.216  1.073 -0.124 -0.295 -0.330 -0.324 -0.324
 0.218  1.077 -0.120 -0.293 -0.329 -0.323 -0.323
 0.220  1.080 -0.117 -0.291 -0.327 -0.321 -0.321
 0.222  1.083 -0.113 -0.290 -0.326 -0.321 -0.321
 0.224  1.086 -0.110 -0.288 -0.325 -0.319 -0.319
 0.226  1.089 -0.106 -0.287 -0.324 -0.318 -0.318
 0.228  1.093 -0.102 -0.285 -0.323 -0.317 -0.317
 0.230  1.096 -0.098 -0.284 -0.321 -0.316 -0.316
 0.232  1.099 -0.095 -0.282 -0.320 -0.315 -0.315
 0.234  1.102 -0.092 -0.280 -0.319 -0.314 -0.314
 0.236  1.105 -0.088 -0.279 -0.317 -0.313 -0.313
 0.238  1.108 -0.085 -0.277 -0.316 -0.311 -0.311
 0.240  1.111 -0.081 -0.275 -0.315 -0.310 -0.310
 0.242  1.114 -0.078 -0.274 -0.314 -0.310 -0.310
 0.244  1.117 -0.075 -0.272 -0.312 -0.308 -0.308
 0.246  1.120 -0.072 -0.270 -0.311 -0.307 -0.307
 0.248  1.123 -0.069 -0.268 -0.310 -0.306 -0.306
 0.250  1.126 -0.065 -0.267 -0.308 -0.305 -0.305
 0.252  1.129 -0.062 -0.265 -0.307 -0.304 -0.304
 0.254  1.132 -0.059 -0.263 -0.306 -0.303 -0.303
 0.256  1.135 -0.056 -0.262 -0.304 -0.302 -0.302
 0.258  1.138 -0.053 -0.260 -0.303 -0.301 -0.301
 0.260  1.140 -0.050 -0.258 -0.302 -0.300 -0.300
 0.262  1.143 -0.048 -0.256 -0.300 -0.299 -0.299
 0.264  1.146 -0.044 -0.254 -0.299 -0.298 -0.298
 0.266  1.149 -0.042 -0.253 -0.298 -0.297 -0.297
 0.268  1.152 -0.039 -0.251 -0.296 -0.296 -0.296
 0.270  1.155 -0.036 -0.250 -0.295 -0.295 -0.295
 0.272  1.157 -0.034 -0.248 -0.294 -0.294 -0.294
 0.274  1.160 -0.031 -0.246 -0.293 -0.293 -0.293
 0.276  1.163 -0.028 -0.244 -0.291 -0.291 -0.291
 0.278  1.166 -0.026 -0.242 -0.290 -0.291 -0.291
 0.280  1.168 -0.023 -0.240 -0.289 -0.290 -0.290
 0.282  1.170 -0.021 -0.239 -0.287 -0.289 -0.289
 0.284  1.174 -0.019 -0.237 -0.286 -0.287 -0.287
 0.286  1.176 -0.016 -0.235 -0.285 -0.287 -0.287
 0.288  1.178 -0.014 -0.233 -0.283 -0.286 -0.286
 0.290  1.182 -0.011 -0.231 -0.282 -0.285 -0.285
 0.292  1.184 -0.009 -0.229 -0.280 -0.284 -0.284
 0.294  1.186 -0.007 -0.228 -0.279 -0.283 -0.283
 0.296  1.189 -0.005 -0.226 -0.278 -0.282 -0.282
 0.298  1.192 -0.002 -0.225 -0.276 -0.281 -0.281
 0.300  1.194 -0.001 -0.223 -0.275 -0.280 -0.280
 0.302  1.197  0.002 -0.221 -0.274 -0.279 -0.279
 0.304  1.199  0.004 -0.219 -0.272 -0.278 -0.278
 0.306  1.202  0.007 -0.217 -0.271 -0.276 -0.276
 0.308  1.205  0.008 -0.216 -0.270 -0.276 -0.276
 0.310  1.207  0.011 -0.214 -0.268 -0.275 -0.275
 0.312  1.209  0.013 -0.212 -0.267 -0.273 -0.273
 0.314  1.212  0.015 -0.210 -0.266 -0.272 -0.272
 0.316  1.215  0.018 -0.208 -0.264 -0.271 -0.271
 0.318  1.217  0.020 -0.207 -0.263 -0.270 -0.270
 0.320  1.220  0.023 -0.205 -0.262 -0.269 -0.269
 0.322  1.222  0.025 -0.203 -0.260 -0.268 -0.268
 0.324  1.225  0.028 -0.202 -0.259 -0.267 -0.267
 0.326  1.228  0.030 -0.200 -0.258 -0.266 -0.266
 0.328  1.230  0.032 -0.198 -0.257 -0.265 -0.265
 0.330  1.233  0.035 -0.197 -0.256 -0.264 -0.264
 0.332  1.235  0.037 -0.195 -0.255 -0.263 -0.263
 0.334  1.237  0.040 -0.193 -0.253 -0.261 -0.261
 0.336  1.240  0.042 -0.191 -0.252 -0.260 -0.260
 0.338  1.243  0.045 -0.189 -0.251 -0.259 -0.259
 0.340  1.245  0.048 -0.188 -0.250 -0.258 -0.258
 0.342  1.248  0.050 -0.186 -0.248 -0.257 -0.257
 0.344  1.250  0.053 -0.185 -0.247 -0.256 -0.256
 0.346  1.252  0.056 -0.183 -0.246 -0.254 -0.254
 0.348  1.255  0.058 -0.181 -0.245 -0.254 -0.254
 0.350  1.258  0.061 -0.180 -0.243 -0.252 -0.252
 0.352  1.260  0.064 -0.178 -0.242 -0.251 -0.251
 0.354  1.263  0.066 -0.176 -0.241 -0.250 -0.250
 0.356  1.265  0.070 -0.174 -0.240 -0.249 -0.249
 0.358  1.268  0.072 -0.173 -0.239 -0.247 -0.247
 0.360  1.270  0.075 -0.171 -0.237 -0.246 -0.246
 0.362  1.272  0.078 -0.169 -0.236 -0.245 -0.245
 0.364  1.276  0.081 -0.168 -0.235 -0.244 -0.244
 0.366  1.278  0.084 -0.166 -0.234 -0.243 -0.243
 0.368  1.280  0.086 -0.164 -0.233 -0.242 -0.242
 0.370  1.283  0.090 -0.163 -0.232 -0.240 -0.240
 0.372  1.285  0.092 -0.161 -0.230 -0.239 -0.239
 0.374  1.287  0.095 -0.160 -0.229 -0.238 -0.238
 0.376  1.289  0.098 -0.158 -0.228 -0.237 -0.237
 0.378  1.291  0.100 -0.157 -0.227 -0.236 -0.236
 0.380  1.294  0.103 -0.155 -0.226 -0.235 -0.235
 0.382  1.296  0.106 -0.154 -0.225 -0.234 -0.234
 0.384  1.299  0.109 -0.152 -0.224 -0.232 -0.232
 0.386  1.300  0.112 -0.151 -0.223 -0.231 -0.231
 0.388  1.303  0.114 -0.149 -0.221 -0.230 -0.230
 0.390  1.305  0.116 -0.147 -0.220 -0.229 -0.229
 0.392  1.307  0.119 -0.146 -0.219 -0.228 -0.228
 0.394  1.309  0.121 -0.144 -0.218 -0.227 -0.227
 0.396  1.311  0.124 -0.143 -0.217 -0.226 -0.226
 0.398  1.313  0.126 -0.141 -0.215 -0.224 -0.224
 0.400  1.315  0.128 -0.140 -0.214 -0.223 -0.223
 0.402  1.317  0.131 -0.139 -0.213 -0.223 -0.223
 0.404  1.319  0.133 -0.137 -0.212 -0.221 -0.221
 0.406  1.321  0.135 -0.136 -0.210 -0.220 -0.220
 0.408  1.323  0.137 -0.134 -0.209 -0.219 -0.219
 0.410  1.324  0.140 -0.133 -0.208 -0.218 -0.218
 0.412  1.326  0.141 -0.132 -0.207 -0.217 -0.217
 0.414  1.328  0.144 -0.130 -0.206 -0.216 -0.216
 0.416  1.330  0.145 -0.129 -0.204 -0.215 -0.215
 0.418  1.331  0.148 -0.127 -0.203 -0.214 -0.214
 0.420  1.333  0.149 -0.126 -0.202 -0.213 -0.213
 0.422  1.334  0.151 -0.124 -0.201 -0.212 -0.212
 0.424  1.336  0.153 -0.123 -0.199 -0.211 -0.211
 0.426  1.338  0.155 -0.122 -0.198 -0.210 -0.210
 0.428  1.339  0.157 -0.121 -0.197 -0.209 -0.209
 0.430  1.341  0.158 -0.120 -0.196 -0.208 -0.208
 0.432  1.342  0.160 -0.118 -0.195 -0.207 -0.207
 0.434  1.344  0.162 -0.116 -0.193 -0.206 -0.206
 0.436  1.346  0.163 -0.115 -0.192 -0.205 -0.205
 0.438  1.347  0.165 -0.114 -0.191 -0.204 -0.204
 0.440  1.349  0.166 -0.113 -0.190 -0.203 -0.203
 0.442  1.350  0.168 -0.112 -0.189 -0.202 -0.202
 0.444  1.352  0.170 -0.110 -0.188 -0.201 -0.201
 0.446  1.354  0.171 -0.109 -0.187 -0.200 -0.200
 0.448  1.355  0.173 -0.107 -0.185 -0.199 -0.199
 0.450  1.357  0.174 -0.106 -0.184 -0.198 -0.198
 0.452  1.358  0.175 -0.105 -0.183 -0.197 -0.197
 0.454  1.360  0.177 -0.104 -0.182 -0.196 -0.196
 0.456  1.361  0.179 -0.103 -0.181 -0.195 -0.195
 0.458  1.363  0.180 -0.101 -0.180 -0.194 -0.194
 0.460  1.365  0.181 -0.100 -0.179 -0.193 -0.193
 0.462  1.366  0.183 -0.099 -0.178 -0.192 -0.192
 0.464  1.368  0.184 -0.098 -0.177 -0.191 -0.191
 0.466  1.369  0.185 -0.096 -0.176 -0.190 -0.190
 0.468  1.372  0.187 -0.095 -0.175 -0.189 -0.189
 0.470  1.373  0.188 -0.093 -0.174 -0.188 -0.188
 0.472  1.375  0.189 -0.092 -0.172 -0.187 -0.187
 0.474  1.377  0.191 -0.091 -0.171 -0.186 -0.186
 0.476  1.378  0.191 -0.090 -0.170 -0.185 -0.185
 0.478  1.380  0.193 -0.089 -0.169 -0.184 -0.184
 0.480  1.382  0.194 -0.087 -0.169 -0.183 -0.183
 0.482  1.384  0.195 -0.086 -0.168 -0.182 -0.182
 0.484  1.385  0.196 -0.085 -0.167 -0.181 -0.181
 0.486  1.387  0.198 -0.084 -0.166 -0.180 -0.180
 0.488  1.389  0.199 -0.082 -0.165 -0.179 -0.179
 0.490  1.391  0.200 -0.081 -0.164 -0.178 -0.178
 0.492  1.393  0.201 -0.080 -0.163 -0.177 -0.177
 0.494  1.395  0.202 -0.079 -0.162 -0.176 -0.176
 0.496  1.397  0.204 -0.078 -0.161 -0.175 -0.175
 0.498  1.399  0.204 -0.076 -0.160 -0.175 -0.175
 0.500  1.400  0.205 -0.075 -0.160 -0.174 -0.174
 0.502  1.403  0.206 -0.075 -0.159 -0.173 -0.173
 0.504  1.404  0.208 -0.073 -0.158 -0.171 -0.171
 0.506  1.406  0.208 -0.072 -0.157 -0.171 -0.171
 0.508  1.408  0.209 -0.071 -0.157 -0.170 -0.170
 0.510  1.410  0.210 -0.070 -0.156 -0.169 -0.169
 0.512  1.412  0.211 -0.069 -0.155 -0.168 -0.168
 0.514  1.413  0.212 -0.067 -0.154 -0.167 -0.167
 0.516  1.415  0.213 -0.067 -0.153 -0.166 -0.166
 0.518  1.416  0.214 -0.065 -0.153 -0.165 -0.165
 0.520  1.418  0.215 -0.064 -0.152 -0.164 -0.164
 0.522  1.420  0.216 -0.063 -0.151 -0.163 -0.163
 0.524  1.420  0.216 -0.062 -0.150 -0.163 -0.163
 0.526  1.422  0.217 -0.061 -0.149 -0.162 -0.162
 0.528  1.423  0.218 -0.060 -0.149 -0.161 -0.161
 0.530  1.424  0.219 -0.059 -0.148 -0.160 -0.160
 0.532  1.425  0.220 -0.058 -0.147 -0.159 -0.159
 0.534  1.427  0.220 -0.057 -0.146 -0.159 -0.159
 0.536  1.428  0.221 -0.056 -0.146 -0.158 -0.158
 0.538  1.428  0.221 -0.055 -0.145 -0.157 -0.157
 0.540  1.429  0.222 -0.055 -0.144 -0.156 -0.156
 0.542  1.430  0.223 -0.053 -0.143 -0.156 -0.156
 0.544  1.431  0.223 -0.053 -0.142 -0.155 -0.155
 0.546  1.432  0.224 -0.052 -0.142 -0.154 -0.154
 0.548  1.432  0.225 -0.051 -0.141 -0.153 -0.153
 0.550  1.432  0.225 -0.050 -0.140 -0.152 -0.152
 0.552  1.432  0.225 -0.049 -0.139 -0.152 -0.152
 0.554  1.433  0.225 -0.048 -0.138 -0.151 -0.151
 0.556  1.433  0.226 -0.047 -0.138 -0.151 -0.151
 0.558  1.434  0.226 -0.047 -0.137 -0.150 -0.150
 0.560  1.434  0.227 -0.045 -0.136 -0.149 -0.149
 0.562  1.434  0.227 -0.045 -0.135 -0.148 -0.148
 0.564  1.434  0.228 -0.044 -0.134 -0.148 -0.148
 0.566  1.434  0.228 -0.043 -0.134 -0.147 -0.147
 0.568  1.434  0.228 -0.042 -0.133 -0.147 -0.147
 0.570  1.434  0.229 -0.042 -0.132 -0.146 -0.146
 0.572  1.433  0.229 -0.041 -0.131 -0.145 -0.145
 0.574  1.433  0.229 -0.040 -0.131 -0.145 -0.145
 0.576  1.433  0.229 -0.039 -0.130 -0.144 -0.144
 0.578  1.432  0.229 -0.039 -0.129 -0.144 -0.144
 0.580  1.432  0.229 -0.038 -0.128 -0.143 -0.143
 0.582  1.432  0.229 -0.038 -0.128 -0.142 -0.142
 0.584  1.432  0.229 -0.037 -0.127 -0.142 -0.142
 0.586  1.432  0.230 -0.036 -0.126 -0.141 -0.141
 0.588  1.432  0.230 -0.036 -0.125 -0.141 -0.141
 0.590  1.431  0.230 -0.035 -0.125 -0.140 -0.140
 0.592  1.431  0.230 -0.034 -0.124 -0.140 -0.140
 0.594  1.431  0.230 -0.034 -0.123 -0.139 -0.139
 0.596  1.430  0.230 -0.034 -0.123 -0.138 -0.138
 0.598  1.430  0.231 -0.033 -0.123 -0.137 -0.137
 0.600  1.430  0.231 -0.033 -0.122 -0.137 -0.137
 0.602  1.430  0.231 -0.032 -0.122 -0.137 -0.137
 0.604  1.430  0.231 -0.032 -0.121 -0.136 -0.136
 0.606  1.430  0.231 -0.031 -0.121 -0.135 -0.135
 0.608  1.429  0.231 -0.031 -0.120 -0.135 -0.135
 0.610  1.429  0.232 -0.031 -0.120 -0.134 -0.134
 0.612  1.429  0.232 -0.031 -0.119 -0.133 -0.133
 0.614  1.429  0.232 -0.030 -0.119 -0.133 -0.133
 0.616  1.429  0.232 -0.030 -0.118 -0.132 -0.132
 0.618  1.429  0.232 -0.030 -0.118 -0.132 -0.132
 0.620  1.429  0.233 -0.030 -0.118 -0.131 -0.131
 0.622  1.429  0.233 -0.029 -0.117 -0.130 -0.130
 0.624  1.429  0.233 -0.029 -0.117 -0.130 -0.130
 0.626  1.429  0.233 -0.029 -0.117 -0.129 -0.129
 0.628  1.429  0.233 -0.029 -0.116 -0.129 -0.129
 0.630  1.429  0.233 -0.028 -0.116 -0.128 -0.128
 0.632  1.429  0.233 -0.028 -0.116 -0.127 -0.127
 0.634  1.429  0.233 -0.028 -0.116 -0.127 -0.127
 0.636  1.430  0.233 -0.028 -0.115 -0.126 -0.126
 0.638  1.430  0.234 -0.028 -0.115 -0.126 -0.126
 0.640  1.430  0.234 -0.028 -0.115 -0.125 -0.125
 0.642  1.430  0.234 -0.028 -0.115 -0.124 -0.124
 0.644  1.430  0.234 -0.028 -0.115 -0.124 -0.124
 0.646  1.431  0.234 -0.028 -0.115 -0.123 -0.123
 0.648  1.431  0.235 -0.028 -0.114 -0.122 -0.122
 0.650  1.431  0.235 -0.028 -0.114 -0.122 -0.122
 0.652  1.432  0.235 -0.028 -0.114 -0.121 -0.121
 0.654  1.432  0.236 -0.028 -0.114 -0.120 -0.120
 0.656  1.432  0.236 -0.028 -0.114 -0.120 -0.120
 0.658  1.432  0.236 -0.028 -0.114 -0.119 -0.119
 0.660  1.432  0.237 -0.028 -0.113 -0.118 -0.118
 0.662  1.432  0.237 -0.027 -0.113 -0.118 -0.118
 0.664  1.433  0.237 -0.027 -0.113 -0.117 -0.117
 0.666  1.433  0.238 -0.027 -0.112 -0.116 -0.116
 0.668  1.433  0.239 -0.027 -0.112 -0.115 -0.115
 0.670  1.434  0.240 -0.026 -0.112 -0.115 -0.115
 0.672  1.434  0.241 -0.025 -0.111 -0.114 -0.114
 0.674  1.435  0.242 -0.025 -0.111 -0.113 -0.113
 0.676  1.435  0.242 -0.025 -0.110 -0.113 -0.113
 0.678  1.435  0.244 -0.024 -0.110 -0.112 -0.112
 0.680  1.436  0.245 -0.024 -0.109 -0.111 -0.111
 0.682  1.436  0.246 -0.023 -0.109 -0.110 -0.110
 0.684  1.436  0.247 -0.022 -0.108 -0.109 -0.109
 0.686  1.436  0.249 -0.022 -0.107 -0.109 -0.109
 0.688  1.437  0.250 -0.021 -0.107 -0.108 -0.108
 0.690  1.437  0.252 -0.020 -0.106 -0.107 -0.107
 0.692  1.438  0.254 -0.019 -0.105 -0.106 -0.106
 0.694  1.438  0.255 -0.019 -0.104 -0.105 -0.105
 0.696  1.439  0.257 -0.018 -0.103 -0.104 -0.104
 0.698  1.439  0.258 -0.017 -0.103 -0.103 -0.103
 0.700  1.439  0.261 -0.016 -0.102 -0.103 -0.103
 0.702  1.440  0.263 -0.015 -0.101 -0.102 -0.102
 0.704  1.440  0.265 -0.014 -0.100 -0.101 -0.101
 0.706  1.441  0.267 -0.013 -0.099 -0.100 -0.100
 0.708  1.442  0.269 -0.012 -0.098 -0.099 -0.099
 0.710  1.442  0.271 -0.011 -0.097 -0.098 -0.098
 0.712  1.443  0.274 -0.010 -0.096 -0.097 -0.097
 0.714  1.443  0.276 -0.009 -0.095 -0.096 -0.096
 0.716  1.443  0.279 -0.008 -0.094 -0.095 -0.095
 0.718  1.444  0.282 -0.007 -0.092 -0.094 -0.094
 0.720  1.444  0.284 -0.005 -0.091 -0.093 -0.093
 0.722  1.445  0.288 -0.004 -0.090 -0.092 -0.092
 0.724  1.446  0.290 -0.003 -0.089 -0.091 -0.091
 0.726  1.447  0.292 -0.001 -0.088 -0.090 -0.090
 0.728  1.447  0.295  0.000 -0.086 -0.088 -0.088
 0.730  1.448  0.298  0.002 -0.085 -0.087 -0.087
 0.732  1.450  0.300  0.003 -0.083 -0.086 -0.086
 0.734  1.451  0.303  0.005 -0.082 -0.084 -0.084
 0.736  1.452  0.305  0.007 -0.080 -0.083 -0.083
 0.738  1.453  0.307  0.009 -0.078 -0.081 -0.081
 0.740  1.455  0.309  0.010 -0.077 -0.079 -0.079
 0.742  1.456  0.311  0.012 -0.075 -0.077 -0.077
 0.744  1.458  0.313  0.014 -0.073 -0.076 -0.076
 0.746  1.459  0.314  0.017 -0.071 -0.074 -0.074
 0.748  1.461  0.316  0.018 -0.069 -0.072 -0.072
 0.750  1.463  0.317  0.020 -0.067 -0.070 -0.070
 0.752  1.464  0.318  0.023 -0.065 -0.068 -0.068
 0.754  1.466  0.320  0.024 -0.063 -0.065 -0.065
 0.756  1.467  0.321  0.027 -0.061 -0.064 -0.064
 0.758  1.469  0.321  0.029 -0.058 -0.062 -0.062
 0.760  1.471  0.322  0.031 -0.056 -0.059 -0.059
 0.762  1.473  0.322  0.034 -0.054 -0.057 -0.057
 0.764  1.475  0.323  0.036 -0.052 -0.054 -0.054
 0.766  1.478  0.324  0.039 -0.050 -0.052 -0.052
 0.768  1.480  0.324  0.041 -0.047 -0.049 -0.049
 0.770  1.482  0.324  0.044 -0.044 -0.047 -0.047
 0.772  1.485  0.324  0.047 -0.042 -0.044 -0.044
 0.774  1.488  0.324  0.050 -0.039 -0.041 -0.041
 0.776  1.490  0.324  0.053 -0.036 -0.038 -0.038
 0.778  1.494  0.323  0.056 -0.033 -0.035 -0.035
 0.780  1.497  0.323  0.059 -0.030 -0.031 -0.031
 0.782  1.500  0.322  0.062 -0.027 -0.028 -0.028
 0.784  1.502  0.321  0.065 -0.024 -0.025 -0.025
 0.786  1.506  0.321  0.068 -0.021 -0.022 -0.022
 0.788  1.508  0.320  0.071 -0.018 -0.020 -0.020
 0.790  1.511  0.318  0.073 -0.015 -0.016 -0.016
 0.792  1.514  0.317  0.076 -0.012 -0.014 -0.014
 0.794  1.516  0.316  0.078 -0.010 -0.011 -0.011
 0.796  1.518  0.314  0.080 -0.007 -0.009 -0.009
 0.798  1.520  0.313  0.083 -0.004 -0.007 -0.007
 0.800  1.521  0.310  0.085 -0.002 -0.005 -0.005
 0.802  1.523  0.308  0.086  0.000 -0.003 -0.003
 0.804  1.524  0.305  0.088  0.002 -0.001 -0.001
 0.806  1.525  0.302  0.089  0.004 -0.000 -0.000
 0.808  1.525  0.299  0.091  0.006  0.001  0.001
