# IsPeriodic    : True
# Period        : 0.509529 days
# Normalization : <g_mag>=0
# 
# Phase u_mag  g_mag  r_mag  i_mag  z_mag  y_mag
 0.000  0.538 -0.561 -0.531 -0.476 -0.514 -0.514
 0.002  0.538 -0.561 -0.531 -0.476 -0.514 -0.514
 0.004  0.539 -0.560 -0.531 -0.476 -0.513 -0.513
 0.006  0.540 -0.559 -0.530 -0.475 -0.513 -0.513
 0.008  0.541 -0.557 -0.530 -0.475 -0.512 -0.512
 0.010  0.542 -0.555 -0.529 -0.474 -0.511 -0.511
 0.012  0.544 -0.553 -0.528 -0.473 -0.510 -0.510
 0.014  0.546 -0.550 -0.528 -0.472 -0.509 -0.509
 0.016  0.549 -0.547 -0.527 -0.471 -0.508 -0.508
 0.018  0.551 -0.545 -0.526 -0.470 -0.507 -0.507
 0.020  0.554 -0.541 -0.526 -0.469 -0.505 -0.505
 0.022  0.557 -0.538 -0.524 -0.467 -0.504 -0.504
 0.024  0.561 -0.534 -0.523 -0.466 -0.502 -0.502
 0.026  0.563 -0.531 -0.522 -0.465 -0.501 -0.501
 0.028  0.566 -0.527 -0.521 -0.464 -0.499 -0.499
 0.030  0.570 -0.523 -0.519 -0.462 -0.497 -0.497
 0.032  0.573 -0.519 -0.518 -0.461 -0.496 -0.496
 0.034  0.576 -0.516 -0.516 -0.460 -0.494 -0.494
 0.036  0.580 -0.511 -0.514 -0.458 -0.493 -0.493
 0.038  0.583 -0.508 -0.513 -0.457 -0.491 -0.491
 0.040  0.587 -0.503 -0.511 -0.456 -0.489 -0.489
 0.042  0.591 -0.500 -0.508 -0.454 -0.487 -0.487
 0.044  0.594 -0.496 -0.506 -0.453 -0.485 -0.485
 0.046  0.598 -0.492 -0.504 -0.452 -0.484 -0.484
 0.048  0.602 -0.488 -0.502 -0.450 -0.482 -0.482
 0.050  0.605 -0.483 -0.500 -0.449 -0.480 -0.480
 0.052  0.609 -0.479 -0.497 -0.447 -0.477 -0.477
 0.054  0.614 -0.475 -0.494 -0.446 -0.475 -0.475
 0.056  0.617 -0.471 -0.492 -0.445 -0.472 -0.472
 0.058  0.622 -0.467 -0.489 -0.444 -0.470 -0.470
 0.060  0.625 -0.462 -0.486 -0.442 -0.468 -0.468
 0.062  0.630 -0.458 -0.483 -0.441 -0.465 -0.465
 0.064  0.635 -0.452 -0.480 -0.439 -0.463 -0.463
 0.066  0.639 -0.448 -0.477 -0.438 -0.460 -0.460
 0.068  0.644 -0.444 -0.473 -0.437 -0.458 -0.458
 0.070  0.648 -0.439 -0.470 -0.435 -0.455 -0.455
 0.072  0.653 -0.434 -0.467 -0.434 -0.452 -0.452
 0.074  0.657 -0.430 -0.463 -0.433 -0.450 -0.450
 0.076  0.663 -0.424 -0.460 -0.431 -0.447 -0.447
 0.078  0.667 -0.420 -0.457 -0.430 -0.444 -0.444
 0.080  0.672 -0.415 -0.453 -0.428 -0.442 -0.442
 0.082  0.677 -0.410 -0.449 -0.427 -0.439 -0.439
 0.084  0.682 -0.405 -0.446 -0.426 -0.436 -0.436
 0.086  0.688 -0.400 -0.443 -0.424 -0.434 -0.434
 0.088  0.692 -0.394 -0.439 -0.422 -0.431 -0.431
 0.090  0.698 -0.390 -0.437 -0.421 -0.429 -0.429
 0.092  0.702 -0.385 -0.434 -0.420 -0.426 -0.426
 0.094  0.708 -0.379 -0.430 -0.418 -0.424 -0.424
 0.096  0.712 -0.375 -0.427 -0.416 -0.421 -0.421
 0.098  0.718 -0.370 -0.424 -0.415 -0.419 -0.419
 0.100  0.722 -0.365 -0.421 -0.414 -0.417 -0.417
 0.102  0.728 -0.360 -0.419 -0.412 -0.414 -0.414
 0.104  0.732 -0.355 -0.416 -0.411 -0.412 -0.412
 0.106  0.738 -0.350 -0.414 -0.409 -0.410 -0.410
 0.108  0.742 -0.345 -0.411 -0.407 -0.408 -0.408
 0.110  0.747 -0.341 -0.408 -0.406 -0.405 -0.405
 0.112  0.751 -0.336 -0.406 -0.404 -0.403 -0.403
 0.114  0.756 -0.332 -0.403 -0.402 -0.401 -0.401
 0.116  0.761 -0.328 -0.401 -0.400 -0.399 -0.399
 0.118  0.765 -0.323 -0.398 -0.399 -0.397 -0.397
 0.120  0.770 -0.319 -0.396 -0.397 -0.395 -0.395
 0.122  0.774 -0.314 -0.393 -0.395 -0.393 -0.393
 0.124  0.778 -0.310 -0.391 -0.393 -0.391 -0.391
 0.126  0.782 -0.306 -0.389 -0.391 -0.389 -0.389
 0.128  0.787 -0.301 -0.387 -0.389 -0.387 -0.387
 0.130  0.791 -0.298 -0.385 -0.388 -0.385 -0.385
 0.132  0.795 -0.293 -0.383 -0.385 -0.383 -0.383
 0.134  0.800 -0.289 -0.381 -0.384 -0.382 -0.382
 0.136  0.803 -0.285 -0.379 -0.382 -0.380 -0.380
 0.138  0.808 -0.281 -0.377 -0.380 -0.378 -0.378
 0.140  0.812 -0.277 -0.375 -0.378 -0.377 -0.377
 0.142  0.815 -0.274 -0.373 -0.376 -0.375 -0.375
 0.144  0.820 -0.270 -0.372 -0.374 -0.374 -0.374
 0.146  0.824 -0.266 -0.370 -0.372 -0.372 -0.372
 0.148  0.827 -0.262 -0.368 -0.369 -0.371 -0.371
 0.150  0.831 -0.259 -0.367 -0.367 -0.369 -0.369
 0.152  0.834 -0.255 -0.365 -0.365 -0.368 -0.368
 0.154  0.838 -0.252 -0.363 -0.363 -0.366 -0.366
 0.156  0.842 -0.248 -0.361 -0.361 -0.365 -0.365
 0.158  0.845 -0.245 -0.360 -0.359 -0.363 -0.363
 0.160  0.849 -0.241 -0.358 -0.356 -0.362 -0.362
 0.162  0.853 -0.239 -0.355 -0.354 -0.360 -0.360
 0.164  0.856 -0.235 -0.354 -0.352 -0.359 -0.359
 0.166  0.860 -0.232 -0.352 -0.350 -0.357 -0.357
 0.168  0.864 -0.228 -0.350 -0.347 -0.356 -0.356
 0.170  0.867 -0.225 -0.347 -0.345 -0.354 -0.354
 0.172  0.871 -0.221 -0.345 -0.343 -0.353 -0.353
 0.174  0.875 -0.218 -0.343 -0.341 -0.351 -0.351
 0.176  0.878 -0.214 -0.341 -0.339 -0.350 -0.350
 0.178  0.882 -0.211 -0.339 -0.337 -0.348 -0.348
 0.180  0.886 -0.207 -0.337 -0.335 -0.347 -0.347
 0.182  0.890 -0.204 -0.335 -0.333 -0.345 -0.345
 0.184  0.894 -0.200 -0.332 -0.331 -0.344 -0.344
 0.186  0.897 -0.197 -0.330 -0.329 -0.342 -0.342
 0.188  0.901 -0.193 -0.328 -0.328 -0.341 -0.341
 0.190  0.905 -0.190 -0.325 -0.326 -0.339 -0.339
 0.192  0.909 -0.186 -0.323 -0.324 -0.338 -0.338
 0.194  0.913 -0.182 -0.320 -0.322 -0.337 -0.337
 0.196  0.917 -0.178 -0.318 -0.320 -0.335 -0.335
 0.198  0.921 -0.175 -0.316 -0.319 -0.334 -0.334
 0.200  0.925 -0.171 -0.313 -0.317 -0.332 -0.332
 0.202  0.929 -0.167 -0.310 -0.315 -0.331 -0.331
 0.204  0.933 -0.163 -0.308 -0.314 -0.329 -0.329
 0.206  0.937 -0.160 -0.305 -0.312 -0.328 -0.328
 0.208  0.941 -0.155 -0.303 -0.311 -0.326 -0.326
 0.210  0.945 -0.152 -0.300 -0.309 -0.325 -0.325
 0.212  0.950 -0.147 -0.297 -0.307 -0.323 -0.323
 0.214  0.954 -0.144 -0.294 -0.306 -0.321 -0.321
 0.216  0.958 -0.139 -0.291 -0.304 -0.320 -0.320
 0.218  0.962 -0.136 -0.289 -0.303 -0.318 -0.318
 0.220  0.966 -0.131 -0.286 -0.301 -0.317 -0.317
 0.222  0.971 -0.127 -0.283 -0.300 -0.315 -0.315
 0.224  0.975 -0.124 -0.281 -0.299 -0.314 -0.314
 0.226  0.979 -0.119 -0.278 -0.297 -0.312 -0.312
 0.228  0.983 -0.115 -0.275 -0.296 -0.311 -0.311
 0.230  0.988 -0.111 -0.272 -0.294 -0.310 -0.310
 0.232  0.992 -0.107 -0.269 -0.293 -0.308 -0.308
 0.234  0.996 -0.102 -0.266 -0.292 -0.307 -0.307
 0.236  1.001 -0.098 -0.263 -0.291 -0.305 -0.305
 0.238  1.005 -0.095 -0.261 -0.289 -0.304 -0.304
 0.240  1.009 -0.090 -0.258 -0.288 -0.303 -0.303
 0.242  1.013 -0.086 -0.255 -0.286 -0.301 -0.301
 0.244  1.017 -0.082 -0.252 -0.285 -0.300 -0.300
 0.246  1.022 -0.078 -0.249 -0.284 -0.298 -0.298
 0.248  1.025 -0.074 -0.246 -0.283 -0.297 -0.297
 0.250  1.030 -0.070 -0.243 -0.281 -0.296 -0.296
 0.252  1.033 -0.066 -0.240 -0.280 -0.294 -0.294
 0.254  1.037 -0.063 -0.238 -0.278 -0.293 -0.293
 0.256  1.041 -0.058 -0.235 -0.276 -0.292 -0.292
 0.258  1.044 -0.055 -0.232 -0.275 -0.290 -0.290
 0.260  1.048 -0.051 -0.229 -0.273 -0.289 -0.289
 0.262  1.052 -0.048 -0.226 -0.271 -0.288 -0.288
 0.264  1.055 -0.044 -0.223 -0.270 -0.287 -0.287
 0.266  1.059 -0.041 -0.220 -0.268 -0.285 -0.285
 0.268  1.063 -0.037 -0.217 -0.267 -0.284 -0.284
 0.270  1.066 -0.034 -0.215 -0.265 -0.283 -0.283
 0.272  1.070 -0.030 -0.212 -0.263 -0.282 -0.282
 0.274  1.074 -0.027 -0.209 -0.261 -0.280 -0.280
 0.276  1.077 -0.023 -0.206 -0.260 -0.279 -0.279
 0.278  1.080 -0.021 -0.203 -0.258 -0.278 -0.278
 0.280  1.084 -0.017 -0.200 -0.256 -0.277 -0.277
 0.282  1.087 -0.014 -0.197 -0.254 -0.275 -0.275
 0.284  1.090 -0.010 -0.194 -0.252 -0.274 -0.274
 0.286  1.094 -0.007 -0.192 -0.251 -0.273 -0.273
 0.288  1.096 -0.004 -0.189 -0.248 -0.272 -0.272
 0.290  1.100 -0.001 -0.186 -0.247 -0.271 -0.271
 0.292  1.103  0.001 -0.183 -0.245 -0.269 -0.269
 0.294  1.106  0.005 -0.180 -0.243 -0.268 -0.268
 0.296  1.108  0.007 -0.177 -0.240 -0.267 -0.267
 0.298  1.112  0.010 -0.175 -0.238 -0.266 -0.266
 0.300  1.115  0.014 -0.172 -0.237 -0.265 -0.265
 0.302  1.117  0.016 -0.169 -0.235 -0.264 -0.264
 0.304  1.120  0.019 -0.166 -0.232 -0.262 -0.262
 0.306  1.123  0.022 -0.164 -0.230 -0.261 -0.261
 0.308  1.126  0.024 -0.161 -0.228 -0.260 -0.260
 0.310  1.128  0.028 -0.159 -0.226 -0.259 -0.259
 0.312  1.132  0.030 -0.156 -0.224 -0.258 -0.258
 0.314  1.135  0.033 -0.154 -0.222 -0.257 -0.257
 0.316  1.138  0.036 -0.151 -0.220 -0.255 -0.255
 0.318  1.140  0.038 -0.149 -0.218 -0.254 -0.254
 0.320  1.143  0.041 -0.146 -0.216 -0.253 -0.253
 0.322  1.146  0.044 -0.143 -0.214 -0.252 -0.252
 0.324  1.149  0.047 -0.141 -0.212 -0.251 -0.251
 0.326  1.151  0.050 -0.138 -0.210 -0.250 -0.250
 0.328  1.154  0.052 -0.136 -0.208 -0.248 -0.248
 0.330  1.158  0.055 -0.133 -0.206 -0.247 -0.247
 0.332  1.160  0.058 -0.131 -0.204 -0.246 -0.246
 0.334  1.163  0.061 -0.128 -0.202 -0.245 -0.245
 0.336  1.166  0.064 -0.126 -0.200 -0.243 -0.243
 0.338  1.169  0.066 -0.124 -0.198 -0.242 -0.242
 0.340  1.171  0.069 -0.122 -0.196 -0.241 -0.241
 0.342  1.174  0.073 -0.119 -0.194 -0.240 -0.240
 0.344  1.177  0.075 -0.117 -0.192 -0.239 -0.239
 0.346  1.180  0.078 -0.115 -0.190 -0.238 -0.238
 0.348  1.183  0.081 -0.113 -0.188 -0.236 -0.236
 0.350  1.186  0.084 -0.110 -0.186 -0.235 -0.235
 0.352  1.189  0.087 -0.108 -0.184 -0.234 -0.234
 0.354  1.191  0.089 -0.106 -0.183 -0.233 -0.233
 0.356  1.194  0.093 -0.104 -0.181 -0.232 -0.232
 0.358  1.197  0.095 -0.102 -0.179 -0.231 -0.231
 0.360  1.200  0.098 -0.100 -0.177 -0.230 -0.230
 0.362  1.202  0.102 -0.098 -0.175 -0.228 -0.228
 0.364  1.206  0.104 -0.096 -0.173 -0.227 -0.227
 0.366  1.209  0.107 -0.094 -0.171 -0.226 -0.226
 0.368  1.212  0.109 -0.092 -0.170 -0.225 -0.225
 0.370  1.214  0.113 -0.090 -0.168 -0.224 -0.224
 0.372  1.217  0.116 -0.087 -0.166 -0.223 -0.223
 0.374  1.220  0.118 -0.085 -0.164 -0.221 -0.221
 0.376  1.222  0.122 -0.083 -0.162 -0.220 -0.220
 0.378  1.225  0.124 -0.081 -0.161 -0.219 -0.219
 0.380  1.228  0.127 -0.079 -0.159 -0.218 -0.218
 0.382  1.231  0.131 -0.077 -0.157 -0.217 -0.217
 0.384  1.234  0.133 -0.075 -0.155 -0.215 -0.215
 0.386  1.237  0.136 -0.072 -0.154 -0.214 -0.214
 0.388  1.240  0.138 -0.070 -0.152 -0.213 -0.213
 0.390  1.243  0.141 -0.068 -0.150 -0.212 -0.212
 0.392  1.245  0.144 -0.066 -0.148 -0.210 -0.210
 0.394  1.247  0.146 -0.064 -0.147 -0.209 -0.209
 0.396  1.250  0.149 -0.062 -0.145 -0.208 -0.208
 0.398  1.253  0.152 -0.059 -0.143 -0.207 -0.207
 0.400  1.255  0.154 -0.057 -0.141 -0.205 -0.205
 0.402  1.258  0.156 -0.054 -0.140 -0.204 -0.204
 0.404  1.261  0.159 -0.052 -0.138 -0.203 -0.203
 0.406  1.264  0.161 -0.050 -0.137 -0.202 -0.202
 0.408  1.266  0.163 -0.048 -0.135 -0.200 -0.200
 0.410  1.269  0.166 -0.046 -0.133 -0.199 -0.199
 0.412  1.271  0.168 -0.043 -0.132 -0.198 -0.198
 0.414  1.274  0.170 -0.041 -0.130 -0.196 -0.196
 0.416  1.276  0.173 -0.039 -0.128 -0.195 -0.195
 0.418  1.279  0.175 -0.036 -0.127 -0.194 -0.194
 0.420  1.281  0.176 -0.034 -0.125 -0.192 -0.192
 0.422  1.284  0.179 -0.031 -0.123 -0.191 -0.191
 0.424  1.286  0.181 -0.029 -0.122 -0.190 -0.190
 0.426  1.289  0.182 -0.027 -0.121 -0.188 -0.188
 0.428  1.291  0.185 -0.024 -0.119 -0.187 -0.187
 0.430  1.294  0.187 -0.022 -0.117 -0.186 -0.186
 0.432  1.296  0.189 -0.020 -0.116 -0.184 -0.184
 0.434  1.298  0.190 -0.018 -0.114 -0.183 -0.183
 0.436  1.301  0.192 -0.016 -0.113 -0.182 -0.182
 0.438  1.303  0.194 -0.013 -0.111 -0.180 -0.180
 0.440  1.306  0.196 -0.011 -0.109 -0.179 -0.179
 0.442  1.308  0.197 -0.008 -0.108 -0.178 -0.178
 0.444  1.310  0.199 -0.006 -0.107 -0.176 -0.176
 0.446  1.313  0.201 -0.004 -0.105 -0.175 -0.175
 0.448  1.315  0.202 -0.002 -0.104 -0.174 -0.174
 0.450  1.316  0.204 -0.001 -0.102 -0.173 -0.173
 0.452  1.319  0.205  0.002 -0.101 -0.171 -0.171
 0.454  1.321  0.207  0.004 -0.099 -0.170 -0.170
 0.456  1.323  0.209  0.005 -0.098 -0.168 -0.168
 0.458  1.326  0.210  0.007 -0.096 -0.167 -0.167
 0.460  1.327  0.211  0.009 -0.095 -0.166 -0.166
 0.462  1.329  0.213  0.011 -0.093 -0.165 -0.165
 0.464  1.331  0.215  0.012 -0.092 -0.164 -0.164
 0.466  1.333  0.216  0.014 -0.090 -0.162 -0.162
 0.468  1.335  0.218  0.015 -0.089 -0.161 -0.161
 0.470  1.337  0.219  0.017 -0.087 -0.160 -0.160
 0.472  1.338  0.221  0.019 -0.086 -0.159 -0.159
 0.474  1.340  0.222  0.020 -0.085 -0.158 -0.158
 0.476  1.342  0.224  0.022 -0.083 -0.157 -0.157
 0.478  1.344  0.226  0.023 -0.082 -0.156 -0.156
 0.480  1.346  0.226  0.025 -0.080 -0.154 -0.154
 0.482  1.347  0.228  0.025 -0.079 -0.153 -0.153
 0.484  1.348  0.230  0.027 -0.077 -0.152 -0.152
 0.486  1.350  0.232  0.028 -0.076 -0.151 -0.151
 0.488  1.351  0.233  0.029 -0.075 -0.150 -0.150
 0.490  1.353  0.234  0.030 -0.073 -0.149 -0.149
 0.492  1.354  0.236  0.031 -0.071 -0.148 -0.148
 0.494  1.355  0.237  0.032 -0.070 -0.147 -0.147
 0.496  1.357  0.239  0.033 -0.069 -0.146 -0.146
 0.498  1.358  0.240  0.035 -0.067 -0.145 -0.145
 0.500  1.358  0.241  0.035 -0.066 -0.144 -0.144
 0.502  1.360  0.243  0.036 -0.064 -0.143 -0.143
 0.504  1.361  0.245  0.037 -0.063 -0.142 -0.142
 0.506  1.362  0.246  0.038 -0.061 -0.141 -0.141
 0.508  1.363  0.248  0.039 -0.060 -0.140 -0.140
 0.510  1.364  0.249  0.040 -0.059 -0.140 -0.140
 0.512  1.365  0.250  0.040 -0.057 -0.139 -0.139
 0.514  1.366  0.252  0.041 -0.056 -0.138 -0.138
 0.516  1.367  0.254  0.043 -0.054 -0.137 -0.137
 0.518  1.368  0.255  0.043 -0.053 -0.136 -0.136
 0.520  1.369  0.256  0.044 -0.052 -0.135 -0.135
 0.522  1.369  0.257  0.045 -0.050 -0.134 -0.134
 0.524  1.370  0.259  0.046 -0.049 -0.133 -0.133
 0.526  1.371  0.260  0.047 -0.047 -0.133 -0.133
 0.528  1.371  0.262  0.048 -0.046 -0.132 -0.132
 0.530  1.372  0.262  0.049 -0.045 -0.131 -0.131
 0.532  1.373  0.263  0.050 -0.044 -0.130 -0.130
 0.534  1.374  0.264  0.051 -0.042 -0.129 -0.129
 0.536  1.375  0.265  0.052 -0.041 -0.129 -0.129
 0.538  1.376  0.266  0.053 -0.040 -0.128 -0.128
 0.540  1.377  0.267  0.054 -0.038 -0.127 -0.127
 0.542  1.377  0.268  0.055 -0.037 -0.126 -0.126
 0.544  1.378  0.269  0.056 -0.036 -0.126 -0.126
 0.546  1.379  0.269  0.057 -0.035 -0.125 -0.125
 0.548  1.379  0.269  0.058 -0.033 -0.124 -0.124
 0.550  1.380  0.270  0.059 -0.032 -0.124 -0.124
 0.552  1.380  0.270  0.060 -0.031 -0.123 -0.123
 0.554  1.381  0.270  0.061 -0.030 -0.122 -0.122
 0.556  1.382  0.271  0.062 -0.029 -0.122 -0.122
 0.558  1.383  0.271  0.063 -0.028 -0.121 -0.121
 0.560  1.383  0.271  0.064 -0.026 -0.120 -0.120
 0.562  1.384  0.272  0.066 -0.025 -0.120 -0.120
 0.564  1.385  0.272  0.067 -0.024 -0.119 -0.119
 0.566  1.386  0.272  0.068 -0.023 -0.119 -0.119
 0.568  1.386  0.272  0.069 -0.022 -0.118 -0.118
 0.570  1.387  0.272  0.070 -0.021 -0.117 -0.117
 0.572  1.388  0.271  0.071 -0.020 -0.117 -0.117
 0.574  1.389  0.271  0.072 -0.019 -0.116 -0.116
 0.576  1.389  0.271  0.073 -0.018 -0.116 -0.116
 0.578  1.390  0.270  0.075 -0.017 -0.115 -0.115
 0.580  1.390  0.270  0.076 -0.016 -0.115 -0.115
 0.582  1.390  0.269  0.077 -0.015 -0.114 -0.114
 0.584  1.391  0.269  0.078 -0.014 -0.114 -0.114
 0.586  1.392  0.269  0.079 -0.013 -0.113 -0.113
 0.588  1.392  0.268  0.081 -0.012 -0.113 -0.113
 0.590  1.393  0.268  0.081 -0.011 -0.112 -0.112
 0.592  1.394  0.267  0.083 -0.010 -0.112 -0.112
 0.594  1.394  0.266  0.083 -0.009 -0.111 -0.111
 0.596  1.395  0.266  0.085 -0.008 -0.111 -0.111
 0.598  1.396  0.265  0.086 -0.007 -0.111 -0.111
 0.600  1.396  0.265  0.087 -0.006 -0.110 -0.110
 0.602  1.397  0.264  0.088 -0.005 -0.110 -0.110
 0.604  1.397  0.264  0.089 -0.005 -0.109 -0.109
 0.606  1.398  0.263  0.091 -0.003 -0.109 -0.109
 0.608  1.398  0.263  0.091 -0.003 -0.109 -0.109
 0.610  1.399  0.263  0.093 -0.002 -0.108 -0.108
 0.612  1.399  0.263  0.094 -0.001 -0.108 -0.108
 0.614  1.400  0.263  0.095 -0.000 -0.107 -0.107
 0.616  1.400  0.263  0.096  0.001 -0.107 -0.107
 0.618  1.400  0.263  0.097  0.001 -0.107 -0.107
 0.620  1.400  0.263  0.099  0.002 -0.106 -0.106
 0.622  1.400  0.263  0.099  0.003 -0.106 -0.106
 0.624  1.401  0.263  0.101  0.004 -0.106 -0.106
 0.626  1.401  0.264  0.101  0.005 -0.105 -0.105
 0.628  1.401  0.264  0.103  0.006 -0.105 -0.105
 0.630  1.402  0.265  0.104  0.006 -0.105 -0.105
 0.632  1.402  0.265  0.105  0.007 -0.104 -0.104
 0.634  1.402  0.266  0.106  0.008 -0.104 -0.104
 0.636  1.402  0.267  0.107  0.008 -0.104 -0.104
 0.638  1.403  0.267  0.108  0.009 -0.104 -0.104
 0.640  1.403  0.268  0.109  0.010 -0.103 -0.103
 0.642  1.403  0.269  0.110  0.010 -0.103 -0.103
 0.644  1.403  0.269  0.111  0.011 -0.103 -0.103
 0.646  1.404  0.270  0.113  0.012 -0.103 -0.103
 0.648  1.404  0.271  0.114  0.013 -0.102 -0.102
 0.650  1.404  0.272  0.115  0.013 -0.102 -0.102
 0.652  1.404  0.273  0.117  0.014 -0.102 -0.102
 0.654  1.404  0.275  0.117  0.015 -0.102 -0.102
 0.656  1.404  0.276  0.119  0.015 -0.102 -0.102
 0.658  1.404  0.277  0.120  0.016 -0.101 -0.101
 0.660  1.404  0.278  0.122  0.016 -0.101 -0.101
 0.662  1.404  0.279  0.123  0.017 -0.101 -0.101
 0.664  1.405  0.281  0.124  0.018 -0.101 -0.101
 0.666  1.405  0.282  0.126  0.018 -0.100 -0.100
 0.668  1.405  0.284  0.127  0.019 -0.100 -0.100
 0.670  1.405  0.284  0.129  0.020 -0.100 -0.100
 0.672  1.405  0.286  0.130  0.021 -0.100 -0.100
 0.674  1.406  0.287  0.132  0.022 -0.100 -0.100
 0.676  1.406  0.288  0.134  0.022 -0.099 -0.099
 0.678  1.407  0.290  0.135  0.023 -0.099 -0.099
 0.680  1.407  0.291  0.137  0.024 -0.099 -0.099
 0.682  1.408  0.292  0.139  0.025 -0.099 -0.099
 0.684  1.408  0.293  0.140  0.026 -0.098 -0.098
 0.686  1.409  0.294  0.142  0.026 -0.098 -0.098
 0.688  1.409  0.295  0.144  0.028 -0.098 -0.098
 0.690  1.410  0.297  0.146  0.029 -0.098 -0.098
 0.692  1.411  0.298  0.148  0.030 -0.098 -0.098
 0.694  1.411  0.299  0.150  0.030 -0.097 -0.097
 0.696  1.411  0.299  0.152  0.031 -0.097 -0.097
 0.698  1.412  0.300  0.154  0.032 -0.097 -0.097
 0.700  1.413  0.302  0.156  0.033 -0.097 -0.097
 0.702  1.413  0.303  0.158  0.035 -0.097 -0.097
 0.704  1.414  0.304  0.160  0.036 -0.096 -0.096
 0.706  1.415  0.305  0.162  0.037 -0.096 -0.096
 0.708  1.416  0.306  0.165  0.038 -0.096 -0.096
 0.710  1.417  0.306  0.168  0.039 -0.096 -0.096
 0.712  1.418  0.307  0.170  0.040 -0.095 -0.095
 0.714  1.420  0.308  0.172  0.042 -0.095 -0.095
 0.716  1.421  0.309  0.174  0.043 -0.095 -0.095
 0.718  1.421  0.310  0.176  0.045 -0.095 -0.095
 0.720  1.422  0.312  0.178  0.046 -0.095 -0.095
 0.722  1.424  0.313  0.180  0.047 -0.094 -0.094
 0.724  1.425  0.313  0.182  0.049 -0.094 -0.094
 0.726  1.426  0.313  0.183  0.050 -0.094 -0.094
 0.728  1.428  0.314  0.185  0.052 -0.093 -0.093
 0.730  1.429  0.315  0.185  0.053 -0.093 -0.093
 0.732  1.430  0.316  0.187  0.054 -0.093 -0.093
 0.734  1.432  0.317  0.187  0.055 -0.092 -0.092
 0.736  1.432  0.317  0.188  0.056 -0.091 -0.091
 0.738  1.433  0.318  0.188  0.057 -0.091 -0.091
 0.740  1.434  0.318  0.188  0.058 -0.090 -0.090
 0.742  1.436  0.319  0.187  0.058 -0.090 -0.090
 0.744  1.437  0.319  0.186  0.059 -0.089 -0.089
 0.746  1.438  0.319  0.185  0.059 -0.088 -0.088
 0.748  1.439  0.319  0.185  0.059 -0.088 -0.088
 0.750  1.440  0.319  0.183  0.059 -0.087 -0.087
 0.752  1.441  0.319  0.182  0.059 -0.086 -0.086
 0.754  1.442  0.318  0.180  0.058 -0.085 -0.085
 0.756  1.442  0.318  0.178  0.058 -0.085 -0.085
 0.758  1.443  0.317  0.176  0.056 -0.084 -0.084
 0.760  1.444  0.316  0.174  0.055 -0.083 -0.083
 0.762  1.445  0.316  0.171  0.054 -0.082 -0.082
 0.764  1.445  0.315  0.169  0.053 -0.081 -0.081
 0.766  1.446  0.313  0.165  0.051 -0.080 -0.080
 0.768  1.447  0.313  0.162  0.049 -0.079 -0.079
 0.770  1.447  0.312  0.159  0.047 -0.078 -0.078
 0.772  1.448  0.310  0.155  0.045 -0.077 -0.077
 0.774  1.448  0.309  0.152  0.043 -0.076 -0.076
 0.776  1.448  0.307  0.147  0.040 -0.075 -0.075
 0.778  1.449  0.306  0.143  0.038 -0.074 -0.074
 0.780  1.449  0.304  0.139  0.035 -0.073 -0.073
 0.782  1.449  0.302  0.134  0.032 -0.071 -0.071
 0.784  1.450  0.300  0.129  0.029 -0.070 -0.070
 0.786  1.450  0.298  0.124  0.025 -0.069 -0.069
 0.788  1.450  0.296  0.118  0.022 -0.068 -0.068
 0.790  1.450  0.293  0.112  0.018 -0.066 -0.066
 0.792  1.451  0.291  0.106  0.015 -0.065 -0.065
 0.794  1.451  0.289  0.101  0.010 -0.064 -0.064
 0.796  1.451  0.286  0.095  0.006 -0.062 -0.062
 0.798  1.451  0.284  0.088  0.002 -0.061 -0.061
 0.800  1.451  0.281  0.082 -0.003 -0.060 -0.060
 0.802  1.450  0.278  0.075 -0.008 -0.058 -0.058
 0.804  1.450  0.275  0.068 -0.013 -0.057 -0.057
 0.806  1.449  0.271  0.061 -0.017 -0.056 -0.056
 0.808  1.447  0.268  0.054 -0.022 -0.054 -0.054
