# IsPeriodic    : True
# Period        : 0.638969 days
# Normalization : <g_mag>=0
# 
# Phase u_mag  g_mag  r_mag  i_mag  z_mag  y_mag
 0.000  0.502 -0.696 -0.628 -0.542 -0.521 -0.521
 0.002  0.502 -0.696 -0.628 -0.542 -0.521 -0.521
 0.004  0.503 -0.696 -0.628 -0.542 -0.520 -0.520
 0.006  0.505 -0.695 -0.628 -0.541 -0.520 -0.520
 0.008  0.507 -0.692 -0.628 -0.541 -0.519 -0.519
 0.010  0.510 -0.690 -0.627 -0.541 -0.519 -0.519
 0.012  0.514 -0.689 -0.626 -0.540 -0.518 -0.518
 0.014  0.518 -0.686 -0.625 -0.539 -0.517 -0.517
 0.016  0.522 -0.684 -0.624 -0.538 -0.517 -0.517
 0.018  0.527 -0.681 -0.623 -0.537 -0.516 -0.516
 0.020  0.532 -0.677 -0.622 -0.536 -0.514 -0.514
 0.022  0.537 -0.674 -0.620 -0.535 -0.513 -0.513
 0.024  0.543 -0.671 -0.619 -0.534 -0.512 -0.512
 0.026  0.548 -0.668 -0.617 -0.533 -0.511 -0.511
 0.028  0.553 -0.663 -0.615 -0.531 -0.509 -0.509
 0.030  0.558 -0.660 -0.613 -0.529 -0.507 -0.507
 0.032  0.563 -0.656 -0.611 -0.528 -0.505 -0.505
 0.034  0.567 -0.653 -0.609 -0.526 -0.503 -0.503
 0.036  0.572 -0.648 -0.606 -0.524 -0.501 -0.501
 0.038  0.576 -0.644 -0.603 -0.522 -0.499 -0.499
 0.040  0.581 -0.640 -0.601 -0.520 -0.497 -0.497
 0.042  0.587 -0.636 -0.598 -0.517 -0.494 -0.494
 0.044  0.591 -0.630 -0.595 -0.515 -0.491 -0.491
 0.046  0.596 -0.626 -0.592 -0.512 -0.488 -0.488
 0.048  0.601 -0.621 -0.588 -0.510 -0.486 -0.486
 0.050  0.606 -0.615 -0.584 -0.507 -0.483 -0.483
 0.052  0.611 -0.610 -0.581 -0.503 -0.480 -0.480
 0.054  0.616 -0.605 -0.577 -0.500 -0.477 -0.477
 0.056  0.621 -0.598 -0.574 -0.498 -0.474 -0.474
 0.058  0.626 -0.593 -0.569 -0.495 -0.471 -0.471
 0.060  0.631 -0.586 -0.565 -0.492 -0.468 -0.468
 0.062  0.637 -0.580 -0.560 -0.489 -0.465 -0.465
 0.064  0.643 -0.573 -0.556 -0.486 -0.462 -0.462
 0.066  0.648 -0.567 -0.552 -0.482 -0.458 -0.458
 0.068  0.653 -0.560 -0.546 -0.479 -0.456 -0.456
 0.070  0.658 -0.553 -0.541 -0.476 -0.453 -0.453
 0.072  0.663 -0.546 -0.537 -0.473 -0.451 -0.451
 0.074  0.669 -0.539 -0.532 -0.470 -0.448 -0.448
 0.076  0.674 -0.532 -0.527 -0.468 -0.445 -0.445
 0.078  0.680 -0.524 -0.522 -0.465 -0.443 -0.443
 0.080  0.685 -0.518 -0.517 -0.462 -0.441 -0.441
 0.082  0.691 -0.510 -0.512 -0.459 -0.438 -0.438
 0.084  0.696 -0.503 -0.507 -0.457 -0.436 -0.436
 0.086  0.701 -0.496 -0.502 -0.454 -0.433 -0.433
 0.088  0.706 -0.490 -0.498 -0.451 -0.431 -0.431
 0.090  0.712 -0.482 -0.494 -0.449 -0.429 -0.429
 0.092  0.717 -0.476 -0.489 -0.446 -0.427 -0.427
 0.094  0.722 -0.470 -0.485 -0.444 -0.425 -0.425
 0.096  0.728 -0.463 -0.480 -0.441 -0.423 -0.423
 0.098  0.733 -0.457 -0.476 -0.439 -0.421 -0.421
 0.100  0.738 -0.450 -0.473 -0.436 -0.419 -0.419
 0.102  0.744 -0.445 -0.469 -0.434 -0.417 -0.417
 0.104  0.749 -0.438 -0.465 -0.432 -0.416 -0.416
 0.106  0.754 -0.433 -0.462 -0.429 -0.414 -0.414
 0.108  0.759 -0.427 -0.458 -0.428 -0.412 -0.412
 0.110  0.764 -0.421 -0.454 -0.425 -0.411 -0.411
 0.112  0.768 -0.416 -0.451 -0.423 -0.410 -0.410
 0.114  0.773 -0.410 -0.447 -0.421 -0.408 -0.408
 0.116  0.779 -0.404 -0.444 -0.419 -0.407 -0.407
 0.118  0.784 -0.399 -0.440 -0.417 -0.406 -0.406
 0.120  0.789 -0.393 -0.437 -0.415 -0.405 -0.405
 0.122  0.793 -0.389 -0.434 -0.413 -0.403 -0.403
 0.124  0.798 -0.384 -0.431 -0.411 -0.402 -0.402
 0.126  0.802 -0.378 -0.428 -0.410 -0.401 -0.401
 0.128  0.807 -0.374 -0.425 -0.408 -0.400 -0.400
 0.130  0.812 -0.369 -0.422 -0.406 -0.398 -0.398
 0.132  0.816 -0.365 -0.419 -0.404 -0.397 -0.397
 0.134  0.822 -0.360 -0.417 -0.402 -0.396 -0.396
 0.136  0.826 -0.356 -0.415 -0.400 -0.395 -0.395
 0.138  0.831 -0.352 -0.412 -0.399 -0.394 -0.394
 0.140  0.835 -0.347 -0.410 -0.397 -0.393 -0.393
 0.142  0.839 -0.343 -0.408 -0.395 -0.392 -0.392
 0.144  0.844 -0.339 -0.405 -0.394 -0.390 -0.390
 0.146  0.848 -0.335 -0.403 -0.392 -0.389 -0.389
 0.148  0.852 -0.331 -0.400 -0.390 -0.388 -0.388
 0.150  0.857 -0.327 -0.398 -0.389 -0.387 -0.387
 0.152  0.861 -0.323 -0.396 -0.387 -0.385 -0.385
 0.154  0.865 -0.318 -0.393 -0.385 -0.384 -0.384
 0.156  0.870 -0.315 -0.391 -0.383 -0.383 -0.383
 0.158  0.874 -0.311 -0.389 -0.382 -0.381 -0.381
 0.160  0.878 -0.307 -0.386 -0.380 -0.380 -0.380
 0.162  0.882 -0.303 -0.384 -0.378 -0.378 -0.378
 0.164  0.886 -0.299 -0.382 -0.376 -0.377 -0.377
 0.166  0.890 -0.295 -0.379 -0.374 -0.376 -0.376
 0.168  0.894 -0.291 -0.377 -0.373 -0.374 -0.374
 0.170  0.898 -0.287 -0.374 -0.371 -0.373 -0.373
 0.172  0.902 -0.283 -0.372 -0.369 -0.371 -0.371
 0.174  0.906 -0.279 -0.369 -0.368 -0.370 -0.370
 0.176  0.910 -0.275 -0.367 -0.366 -0.368 -0.368
 0.178  0.914 -0.270 -0.364 -0.365 -0.367 -0.367
 0.180  0.919 -0.266 -0.361 -0.363 -0.365 -0.365
 0.182  0.923 -0.262 -0.359 -0.361 -0.364 -0.364
 0.184  0.927 -0.257 -0.356 -0.359 -0.362 -0.362
 0.186  0.931 -0.253 -0.353 -0.358 -0.361 -0.361
 0.188  0.935 -0.249 -0.350 -0.356 -0.359 -0.359
 0.190  0.939 -0.244 -0.348 -0.354 -0.357 -0.357
 0.192  0.943 -0.240 -0.345 -0.352 -0.356 -0.356
 0.194  0.947 -0.236 -0.343 -0.350 -0.354 -0.354
 0.196  0.950 -0.232 -0.339 -0.349 -0.352 -0.352
 0.198  0.954 -0.227 -0.336 -0.347 -0.351 -0.351
 0.200  0.958 -0.223 -0.334 -0.345 -0.349 -0.349
 0.202  0.963 -0.219 -0.331 -0.344 -0.347 -0.347
 0.204  0.967 -0.214 -0.328 -0.342 -0.346 -0.346
 0.206  0.970 -0.209 -0.325 -0.340 -0.344 -0.344
 0.208  0.974 -0.205 -0.322 -0.339 -0.342 -0.342
 0.210  0.978 -0.201 -0.319 -0.337 -0.341 -0.341
 0.212  0.982 -0.196 -0.316 -0.335 -0.339 -0.339
 0.214  0.985 -0.192 -0.313 -0.334 -0.338 -0.338
 0.216  0.989 -0.187 -0.310 -0.332 -0.336 -0.336
 0.218  0.993 -0.182 -0.307 -0.331 -0.335 -0.335
 0.220  0.996 -0.178 -0.304 -0.329 -0.333 -0.333
 0.222  1.000 -0.174 -0.301 -0.327 -0.332 -0.332
 0.224  1.004 -0.169 -0.298 -0.326 -0.330 -0.330
 0.226  1.007 -0.164 -0.296 -0.324 -0.329 -0.329
 0.228  1.012 -0.160 -0.292 -0.322 -0.327 -0.327
 0.230  1.015 -0.156 -0.290 -0.321 -0.326 -0.326
 0.232  1.019 -0.151 -0.287 -0.319 -0.324 -0.324
 0.234  1.022 -0.147 -0.285 -0.317 -0.323 -0.323
 0.236  1.026 -0.143 -0.281 -0.316 -0.321 -0.321
 0.238  1.029 -0.139 -0.279 -0.314 -0.320 -0.320
 0.240  1.033 -0.135 -0.276 -0.312 -0.319 -0.319
 0.242  1.036 -0.131 -0.274 -0.311 -0.317 -0.317
 0.244  1.039 -0.127 -0.271 -0.309 -0.316 -0.316
 0.246  1.043 -0.122 -0.269 -0.307 -0.314 -0.314
 0.248  1.046 -0.119 -0.267 -0.306 -0.313 -0.313
 0.250  1.049 -0.115 -0.263 -0.304 -0.312 -0.312
 0.252  1.053 -0.112 -0.261 -0.303 -0.310 -0.310
 0.254  1.056 -0.107 -0.259 -0.301 -0.309 -0.309
 0.256  1.060 -0.103 -0.256 -0.300 -0.307 -0.307
 0.258  1.063 -0.100 -0.254 -0.298 -0.306 -0.306
 0.260  1.067 -0.096 -0.252 -0.296 -0.305 -0.305
 0.262  1.070 -0.092 -0.249 -0.295 -0.304 -0.304
 0.264  1.073 -0.089 -0.248 -0.293 -0.302 -0.302
 0.266  1.076 -0.085 -0.245 -0.292 -0.301 -0.301
 0.268  1.079 -0.082 -0.243 -0.290 -0.300 -0.300
 0.270  1.082 -0.078 -0.241 -0.289 -0.299 -0.299
 0.272  1.085 -0.075 -0.239 -0.287 -0.297 -0.297
 0.274  1.088 -0.072 -0.237 -0.285 -0.296 -0.296
 0.276  1.091 -0.068 -0.235 -0.284 -0.295 -0.295
 0.278  1.094 -0.064 -0.233 -0.282 -0.294 -0.294
 0.280  1.097 -0.061 -0.231 -0.281 -0.293 -0.293
 0.282  1.100 -0.058 -0.229 -0.279 -0.291 -0.291
 0.284  1.103 -0.055 -0.227 -0.277 -0.290 -0.290
 0.286  1.106 -0.053 -0.225 -0.276 -0.289 -0.289
 0.288  1.109 -0.049 -0.224 -0.274 -0.288 -0.288
 0.290  1.112 -0.046 -0.222 -0.272 -0.286 -0.286
 0.292  1.115 -0.043 -0.220 -0.271 -0.285 -0.285
 0.294  1.117 -0.040 -0.218 -0.269 -0.284 -0.284
 0.296  1.120 -0.037 -0.216 -0.268 -0.283 -0.283
 0.298  1.123 -0.033 -0.214 -0.266 -0.281 -0.281
 0.300  1.125 -0.031 -0.213 -0.264 -0.280 -0.280
 0.302  1.128 -0.028 -0.210 -0.263 -0.279 -0.279
 0.304  1.131 -0.025 -0.209 -0.261 -0.278 -0.278
 0.306  1.133 -0.022 -0.206 -0.260 -0.276 -0.276
 0.308  1.136 -0.018 -0.205 -0.258 -0.275 -0.275
 0.310  1.139 -0.015 -0.202 -0.256 -0.274 -0.274
 0.312  1.142 -0.013 -0.201 -0.255 -0.272 -0.272
 0.314  1.144 -0.010 -0.198 -0.253 -0.271 -0.271
 0.316  1.147 -0.007 -0.196 -0.252 -0.270 -0.270
 0.318  1.150 -0.003 -0.195 -0.250 -0.269 -0.269
 0.320  1.153 -0.000 -0.192 -0.248 -0.267 -0.267
 0.322  1.156  0.003 -0.190 -0.247 -0.266 -0.266
 0.324  1.159  0.006 -0.188 -0.245 -0.265 -0.265
 0.326  1.162  0.008 -0.186 -0.243 -0.264 -0.264
 0.328  1.165  0.012 -0.184 -0.242 -0.262 -0.262
 0.330  1.167  0.015 -0.182 -0.240 -0.261 -0.261
 0.332  1.170  0.018 -0.180 -0.239 -0.260 -0.260
 0.334  1.173  0.021 -0.177 -0.237 -0.259 -0.259
 0.336  1.176  0.024 -0.175 -0.235 -0.257 -0.257
 0.338  1.178  0.028 -0.173 -0.234 -0.256 -0.256
 0.340  1.181  0.031 -0.171 -0.232 -0.254 -0.254
 0.342  1.184  0.033 -0.169 -0.230 -0.253 -0.253
 0.344  1.187  0.036 -0.166 -0.229 -0.252 -0.252
 0.346  1.190  0.039 -0.164 -0.227 -0.250 -0.250
 0.348  1.193  0.043 -0.162 -0.226 -0.249 -0.249
 0.350  1.196  0.046 -0.159 -0.224 -0.247 -0.247
 0.352  1.199  0.049 -0.158 -0.222 -0.246 -0.246
 0.354  1.202  0.052 -0.155 -0.221 -0.245 -0.245
 0.356  1.205  0.056 -0.153 -0.219 -0.244 -0.244
 0.358  1.208  0.059 -0.151 -0.218 -0.242 -0.242
 0.360  1.211  0.061 -0.148 -0.216 -0.241 -0.241
 0.362  1.214  0.064 -0.146 -0.214 -0.240 -0.240
 0.364  1.217  0.067 -0.144 -0.213 -0.238 -0.238
 0.366  1.220  0.071 -0.141 -0.211 -0.237 -0.237
 0.368  1.223  0.074 -0.139 -0.209 -0.235 -0.235
 0.370  1.226  0.077 -0.137 -0.208 -0.234 -0.234
 0.372  1.229  0.080 -0.134 -0.206 -0.232 -0.232
 0.374  1.231  0.083 -0.132 -0.204 -0.231 -0.231
 0.376  1.234  0.086 -0.130 -0.202 -0.230 -0.230
 0.378  1.237  0.089 -0.128 -0.201 -0.228 -0.228
 0.380  1.240  0.092 -0.126 -0.199 -0.227 -0.227
 0.382  1.243  0.095 -0.123 -0.197 -0.225 -0.225
 0.384  1.247  0.098 -0.121 -0.195 -0.224 -0.224
 0.386  1.249  0.102 -0.119 -0.194 -0.222 -0.222
 0.388  1.252  0.104 -0.117 -0.192 -0.221 -0.221
 0.390  1.255  0.107 -0.115 -0.190 -0.220 -0.220
 0.392  1.258  0.110 -0.112 -0.189 -0.218 -0.218
 0.394  1.260  0.113 -0.111 -0.187 -0.217 -0.217
 0.396  1.263  0.116 -0.108 -0.185 -0.215 -0.215
 0.398  1.265  0.119 -0.106 -0.184 -0.214 -0.214
 0.400  1.268  0.122 -0.105 -0.182 -0.213 -0.213
 0.402  1.271  0.125 -0.102 -0.180 -0.211 -0.211
 0.404  1.273  0.127 -0.100 -0.179 -0.210 -0.210
 0.406  1.276  0.131 -0.098 -0.177 -0.208 -0.208
 0.408  1.278  0.134 -0.096 -0.175 -0.206 -0.206
 0.410  1.281  0.136 -0.094 -0.174 -0.205 -0.205
 0.412  1.283  0.139 -0.092 -0.172 -0.204 -0.204
 0.414  1.286  0.142 -0.090 -0.170 -0.202 -0.202
 0.416  1.288  0.146 -0.088 -0.168 -0.201 -0.201
 0.418  1.290  0.148 -0.086 -0.167 -0.199 -0.199
 0.420  1.294  0.151 -0.084 -0.165 -0.198 -0.198
 0.422  1.296  0.154 -0.082 -0.163 -0.196 -0.196
 0.424  1.298  0.156 -0.080 -0.161 -0.195 -0.195
 0.426  1.301  0.159 -0.078 -0.160 -0.194 -0.194
 0.428  1.303  0.162 -0.076 -0.158 -0.192 -0.192
 0.430  1.305  0.165 -0.074 -0.157 -0.191 -0.191
 0.432  1.307  0.168 -0.072 -0.155 -0.189 -0.189
 0.434  1.310  0.170 -0.071 -0.154 -0.188 -0.188
 0.436  1.312  0.173 -0.068 -0.152 -0.186 -0.186
 0.438  1.314  0.176 -0.067 -0.151 -0.185 -0.185
 0.440  1.316  0.179 -0.065 -0.149 -0.184 -0.184
 0.442  1.318  0.181 -0.064 -0.148 -0.183 -0.183
 0.444  1.320  0.184 -0.061 -0.147 -0.181 -0.181
 0.446  1.322  0.186 -0.060 -0.145 -0.180 -0.180
 0.448  1.324  0.188 -0.058 -0.143 -0.179 -0.179
 0.450  1.326  0.192 -0.057 -0.142 -0.178 -0.178
 0.452  1.328  0.194 -0.055 -0.141 -0.176 -0.176
 0.454  1.330  0.196 -0.054 -0.140 -0.175 -0.175
 0.456  1.332  0.198 -0.052 -0.138 -0.174 -0.174
 0.458  1.334  0.200 -0.050 -0.137 -0.173 -0.173
 0.460  1.336  0.202 -0.049 -0.135 -0.171 -0.171
 0.462  1.337  0.204 -0.047 -0.134 -0.170 -0.170
 0.464  1.339  0.207 -0.046 -0.133 -0.169 -0.169
 0.466  1.342  0.209 -0.044 -0.132 -0.168 -0.168
 0.468  1.344  0.211 -0.043 -0.130 -0.166 -0.166
 0.470  1.345  0.213 -0.042 -0.129 -0.165 -0.165
 0.472  1.347  0.215 -0.040 -0.128 -0.164 -0.164
 0.474  1.349  0.217 -0.039 -0.127 -0.163 -0.163
 0.476  1.350  0.219 -0.037 -0.126 -0.162 -0.162
 0.478  1.352  0.221 -0.036 -0.125 -0.161 -0.161
 0.480  1.353  0.223 -0.035 -0.124 -0.160 -0.160
 0.482  1.355  0.225 -0.033 -0.123 -0.159 -0.159
 0.484  1.356  0.226 -0.032 -0.122 -0.158 -0.158
 0.486  1.358  0.228 -0.031 -0.121 -0.156 -0.156
 0.488  1.359  0.230 -0.030 -0.119 -0.155 -0.155
 0.490  1.361  0.231 -0.029 -0.119 -0.154 -0.154
 0.492  1.362  0.233 -0.028 -0.117 -0.153 -0.153
 0.494  1.363  0.234 -0.027 -0.117 -0.152 -0.152
 0.496  1.365  0.236 -0.025 -0.116 -0.151 -0.151
 0.498  1.366  0.238 -0.025 -0.114 -0.150 -0.150
 0.500  1.367  0.239 -0.024 -0.114 -0.149 -0.149
 0.502  1.369  0.240 -0.022 -0.113 -0.148 -0.148
 0.504  1.370  0.242 -0.022 -0.112 -0.147 -0.147
 0.506  1.371  0.243 -0.021 -0.111 -0.146 -0.146
 0.508  1.372  0.244 -0.019 -0.110 -0.145 -0.145
 0.510  1.373  0.245 -0.018 -0.109 -0.144 -0.144
 0.512  1.374  0.247 -0.018 -0.108 -0.144 -0.144
 0.514  1.375  0.248 -0.017 -0.107 -0.143 -0.143
 0.516  1.376  0.249 -0.015 -0.106 -0.141 -0.141
 0.518  1.377  0.251 -0.014 -0.105 -0.141 -0.141
 0.520  1.378  0.252 -0.014 -0.104 -0.140 -0.140
 0.522  1.379  0.253 -0.013 -0.103 -0.139 -0.139
 0.524  1.380  0.254 -0.012 -0.103 -0.138 -0.138
 0.526  1.381  0.255 -0.011 -0.101 -0.137 -0.137
 0.528  1.382  0.256 -0.010 -0.101 -0.136 -0.136
 0.530  1.383  0.257 -0.009 -0.100 -0.135 -0.135
 0.532  1.384  0.258 -0.008 -0.099 -0.135 -0.135
 0.534  1.385  0.259 -0.007 -0.098 -0.134 -0.134
 0.536  1.386  0.260 -0.007 -0.097 -0.133 -0.133
 0.538  1.386  0.261 -0.005 -0.096 -0.133 -0.133
 0.540  1.388  0.262 -0.004 -0.095 -0.131 -0.131
 0.542  1.389  0.263 -0.003 -0.095 -0.131 -0.131
 0.544  1.390  0.263 -0.003 -0.093 -0.130 -0.130
 0.546  1.390  0.264 -0.002 -0.093 -0.129 -0.129
 0.548  1.391  0.266 -0.001 -0.092 -0.129 -0.129
 0.550  1.392  0.267 -0.000 -0.091 -0.128 -0.128
 0.552  1.392  0.268  0.001 -0.090 -0.127 -0.127
 0.554  1.393  0.268  0.002 -0.089 -0.126 -0.126
 0.556  1.394  0.269  0.003 -0.088 -0.126 -0.126
 0.558  1.394  0.270  0.004 -0.088 -0.125 -0.125
 0.560  1.395  0.270  0.004 -0.087 -0.124 -0.124
 0.562  1.395  0.271  0.005 -0.086 -0.124 -0.124
 0.564  1.396  0.272  0.006 -0.085 -0.123 -0.123
 0.566  1.396  0.272  0.007 -0.085 -0.123 -0.123
 0.568  1.397  0.273  0.007 -0.084 -0.121 -0.121
 0.570  1.397  0.273  0.008 -0.083 -0.121 -0.121
 0.572  1.398  0.274  0.009 -0.082 -0.120 -0.120
 0.574  1.398  0.274  0.010 -0.082 -0.120 -0.120
 0.576  1.398  0.275  0.011 -0.081 -0.119 -0.119
 0.578  1.399  0.275  0.011 -0.080 -0.118 -0.118
 0.580  1.399  0.276  0.012 -0.079 -0.118 -0.118
 0.582  1.399  0.276  0.013 -0.079 -0.117 -0.117
 0.584  1.400  0.277  0.014 -0.078 -0.116 -0.116
 0.586  1.400  0.277  0.015 -0.077 -0.115 -0.115
 0.588  1.400  0.277  0.015 -0.077 -0.115 -0.115
 0.590  1.400  0.278  0.016 -0.076 -0.114 -0.114
 0.592  1.401  0.278  0.016 -0.075 -0.114 -0.114
 0.594  1.401  0.279  0.017 -0.075 -0.113 -0.113
 0.596  1.401  0.279  0.018 -0.074 -0.112 -0.112
 0.598  1.401  0.279  0.018 -0.074 -0.111 -0.111
 0.600  1.401  0.281  0.018 -0.073 -0.111 -0.111
 0.602  1.402  0.281  0.019 -0.072 -0.110 -0.110
 0.604  1.402  0.281  0.020 -0.072 -0.110 -0.110
 0.606  1.402  0.281  0.020 -0.071 -0.109 -0.109
 0.608  1.402  0.282  0.021 -0.071 -0.108 -0.108
 0.610  1.402  0.282  0.022 -0.070 -0.108 -0.108
 0.612  1.402  0.282  0.022 -0.070 -0.107 -0.107
 0.614  1.402  0.282  0.022 -0.069 -0.106 -0.106
 0.616  1.402  0.283  0.022 -0.069 -0.106 -0.106
 0.618  1.402  0.283  0.023 -0.068 -0.105 -0.105
 0.620  1.403  0.283  0.023 -0.067 -0.105 -0.105
 0.622  1.403  0.283  0.024 -0.067 -0.104 -0.104
 0.624  1.403  0.283  0.024 -0.067 -0.103 -0.103
 0.626  1.403  0.283  0.025 -0.066 -0.103 -0.103
 0.628  1.403  0.284  0.025 -0.066 -0.102 -0.102
 0.630  1.403  0.284  0.025 -0.066 -0.101 -0.101
 0.632  1.402  0.284  0.025 -0.065 -0.101 -0.101
 0.634  1.402  0.284  0.025 -0.064 -0.100 -0.100
 0.636  1.402  0.284  0.025 -0.064 -0.100 -0.100
 0.638  1.402  0.284  0.026 -0.064 -0.099 -0.099
 0.640  1.402  0.284  0.026 -0.063 -0.099 -0.099
 0.642  1.402  0.284  0.026 -0.063 -0.098 -0.098
 0.644  1.402  0.284  0.027 -0.063 -0.098 -0.098
 0.646  1.402  0.284  0.027 -0.063 -0.097 -0.097
 0.648  1.402  0.284  0.027 -0.062 -0.096 -0.096
 0.650  1.401  0.284  0.027 -0.062 -0.096 -0.096
 0.652  1.401  0.284  0.027 -0.061 -0.095 -0.095
 0.654  1.401  0.284  0.027 -0.061 -0.095 -0.095
 0.656  1.401  0.284  0.027 -0.061 -0.095 -0.095
 0.658  1.401  0.283  0.027 -0.061 -0.094 -0.094
 0.660  1.400  0.283  0.027 -0.061 -0.094 -0.094
 0.662  1.400  0.283  0.027 -0.060 -0.093 -0.093
 0.664  1.400  0.283  0.027 -0.060 -0.093 -0.093
 0.666  1.400  0.282  0.027 -0.060 -0.093 -0.093
 0.668  1.399  0.282  0.027 -0.059 -0.092 -0.092
 0.670  1.399  0.282  0.027 -0.059 -0.091 -0.091
 0.672  1.398  0.281  0.027 -0.059 -0.091 -0.091
 0.674  1.398  0.281  0.027 -0.059 -0.091 -0.091
 0.676  1.397  0.279  0.027 -0.059 -0.091 -0.091
 0.678  1.397  0.279  0.026 -0.059 -0.090 -0.090
 0.680  1.396  0.278  0.026 -0.059 -0.090 -0.090
 0.682  1.396  0.278  0.026 -0.058 -0.090 -0.090
 0.684  1.395  0.277  0.026 -0.058 -0.089 -0.089
 0.686  1.394  0.277  0.025 -0.058 -0.089 -0.089
 0.688  1.394  0.276  0.025 -0.058 -0.089 -0.089
 0.690  1.393  0.275  0.025 -0.058 -0.089 -0.089
 0.692  1.392  0.275  0.025 -0.058 -0.088 -0.088
 0.694  1.392  0.274  0.025 -0.058 -0.088 -0.088
 0.696  1.391  0.273  0.024 -0.058 -0.088 -0.088
 0.698  1.390  0.272  0.024 -0.058 -0.088 -0.088
 0.700  1.390  0.271  0.023 -0.058 -0.087 -0.087
 0.702  1.389  0.271  0.023 -0.058 -0.087 -0.087
 0.704  1.388  0.270  0.022 -0.058 -0.086 -0.086
 0.706  1.386  0.269  0.022 -0.058 -0.086 -0.086
 0.708  1.385  0.268  0.022 -0.058 -0.086 -0.086
 0.710  1.384  0.267  0.021 -0.058 -0.085 -0.085
 0.712  1.383  0.266  0.021 -0.057 -0.085 -0.085
 0.714  1.382  0.264  0.020 -0.056 -0.084 -0.084
 0.716  1.381  0.263  0.020 -0.056 -0.084 -0.084
 0.718  1.379  0.262  0.019 -0.055 -0.083 -0.083
 0.720  1.378  0.261  0.019 -0.054 -0.082 -0.082
 0.722  1.377  0.260  0.019 -0.054 -0.082 -0.082
 0.724  1.376  0.259  0.018 -0.053 -0.080 -0.080
 0.726  1.375  0.258  0.018 -0.052 -0.080 -0.080
 0.728  1.374  0.258  0.019 -0.051 -0.079 -0.079
 0.730  1.373  0.257  0.019 -0.050 -0.078 -0.078
 0.732  1.373  0.257  0.019 -0.049 -0.077 -0.077
 0.734  1.372  0.257  0.020 -0.048 -0.076 -0.076
 0.736  1.372  0.257  0.021 -0.046 -0.075 -0.075
 0.738  1.372  0.257  0.021 -0.045 -0.074 -0.074
 0.740  1.372  0.257  0.022 -0.043 -0.073 -0.073
 0.742  1.373  0.258  0.023 -0.042 -0.071 -0.071
 0.744  1.373  0.259  0.024 -0.040 -0.070 -0.070
 0.746  1.374  0.259  0.025 -0.038 -0.069 -0.069
 0.748  1.375  0.260  0.026 -0.037 -0.067 -0.067
 0.750  1.376  0.261  0.028 -0.035 -0.066 -0.066
 0.752  1.378  0.262  0.029 -0.033 -0.064 -0.064
 0.754  1.379  0.264  0.031 -0.030 -0.063 -0.063
 0.756  1.381  0.266  0.033 -0.029 -0.062 -0.062
 0.758  1.383  0.267  0.034 -0.026 -0.060 -0.060
 0.760  1.386  0.269  0.036 -0.024 -0.058 -0.058
 0.762  1.389  0.271  0.038 -0.022 -0.057 -0.057
 0.764  1.392  0.272  0.040 -0.019 -0.055 -0.055
 0.766  1.395  0.274  0.042 -0.016 -0.053 -0.053
 0.768  1.398  0.277  0.044 -0.014 -0.052 -0.052
 0.770  1.402  0.279  0.047 -0.011 -0.049 -0.049
 0.772  1.406  0.283  0.049 -0.009 -0.048 -0.048
 0.774  1.409  0.285  0.052 -0.006 -0.046 -0.046
 0.776  1.414  0.288  0.055 -0.003 -0.044 -0.044
 0.778  1.418  0.291  0.058 -0.001 -0.042 -0.042
 0.780  1.423  0.294  0.061  0.002 -0.040 -0.040
 0.782  1.427  0.299  0.064  0.004 -0.038 -0.038
 0.784  1.432  0.302  0.067  0.007 -0.036 -0.036
 0.786  1.439  0.305  0.070  0.010 -0.034 -0.034
 0.788  1.444  0.309  0.073  0.012 -0.032 -0.032
 0.790  1.450  0.313  0.076  0.015 -0.030 -0.030
 0.792  1.455  0.316  0.079  0.018 -0.028 -0.028
 0.794  1.461  0.320  0.083  0.020 -0.026 -0.026
 0.796  1.467  0.323  0.086  0.023 -0.024 -0.024
 0.798  1.474  0.327  0.089  0.025 -0.022 -0.022
 0.800  1.479  0.330  0.092  0.028 -0.019 -0.019
 0.802  1.486  0.334  0.095  0.030 -0.017 -0.017
 0.804  1.492  0.336  0.098  0.032 -0.015 -0.015
 0.806  1.497  0.339  0.101  0.034 -0.013 -0.013
 0.808  1.502  0.343  0.103  0.037 -0.010 -0.010
