# IsPeriodic    : True
# Period        : 0.587908 days
# Normalization : <g_mag>=0
# 
# Phase u_mag  g_mag  r_mag  i_mag  z_mag  y_mag
 0.000  0.756 -0.515 -0.494 -0.492 -0.442 -0.442
 0.002  0.757 -0.515 -0.494 -0.492 -0.442 -0.442
 0.004  0.757 -0.514 -0.493 -0.492 -0.442 -0.442
 0.006  0.757 -0.513 -0.493 -0.491 -0.442 -0.442
 0.008  0.758 -0.512 -0.493 -0.491 -0.441 -0.441
 0.010  0.759 -0.509 -0.492 -0.490 -0.441 -0.441
 0.012  0.760 -0.507 -0.492 -0.489 -0.441 -0.441
 0.014  0.761 -0.504 -0.491 -0.488 -0.440 -0.440
 0.016  0.763 -0.500 -0.490 -0.487 -0.440 -0.440
 0.018  0.764 -0.497 -0.490 -0.485 -0.439 -0.439
 0.020  0.765 -0.493 -0.489 -0.484 -0.438 -0.438
 0.022  0.768 -0.490 -0.488 -0.483 -0.438 -0.438
 0.024  0.769 -0.486 -0.487 -0.481 -0.437 -0.437
 0.026  0.771 -0.481 -0.486 -0.480 -0.437 -0.437
 0.028  0.773 -0.477 -0.485 -0.479 -0.436 -0.436
 0.030  0.774 -0.473 -0.484 -0.477 -0.435 -0.435
 0.032  0.776 -0.468 -0.482 -0.476 -0.435 -0.435
 0.034  0.779 -0.464 -0.481 -0.474 -0.434 -0.434
 0.036  0.780 -0.460 -0.479 -0.473 -0.433 -0.433
 0.038  0.782 -0.456 -0.478 -0.471 -0.432 -0.432
 0.040  0.784 -0.451 -0.476 -0.470 -0.431 -0.431
 0.042  0.787 -0.447 -0.474 -0.469 -0.431 -0.431
 0.044  0.789 -0.443 -0.472 -0.467 -0.430 -0.430
 0.046  0.792 -0.439 -0.470 -0.466 -0.429 -0.429
 0.048  0.794 -0.435 -0.468 -0.464 -0.428 -0.428
 0.050  0.796 -0.430 -0.466 -0.463 -0.427 -0.427
 0.052  0.799 -0.426 -0.464 -0.461 -0.426 -0.426
 0.054  0.802 -0.422 -0.461 -0.460 -0.425 -0.425
 0.056  0.805 -0.418 -0.459 -0.458 -0.424 -0.424
 0.058  0.808 -0.413 -0.456 -0.457 -0.423 -0.423
 0.060  0.811 -0.409 -0.453 -0.455 -0.422 -0.422
 0.062  0.813 -0.405 -0.451 -0.453 -0.421 -0.421
 0.064  0.816 -0.401 -0.448 -0.452 -0.419 -0.419
 0.066  0.820 -0.396 -0.446 -0.450 -0.418 -0.418
 0.068  0.823 -0.392 -0.443 -0.448 -0.417 -0.417
 0.070  0.827 -0.388 -0.440 -0.446 -0.415 -0.415
 0.072  0.830 -0.383 -0.438 -0.445 -0.414 -0.414
 0.074  0.833 -0.379 -0.435 -0.443 -0.413 -0.413
 0.076  0.837 -0.374 -0.432 -0.442 -0.412 -0.412
 0.078  0.840 -0.370 -0.429 -0.440 -0.410 -0.410
 0.080  0.844 -0.366 -0.427 -0.438 -0.409 -0.409
 0.082  0.848 -0.361 -0.424 -0.436 -0.407 -0.407
 0.084  0.851 -0.357 -0.421 -0.434 -0.406 -0.406
 0.086  0.854 -0.352 -0.419 -0.433 -0.405 -0.405
 0.088  0.858 -0.348 -0.416 -0.431 -0.404 -0.404
 0.090  0.861 -0.343 -0.414 -0.429 -0.403 -0.403
 0.092  0.865 -0.339 -0.411 -0.427 -0.401 -0.401
 0.094  0.869 -0.335 -0.409 -0.426 -0.400 -0.400
 0.096  0.872 -0.330 -0.406 -0.424 -0.399 -0.399
 0.098  0.876 -0.326 -0.404 -0.422 -0.397 -0.397
 0.100  0.880 -0.322 -0.401 -0.421 -0.396 -0.396
 0.102  0.883 -0.317 -0.399 -0.419 -0.395 -0.395
 0.104  0.886 -0.313 -0.397 -0.417 -0.394 -0.394
 0.106  0.890 -0.309 -0.395 -0.415 -0.393 -0.393
 0.108  0.893 -0.305 -0.392 -0.414 -0.392 -0.392
 0.110  0.897 -0.300 -0.390 -0.412 -0.391 -0.391
 0.112  0.900 -0.296 -0.388 -0.411 -0.390 -0.390
 0.114  0.904 -0.292 -0.386 -0.409 -0.388 -0.388
 0.116  0.907 -0.288 -0.384 -0.407 -0.387 -0.387
 0.118  0.911 -0.284 -0.382 -0.406 -0.386 -0.386
 0.120  0.914 -0.281 -0.380 -0.405 -0.385 -0.385
 0.122  0.917 -0.277 -0.378 -0.403 -0.384 -0.384
 0.124  0.921 -0.273 -0.375 -0.402 -0.383 -0.383
 0.126  0.925 -0.269 -0.374 -0.400 -0.382 -0.382
 0.128  0.928 -0.265 -0.372 -0.398 -0.381 -0.381
 0.130  0.931 -0.261 -0.370 -0.397 -0.380 -0.380
 0.132  0.935 -0.258 -0.368 -0.396 -0.379 -0.379
 0.134  0.938 -0.254 -0.367 -0.394 -0.378 -0.378
 0.136  0.941 -0.251 -0.364 -0.393 -0.377 -0.377
 0.138  0.945 -0.247 -0.363 -0.391 -0.376 -0.376
 0.140  0.949 -0.243 -0.361 -0.390 -0.375 -0.375
 0.142  0.952 -0.240 -0.359 -0.388 -0.374 -0.374
 0.144  0.955 -0.237 -0.358 -0.387 -0.374 -0.374
 0.146  0.959 -0.233 -0.356 -0.386 -0.372 -0.372
 0.148  0.962 -0.229 -0.354 -0.385 -0.372 -0.372
 0.150  0.965 -0.226 -0.352 -0.383 -0.371 -0.371
 0.152  0.968 -0.223 -0.350 -0.382 -0.370 -0.370
 0.154  0.972 -0.220 -0.349 -0.380 -0.369 -0.369
 0.156  0.976 -0.216 -0.347 -0.379 -0.368 -0.368
 0.158  0.979 -0.213 -0.345 -0.378 -0.367 -0.367
 0.160  0.982 -0.211 -0.344 -0.377 -0.367 -0.367
 0.162  0.985 -0.207 -0.341 -0.375 -0.365 -0.365
 0.164  0.989 -0.204 -0.340 -0.374 -0.365 -0.365
 0.166  0.992 -0.201 -0.338 -0.373 -0.364 -0.364
 0.168  0.995 -0.198 -0.336 -0.372 -0.363 -0.363
 0.170  0.998 -0.194 -0.335 -0.370 -0.362 -0.362
 0.172  1.002 -0.192 -0.333 -0.369 -0.361 -0.361
 0.174  1.005 -0.189 -0.331 -0.368 -0.360 -0.360
 0.176  1.008 -0.185 -0.329 -0.367 -0.359 -0.359
 0.178  1.011 -0.182 -0.327 -0.366 -0.358 -0.358
 0.180  1.014 -0.179 -0.326 -0.364 -0.358 -0.358
 0.182  1.018 -0.176 -0.324 -0.363 -0.356 -0.356
 0.184  1.021 -0.172 -0.322 -0.362 -0.356 -0.356
 0.186  1.024 -0.170 -0.320 -0.361 -0.355 -0.355
 0.188  1.027 -0.167 -0.318 -0.360 -0.354 -0.354
 0.190  1.030 -0.163 -0.317 -0.358 -0.353 -0.353
 0.192  1.033 -0.160 -0.315 -0.357 -0.352 -0.352
 0.194  1.037 -0.157 -0.313 -0.356 -0.351 -0.351
 0.196  1.040 -0.154 -0.311 -0.355 -0.350 -0.350
 0.198  1.043 -0.150 -0.309 -0.353 -0.349 -0.349
 0.200  1.045 -0.147 -0.308 -0.352 -0.349 -0.349
 0.202  1.049 -0.144 -0.305 -0.351 -0.348 -0.348
 0.204  1.052 -0.141 -0.304 -0.350 -0.347 -0.347
 0.206  1.055 -0.137 -0.302 -0.349 -0.346 -0.346
 0.208  1.058 -0.134 -0.300 -0.348 -0.345 -0.345
 0.210  1.061 -0.131 -0.299 -0.347 -0.344 -0.344
 0.212  1.064 -0.128 -0.296 -0.346 -0.343 -0.343
 0.214  1.067 -0.124 -0.295 -0.344 -0.342 -0.342
 0.216  1.070 -0.121 -0.293 -0.343 -0.341 -0.341
 0.218  1.073 -0.118 -0.291 -0.342 -0.340 -0.340
 0.220  1.076 -0.114 -0.289 -0.341 -0.339 -0.339
 0.222  1.079 -0.111 -0.287 -0.340 -0.339 -0.339
 0.224  1.082 -0.108 -0.286 -0.339 -0.338 -0.338
 0.226  1.085 -0.105 -0.284 -0.338 -0.337 -0.337
 0.228  1.088 -0.101 -0.282 -0.337 -0.336 -0.336
 0.230  1.091 -0.097 -0.280 -0.336 -0.335 -0.335
 0.232  1.093 -0.094 -0.278 -0.334 -0.334 -0.334
 0.234  1.096 -0.091 -0.277 -0.333 -0.333 -0.333
 0.236  1.099 -0.088 -0.275 -0.333 -0.332 -0.332
 0.238  1.101 -0.084 -0.273 -0.331 -0.332 -0.332
 0.240  1.104 -0.081 -0.271 -0.330 -0.330 -0.330
 0.242  1.107 -0.078 -0.269 -0.329 -0.330 -0.330
 0.244  1.110 -0.075 -0.267 -0.328 -0.329 -0.329
 0.246  1.113 -0.071 -0.266 -0.327 -0.328 -0.328
 0.248  1.115 -0.068 -0.264 -0.325 -0.327 -0.327
 0.250  1.118 -0.066 -0.262 -0.324 -0.326 -0.326
 0.252  1.121 -0.062 -0.260 -0.323 -0.325 -0.325
 0.254  1.123 -0.059 -0.258 -0.322 -0.324 -0.324
 0.256  1.126 -0.057 -0.257 -0.321 -0.323 -0.323
 0.258  1.129 -0.053 -0.255 -0.319 -0.322 -0.322
 0.260  1.131 -0.050 -0.253 -0.318 -0.321 -0.321
 0.262  1.134 -0.048 -0.251 -0.317 -0.320 -0.320
 0.264  1.136 -0.044 -0.249 -0.316 -0.320 -0.320
 0.266  1.139 -0.042 -0.248 -0.315 -0.319 -0.319
 0.268  1.142 -0.039 -0.245 -0.313 -0.318 -0.318
 0.270  1.144 -0.036 -0.244 -0.312 -0.317 -0.317
 0.272  1.147 -0.034 -0.242 -0.311 -0.316 -0.316
 0.274  1.149 -0.030 -0.240 -0.309 -0.315 -0.315
 0.276  1.152 -0.028 -0.238 -0.308 -0.314 -0.314
 0.278  1.155 -0.026 -0.236 -0.306 -0.313 -0.313
 0.280  1.157 -0.023 -0.235 -0.305 -0.312 -0.312
 0.282  1.159 -0.021 -0.232 -0.304 -0.311 -0.311
 0.284  1.162 -0.017 -0.231 -0.303 -0.310 -0.310
 0.286  1.164 -0.015 -0.229 -0.301 -0.310 -0.310
 0.288  1.166 -0.013 -0.227 -0.300 -0.309 -0.309
 0.290  1.169 -0.010 -0.225 -0.298 -0.308 -0.308
 0.292  1.171 -0.008 -0.223 -0.297 -0.307 -0.307
 0.294  1.173 -0.006 -0.222 -0.296 -0.306 -0.306
 0.296  1.176 -0.004 -0.220 -0.294 -0.305 -0.305
 0.298  1.179 -0.001 -0.218 -0.293 -0.304 -0.304
 0.300  1.181  0.001 -0.216 -0.291 -0.303 -0.303
 0.302  1.183  0.003 -0.214 -0.290 -0.302 -0.302
 0.304  1.185  0.005 -0.213 -0.288 -0.301 -0.301
 0.306  1.187  0.008 -0.211 -0.287 -0.300 -0.300
 0.308  1.190  0.010 -0.209 -0.286 -0.300 -0.300
 0.310  1.192  0.012 -0.207 -0.284 -0.298 -0.298
 0.312  1.195  0.014 -0.206 -0.283 -0.298 -0.298
 0.314  1.197  0.017 -0.204 -0.282 -0.297 -0.297
 0.316  1.200  0.018 -0.202 -0.280 -0.296 -0.296
 0.318  1.202  0.021 -0.200 -0.279 -0.295 -0.295
 0.320  1.204  0.023 -0.199 -0.278 -0.294 -0.294
 0.322  1.206  0.026 -0.197 -0.277 -0.293 -0.293
 0.324  1.208  0.027 -0.195 -0.275 -0.292 -0.292
 0.326  1.211  0.030 -0.194 -0.274 -0.291 -0.291
 0.328  1.213  0.032 -0.192 -0.273 -0.290 -0.290
 0.330  1.216  0.035 -0.190 -0.271 -0.289 -0.289
 0.332  1.218  0.037 -0.189 -0.270 -0.288 -0.288
 0.334  1.220  0.039 -0.187 -0.269 -0.287 -0.287
 0.336  1.222  0.041 -0.185 -0.268 -0.286 -0.286
 0.338  1.225  0.044 -0.184 -0.267 -0.285 -0.285
 0.340  1.227  0.046 -0.182 -0.265 -0.284 -0.284
 0.342  1.229  0.049 -0.180 -0.264 -0.283 -0.283
 0.344  1.232  0.051 -0.179 -0.263 -0.282 -0.282
 0.346  1.234  0.054 -0.177 -0.262 -0.281 -0.281
 0.348  1.236  0.056 -0.175 -0.260 -0.281 -0.281
 0.350  1.239  0.058 -0.174 -0.260 -0.279 -0.279
 0.352  1.241  0.061 -0.172 -0.259 -0.279 -0.279
 0.354  1.243  0.063 -0.170 -0.258 -0.278 -0.278
 0.356  1.245  0.066 -0.168 -0.256 -0.277 -0.277
 0.358  1.248  0.068 -0.167 -0.255 -0.276 -0.276
 0.360  1.250  0.071 -0.165 -0.254 -0.275 -0.275
 0.362  1.252  0.073 -0.164 -0.253 -0.274 -0.274
 0.364  1.255  0.076 -0.162 -0.252 -0.273 -0.273
 0.366  1.257  0.078 -0.161 -0.251 -0.272 -0.272
 0.368  1.259  0.080 -0.159 -0.250 -0.271 -0.271
 0.370  1.261  0.083 -0.158 -0.249 -0.270 -0.270
 0.372  1.264  0.085 -0.156 -0.248 -0.269 -0.269
 0.374  1.266  0.088 -0.154 -0.247 -0.268 -0.268
 0.376  1.267  0.090 -0.153 -0.246 -0.267 -0.267
 0.378  1.269  0.093 -0.152 -0.245 -0.266 -0.266
 0.380  1.272  0.095 -0.151 -0.244 -0.265 -0.265
 0.382  1.274  0.098 -0.149 -0.243 -0.264 -0.264
 0.384  1.276  0.100 -0.148 -0.242 -0.263 -0.263
 0.386  1.277  0.102 -0.146 -0.241 -0.262 -0.262
 0.388  1.280  0.105 -0.145 -0.240 -0.261 -0.261
 0.390  1.282  0.107 -0.143 -0.239 -0.260 -0.260
 0.392  1.283  0.110 -0.142 -0.237 -0.259 -0.259
 0.394  1.285  0.112 -0.140 -0.236 -0.258 -0.258
 0.396  1.287  0.115 -0.139 -0.235 -0.257 -0.257
 0.398  1.289  0.116 -0.138 -0.234 -0.256 -0.256
 0.400  1.291  0.119 -0.137 -0.232 -0.256 -0.256
 0.402  1.293  0.121 -0.135 -0.232 -0.254 -0.254
 0.404  1.294  0.123 -0.134 -0.230 -0.254 -0.254
 0.406  1.296  0.125 -0.133 -0.229 -0.253 -0.253
 0.408  1.298  0.127 -0.132 -0.228 -0.252 -0.252
 0.410  1.299  0.129 -0.130 -0.227 -0.251 -0.251
 0.412  1.301  0.131 -0.129 -0.225 -0.250 -0.250
 0.414  1.303  0.133 -0.128 -0.224 -0.249 -0.249
 0.416  1.304  0.135 -0.127 -0.223 -0.248 -0.248
 0.418  1.306  0.138 -0.126 -0.222 -0.247 -0.247
 0.420  1.307  0.139 -0.125 -0.220 -0.246 -0.246
 0.422  1.309  0.141 -0.124 -0.219 -0.245 -0.245
 0.424  1.310  0.142 -0.122 -0.218 -0.244 -0.244
 0.426  1.312  0.145 -0.121 -0.216 -0.243 -0.243
 0.428  1.313  0.147 -0.120 -0.215 -0.242 -0.242
 0.430  1.315  0.148 -0.119 -0.214 -0.241 -0.241
 0.432  1.316  0.150 -0.118 -0.213 -0.240 -0.240
 0.434  1.317  0.151 -0.117 -0.211 -0.240 -0.240
 0.436  1.319  0.153 -0.116 -0.210 -0.238 -0.238
 0.438  1.320  0.155 -0.115 -0.208 -0.238 -0.238
 0.440  1.322  0.156 -0.114 -0.207 -0.237 -0.237
 0.442  1.323  0.158 -0.112 -0.205 -0.236 -0.236
 0.444  1.325  0.160 -0.111 -0.204 -0.235 -0.235
 0.446  1.326  0.161 -0.110 -0.203 -0.234 -0.234
 0.448  1.328  0.163 -0.109 -0.201 -0.233 -0.233
 0.450  1.329  0.164 -0.108 -0.200 -0.232 -0.232
 0.452  1.331  0.165 -0.107 -0.199 -0.231 -0.231
 0.454  1.332  0.167 -0.106 -0.197 -0.231 -0.231
 0.456  1.333  0.168 -0.105 -0.196 -0.230 -0.230
 0.458  1.335  0.169 -0.104 -0.195 -0.229 -0.229
 0.460  1.336  0.171 -0.103 -0.194 -0.228 -0.228
 0.462  1.338  0.172 -0.102 -0.193 -0.227 -0.227
 0.464  1.339  0.173 -0.101 -0.192 -0.227 -0.227
 0.466  1.341  0.174 -0.099 -0.191 -0.225 -0.225
 0.468  1.343  0.176 -0.098 -0.189 -0.225 -0.225
 0.470  1.344  0.177 -0.097 -0.188 -0.224 -0.224
 0.472  1.346  0.178 -0.096 -0.187 -0.223 -0.223
 0.474  1.347  0.179 -0.095 -0.187 -0.222 -0.222
 0.476  1.349  0.181 -0.094 -0.186 -0.222 -0.222
 0.478  1.350  0.182 -0.093 -0.185 -0.221 -0.221
 0.480  1.352  0.183 -0.092 -0.184 -0.220 -0.220
 0.482  1.354  0.184 -0.091 -0.183 -0.219 -0.219
 0.484  1.355  0.185 -0.089 -0.182 -0.219 -0.219
 0.486  1.357  0.186 -0.088 -0.181 -0.218 -0.218
 0.488  1.359  0.187 -0.087 -0.180 -0.217 -0.217
 0.490  1.360  0.188 -0.087 -0.179 -0.216 -0.216
 0.492  1.362  0.189 -0.085 -0.179 -0.216 -0.216
 0.494  1.364  0.190 -0.084 -0.178 -0.215 -0.215
 0.496  1.365  0.191 -0.083 -0.177 -0.215 -0.215
 0.498  1.368  0.191 -0.082 -0.177 -0.214 -0.214
 0.500  1.369  0.192 -0.081 -0.176 -0.213 -0.213
 0.502  1.371  0.194 -0.080 -0.176 -0.212 -0.212
 0.504  1.373  0.195 -0.079 -0.175 -0.212 -0.212
 0.506  1.374  0.195 -0.078 -0.174 -0.211 -0.211
 0.508  1.376  0.196 -0.077 -0.174 -0.211 -0.211
 0.510  1.378  0.196 -0.076 -0.173 -0.210 -0.210
 0.512  1.379  0.197 -0.075 -0.173 -0.209 -0.209
 0.514  1.381  0.198 -0.074 -0.172 -0.209 -0.209
 0.516  1.382  0.199 -0.073 -0.171 -0.208 -0.208
 0.518  1.384  0.200 -0.072 -0.171 -0.207 -0.207
 0.520  1.385  0.200 -0.071 -0.170 -0.206 -0.206
 0.522  1.387  0.200 -0.070 -0.170 -0.206 -0.206
 0.524  1.387  0.201 -0.069 -0.169 -0.205 -0.205
 0.526  1.389  0.202 -0.069 -0.169 -0.205 -0.205
 0.528  1.390  0.203 -0.068 -0.168 -0.204 -0.204
 0.530  1.391  0.203 -0.067 -0.168 -0.203 -0.203
 0.532  1.392  0.204 -0.066 -0.168 -0.203 -0.203
 0.534  1.393  0.204 -0.065 -0.167 -0.202 -0.202
 0.536  1.394  0.204 -0.064 -0.166 -0.201 -0.201
 0.538  1.395  0.205 -0.064 -0.166 -0.200 -0.200
 0.540  1.395  0.205 -0.063 -0.165 -0.200 -0.200
 0.542  1.396  0.206 -0.062 -0.164 -0.199 -0.199
 0.544  1.397  0.206 -0.061 -0.164 -0.199 -0.199
 0.546  1.398  0.207 -0.060 -0.163 -0.198 -0.198
 0.548  1.398  0.207 -0.060 -0.163 -0.197 -0.197
 0.550  1.398  0.208 -0.059 -0.162 -0.196 -0.196
 0.552  1.398  0.208 -0.058 -0.161 -0.196 -0.196
 0.554  1.399  0.208 -0.057 -0.161 -0.195 -0.195
 0.556  1.399  0.209 -0.057 -0.160 -0.194 -0.194
 0.558  1.400  0.209 -0.056 -0.159 -0.193 -0.193
 0.560  1.400  0.209 -0.055 -0.159 -0.193 -0.193
 0.562  1.400  0.209 -0.055 -0.158 -0.192 -0.192
 0.564  1.400  0.209 -0.054 -0.158 -0.192 -0.192
 0.566  1.400  0.209 -0.053 -0.157 -0.191 -0.191
 0.568  1.400  0.210 -0.053 -0.156 -0.190 -0.190
 0.570  1.400  0.210 -0.052 -0.155 -0.189 -0.189
 0.572  1.399  0.210 -0.052 -0.155 -0.189 -0.189
 0.574  1.399  0.210 -0.051 -0.154 -0.188 -0.188
 0.576  1.399  0.210 -0.051 -0.153 -0.187 -0.187
 0.578  1.398  0.210 -0.050 -0.152 -0.186 -0.186
 0.580  1.398  0.210 -0.050 -0.152 -0.186 -0.186
 0.582  1.398  0.210 -0.049 -0.151 -0.185 -0.185
 0.584  1.398  0.210 -0.048 -0.150 -0.184 -0.184
 0.586  1.398  0.210 -0.048 -0.150 -0.184 -0.184
 0.588  1.398  0.210 -0.048 -0.149 -0.183 -0.183
 0.590  1.397  0.210 -0.047 -0.148 -0.182 -0.182
 0.592  1.397  0.210 -0.047 -0.148 -0.182 -0.182
 0.594  1.397  0.210 -0.047 -0.147 -0.181 -0.181
 0.596  1.396  0.210 -0.046 -0.146 -0.180 -0.180
 0.598  1.396  0.210 -0.046 -0.145 -0.180 -0.180
 0.600  1.396  0.210 -0.046 -0.145 -0.179 -0.179
 0.602  1.396  0.210 -0.045 -0.144 -0.179 -0.179
 0.604  1.396  0.210 -0.045 -0.143 -0.178 -0.178
 0.606  1.396  0.210 -0.045 -0.143 -0.178 -0.178
 0.608  1.395  0.210 -0.045 -0.142 -0.177 -0.177
 0.610  1.395  0.209 -0.045 -0.141 -0.177 -0.177
 0.612  1.395  0.209 -0.044 -0.141 -0.176 -0.176
 0.614  1.395  0.209 -0.044 -0.141 -0.176 -0.176
 0.616  1.395  0.209 -0.044 -0.140 -0.175 -0.175
 0.618  1.395  0.209 -0.043 -0.139 -0.174 -0.174
 0.620  1.395  0.209 -0.043 -0.139 -0.174 -0.174
 0.622  1.395  0.209 -0.043 -0.138 -0.174 -0.174
 0.624  1.395  0.209 -0.043 -0.138 -0.173 -0.173
 0.626  1.395  0.209 -0.043 -0.137 -0.173 -0.173
 0.628  1.395  0.209 -0.043 -0.137 -0.172 -0.172
 0.630  1.395  0.209 -0.043 -0.136 -0.172 -0.172
 0.632  1.395  0.209 -0.043 -0.136 -0.171 -0.171
 0.634  1.395  0.209 -0.043 -0.135 -0.171 -0.171
 0.636  1.396  0.209 -0.043 -0.135 -0.171 -0.171
 0.638  1.396  0.209 -0.043 -0.134 -0.170 -0.170
 0.640  1.396  0.209 -0.043 -0.134 -0.170 -0.170
 0.642  1.396  0.209 -0.043 -0.133 -0.170 -0.170
 0.644  1.396  0.209 -0.043 -0.133 -0.169 -0.169
 0.646  1.397  0.208 -0.043 -0.132 -0.169 -0.169
 0.648  1.397  0.208 -0.043 -0.132 -0.168 -0.168
 0.650  1.397  0.208 -0.043 -0.132 -0.168 -0.168
 0.652  1.398  0.208 -0.043 -0.132 -0.167 -0.167
 0.654  1.398  0.208 -0.042 -0.131 -0.167 -0.167
 0.656  1.398  0.208 -0.042 -0.131 -0.167 -0.167
 0.658  1.398  0.207 -0.042 -0.130 -0.166 -0.166
 0.660  1.398  0.207 -0.041 -0.130 -0.166 -0.166
 0.662  1.398  0.207 -0.041 -0.130 -0.165 -0.165
 0.664  1.399  0.207 -0.041 -0.129 -0.165 -0.165
 0.666  1.399  0.207 -0.040 -0.129 -0.164 -0.164
 0.668  1.399  0.207 -0.039 -0.128 -0.164 -0.164
 0.670  1.400  0.207 -0.039 -0.128 -0.163 -0.163
 0.672  1.400  0.207 -0.038 -0.127 -0.162 -0.162
 0.674  1.400  0.207 -0.038 -0.127 -0.162 -0.162
 0.676  1.400  0.207 -0.037 -0.126 -0.161 -0.161
 0.678  1.400  0.207 -0.036 -0.125 -0.161 -0.161
 0.680  1.401  0.208 -0.036 -0.125 -0.160 -0.160
 0.682  1.401  0.208 -0.034 -0.124 -0.160 -0.160
 0.684  1.402  0.208 -0.034 -0.123 -0.159 -0.159
 0.686  1.402  0.209 -0.033 -0.123 -0.158 -0.158
 0.688  1.403  0.209 -0.032 -0.122 -0.157 -0.157
 0.690  1.403  0.209 -0.031 -0.121 -0.157 -0.157
 0.692  1.403  0.209 -0.030 -0.121 -0.156 -0.156
 0.694  1.403  0.210 -0.029 -0.120 -0.155 -0.155
 0.696  1.404  0.211 -0.028 -0.119 -0.154 -0.154
 0.698  1.405  0.211 -0.027 -0.118 -0.153 -0.153
 0.700  1.405  0.212 -0.026 -0.117 -0.152 -0.152
 0.702  1.406  0.213 -0.025 -0.116 -0.152 -0.152
 0.704  1.406  0.213 -0.023 -0.115 -0.151 -0.151
 0.706  1.406  0.214 -0.022 -0.114 -0.150 -0.150
 0.708  1.407  0.215 -0.021 -0.113 -0.149 -0.149
 0.710  1.407  0.216 -0.020 -0.112 -0.148 -0.148
 0.712  1.408  0.217 -0.018 -0.111 -0.147 -0.147
 0.714  1.408  0.217 -0.017 -0.110 -0.146 -0.146
 0.716  1.408  0.218 -0.015 -0.109 -0.145 -0.145
 0.718  1.409  0.219 -0.014 -0.108 -0.144 -0.144
 0.720  1.409  0.221 -0.013 -0.107 -0.143 -0.143
 0.722  1.410  0.222 -0.011 -0.106 -0.142 -0.142
 0.724  1.411  0.222 -0.009 -0.105 -0.141 -0.141
 0.726  1.411  0.224 -0.007 -0.104 -0.140 -0.140
 0.728  1.412  0.225 -0.006 -0.102 -0.139 -0.139
 0.730  1.413  0.226 -0.004 -0.101 -0.138 -0.138
 0.732  1.414  0.227 -0.002 -0.100 -0.136 -0.136
 0.734  1.415  0.229 -0.000 -0.098 -0.135 -0.135
 0.736  1.416  0.231  0.001 -0.097 -0.134 -0.134
 0.738  1.417  0.231  0.004 -0.095 -0.133 -0.133
 0.740  1.419  0.233  0.005 -0.094 -0.131 -0.131
 0.742  1.420  0.235  0.008 -0.093 -0.130 -0.130
 0.744  1.422  0.235  0.009 -0.091 -0.128 -0.128
 0.746  1.423  0.237  0.012 -0.089 -0.127 -0.127
 0.748  1.424  0.239  0.014 -0.087 -0.126 -0.126
 0.750  1.426  0.240  0.016 -0.086 -0.124 -0.124
 0.752  1.427  0.242  0.018 -0.084 -0.123 -0.123
 0.754  1.429  0.244  0.021 -0.082 -0.121 -0.121
 0.756  1.430  0.245  0.023 -0.080 -0.119 -0.119
 0.758  1.432  0.247  0.025 -0.078 -0.118 -0.118
 0.760  1.434  0.249  0.027 -0.077 -0.116 -0.116
 0.762  1.435  0.251  0.030 -0.075 -0.115 -0.115
 0.764  1.438  0.253  0.032 -0.073 -0.113 -0.113
 0.766  1.440  0.254  0.035 -0.070 -0.111 -0.111
 0.768  1.442  0.256  0.037 -0.068 -0.110 -0.110
 0.770  1.444  0.258  0.040 -0.066 -0.108 -0.108
 0.772  1.446  0.260  0.043 -0.064 -0.106 -0.106
 0.774  1.449  0.262  0.046 -0.062 -0.104 -0.104
 0.776  1.451  0.263  0.049 -0.059 -0.102 -0.102
 0.778  1.454  0.266  0.051 -0.057 -0.100 -0.100
 0.780  1.457  0.267  0.054 -0.054 -0.098 -0.098
 0.782  1.460  0.269  0.056 -0.052 -0.096 -0.096
 0.784  1.462  0.271  0.059 -0.049 -0.094 -0.094
 0.786  1.465  0.273  0.061 -0.047 -0.092 -0.092
 0.788  1.467  0.275  0.063 -0.044 -0.090 -0.090
 0.790  1.470  0.278  0.064 -0.041 -0.088 -0.088
 0.792  1.472  0.280  0.065 -0.039 -0.086 -0.086
 0.794  1.475  0.283  0.067 -0.036 -0.084 -0.084
 0.796  1.477  0.285  0.067 -0.033 -0.083 -0.083
 0.798  1.478  0.288  0.067 -0.031 -0.081 -0.081
 0.800  1.480  0.290  0.067 -0.029 -0.079 -0.079
 0.802  1.481  0.293  0.067 -0.026 -0.078 -0.078
 0.804  1.482  0.295  0.066 -0.024 -0.077 -0.077
 0.806  1.483  0.297  0.065 -0.022 -0.076 -0.076
 0.808  1.483  0.298  0.064 -0.021 -0.075 -0.075
