# IsPeriodic    : True
# Period        : 0.606049 days
# Normalization : <g_mag>=0
# 
# Phase u_mag  g_mag  r_mag  i_mag  z_mag  y_mag
 0.000  0.656 -0.614 -0.565 -0.504 -0.460 -0.460
 0.002  0.656 -0.614 -0.565 -0.504 -0.460 -0.460
 0.004  0.656 -0.614 -0.565 -0.503 -0.459 -0.459
 0.006  0.656 -0.613 -0.565 -0.503 -0.459 -0.459
 0.008  0.657 -0.612 -0.564 -0.502 -0.458 -0.458
 0.010  0.658 -0.611 -0.564 -0.502 -0.457 -0.457
 0.012  0.659 -0.610 -0.563 -0.501 -0.457 -0.457
 0.014  0.661 -0.608 -0.562 -0.500 -0.456 -0.456
 0.016  0.662 -0.606 -0.562 -0.500 -0.455 -0.455
 0.018  0.664 -0.604 -0.560 -0.499 -0.454 -0.454
 0.020  0.666 -0.602 -0.559 -0.498 -0.453 -0.453
 0.022  0.668 -0.600 -0.558 -0.497 -0.452 -0.452
 0.024  0.671 -0.597 -0.557 -0.496 -0.451 -0.451
 0.026  0.674 -0.594 -0.555 -0.495 -0.450 -0.450
 0.028  0.677 -0.591 -0.553 -0.494 -0.449 -0.449
 0.030  0.680 -0.588 -0.551 -0.492 -0.447 -0.447
 0.032  0.684 -0.584 -0.550 -0.490 -0.446 -0.446
 0.034  0.688 -0.580 -0.548 -0.489 -0.445 -0.445
 0.036  0.692 -0.576 -0.546 -0.487 -0.444 -0.444
 0.038  0.696 -0.572 -0.543 -0.485 -0.442 -0.442
 0.040  0.701 -0.568 -0.541 -0.483 -0.441 -0.441
 0.042  0.706 -0.563 -0.538 -0.481 -0.439 -0.439
 0.044  0.711 -0.558 -0.535 -0.479 -0.438 -0.438
 0.046  0.716 -0.552 -0.533 -0.477 -0.436 -0.436
 0.048  0.721 -0.547 -0.530 -0.474 -0.434 -0.434
 0.050  0.727 -0.540 -0.526 -0.472 -0.433 -0.433
 0.052  0.732 -0.534 -0.524 -0.469 -0.431 -0.431
 0.054  0.738 -0.528 -0.520 -0.466 -0.429 -0.429
 0.056  0.743 -0.522 -0.517 -0.464 -0.428 -0.428
 0.058  0.749 -0.516 -0.513 -0.461 -0.426 -0.426
 0.060  0.754 -0.509 -0.509 -0.458 -0.423 -0.423
 0.062  0.760 -0.502 -0.505 -0.456 -0.422 -0.422
 0.064  0.765 -0.495 -0.501 -0.453 -0.420 -0.420
 0.066  0.771 -0.488 -0.498 -0.450 -0.417 -0.417
 0.068  0.776 -0.482 -0.493 -0.447 -0.415 -0.415
 0.070  0.781 -0.476 -0.489 -0.445 -0.413 -0.413
 0.072  0.786 -0.469 -0.485 -0.442 -0.411 -0.411
 0.074  0.791 -0.463 -0.480 -0.439 -0.409 -0.409
 0.076  0.796 -0.456 -0.476 -0.437 -0.406 -0.406
 0.078  0.801 -0.450 -0.471 -0.434 -0.405 -0.405
 0.080  0.806 -0.444 -0.467 -0.432 -0.402 -0.402
 0.082  0.810 -0.438 -0.463 -0.429 -0.400 -0.400
 0.084  0.815 -0.432 -0.458 -0.427 -0.398 -0.398
 0.086  0.819 -0.426 -0.454 -0.425 -0.396 -0.396
 0.088  0.824 -0.421 -0.450 -0.422 -0.394 -0.394
 0.090  0.828 -0.415 -0.447 -0.420 -0.392 -0.392
 0.092  0.833 -0.409 -0.443 -0.418 -0.390 -0.390
 0.094  0.837 -0.404 -0.439 -0.416 -0.388 -0.388
 0.096  0.841 -0.398 -0.435 -0.413 -0.386 -0.386
 0.098  0.846 -0.393 -0.432 -0.411 -0.384 -0.384
 0.100  0.850 -0.387 -0.428 -0.409 -0.382 -0.382
 0.102  0.854 -0.383 -0.425 -0.407 -0.380 -0.380
 0.104  0.857 -0.378 -0.421 -0.405 -0.379 -0.379
 0.106  0.862 -0.373 -0.418 -0.403 -0.377 -0.377
 0.108  0.866 -0.368 -0.415 -0.401 -0.375 -0.375
 0.110  0.869 -0.363 -0.412 -0.399 -0.374 -0.374
 0.112  0.873 -0.359 -0.409 -0.397 -0.372 -0.372
 0.114  0.877 -0.354 -0.405 -0.396 -0.370 -0.370
 0.116  0.880 -0.349 -0.403 -0.394 -0.368 -0.368
 0.118  0.884 -0.345 -0.400 -0.392 -0.367 -0.367
 0.120  0.887 -0.340 -0.397 -0.390 -0.365 -0.365
 0.122  0.891 -0.337 -0.394 -0.389 -0.364 -0.364
 0.124  0.894 -0.333 -0.392 -0.387 -0.363 -0.363
 0.126  0.897 -0.329 -0.389 -0.385 -0.361 -0.361
 0.128  0.901 -0.325 -0.386 -0.384 -0.359 -0.359
 0.130  0.904 -0.321 -0.384 -0.382 -0.358 -0.358
 0.132  0.908 -0.317 -0.381 -0.380 -0.357 -0.357
 0.134  0.911 -0.313 -0.379 -0.379 -0.356 -0.356
 0.136  0.915 -0.309 -0.377 -0.377 -0.354 -0.354
 0.138  0.919 -0.305 -0.375 -0.376 -0.353 -0.353
 0.140  0.922 -0.301 -0.373 -0.374 -0.352 -0.352
 0.142  0.925 -0.297 -0.371 -0.373 -0.351 -0.351
 0.144  0.929 -0.295 -0.369 -0.371 -0.350 -0.350
 0.146  0.932 -0.291 -0.367 -0.369 -0.348 -0.348
 0.148  0.936 -0.287 -0.365 -0.368 -0.347 -0.347
 0.150  0.939 -0.283 -0.363 -0.367 -0.346 -0.346
 0.152  0.942 -0.279 -0.361 -0.365 -0.345 -0.345
 0.154  0.946 -0.275 -0.359 -0.363 -0.344 -0.344
 0.156  0.949 -0.271 -0.357 -0.362 -0.342 -0.342
 0.158  0.953 -0.267 -0.355 -0.361 -0.341 -0.341
 0.160  0.956 -0.263 -0.352 -0.359 -0.340 -0.340
 0.162  0.959 -0.259 -0.350 -0.357 -0.339 -0.339
 0.164  0.963 -0.255 -0.348 -0.356 -0.338 -0.338
 0.166  0.966 -0.251 -0.346 -0.354 -0.337 -0.337
 0.168  0.970 -0.248 -0.344 -0.353 -0.335 -0.335
 0.170  0.974 -0.244 -0.341 -0.351 -0.334 -0.334
 0.172  0.977 -0.239 -0.339 -0.350 -0.333 -0.333
 0.174  0.981 -0.235 -0.337 -0.348 -0.332 -0.332
 0.176  0.984 -0.231 -0.335 -0.346 -0.330 -0.330
 0.178  0.987 -0.227 -0.332 -0.345 -0.330 -0.330
 0.180  0.991 -0.223 -0.330 -0.343 -0.328 -0.328
 0.182  0.994 -0.219 -0.328 -0.342 -0.327 -0.327
 0.184  0.998 -0.215 -0.326 -0.340 -0.325 -0.325
 0.186  1.001 -0.211 -0.324 -0.339 -0.324 -0.324
 0.188  1.005 -0.207 -0.321 -0.337 -0.323 -0.323
 0.190  1.009 -0.203 -0.319 -0.336 -0.322 -0.322
 0.192  1.012 -0.199 -0.316 -0.334 -0.320 -0.320
 0.194  1.015 -0.195 -0.314 -0.332 -0.319 -0.319
 0.196  1.019 -0.191 -0.311 -0.331 -0.318 -0.318
 0.198  1.022 -0.187 -0.308 -0.330 -0.317 -0.317
 0.200  1.026 -0.183 -0.306 -0.328 -0.315 -0.315
 0.202  1.029 -0.178 -0.304 -0.326 -0.314 -0.314
 0.204  1.032 -0.174 -0.301 -0.325 -0.313 -0.313
 0.206  1.036 -0.170 -0.299 -0.324 -0.311 -0.311
 0.208  1.039 -0.166 -0.296 -0.322 -0.310 -0.310
 0.210  1.042 -0.162 -0.293 -0.320 -0.308 -0.308
 0.212  1.046 -0.158 -0.291 -0.319 -0.307 -0.307
 0.214  1.049 -0.155 -0.288 -0.318 -0.306 -0.306
 0.216  1.053 -0.151 -0.286 -0.316 -0.304 -0.304
 0.218  1.055 -0.147 -0.283 -0.315 -0.303 -0.303
 0.220  1.059 -0.143 -0.280 -0.313 -0.302 -0.302
 0.222  1.062 -0.139 -0.277 -0.312 -0.300 -0.300
 0.224  1.065 -0.135 -0.275 -0.310 -0.299 -0.299
 0.226  1.068 -0.132 -0.273 -0.309 -0.297 -0.297
 0.228  1.071 -0.128 -0.270 -0.307 -0.296 -0.296
 0.230  1.075 -0.124 -0.268 -0.306 -0.295 -0.295
 0.232  1.077 -0.121 -0.265 -0.304 -0.293 -0.293
 0.234  1.081 -0.117 -0.263 -0.303 -0.292 -0.292
 0.236  1.084 -0.114 -0.260 -0.302 -0.291 -0.291
 0.238  1.087 -0.111 -0.258 -0.300 -0.289 -0.289
 0.240  1.090 -0.108 -0.255 -0.298 -0.288 -0.288
 0.242  1.093 -0.104 -0.253 -0.297 -0.287 -0.287
 0.244  1.096 -0.101 -0.251 -0.296 -0.286 -0.286
 0.246  1.098 -0.097 -0.249 -0.294 -0.284 -0.284
 0.248  1.102 -0.094 -0.247 -0.293 -0.283 -0.283
 0.250  1.104 -0.091 -0.244 -0.291 -0.282 -0.282
 0.252  1.107 -0.088 -0.242 -0.290 -0.281 -0.281
 0.254  1.110 -0.085 -0.240 -0.288 -0.279 -0.279
 0.256  1.113 -0.082 -0.238 -0.287 -0.278 -0.278
 0.258  1.115 -0.078 -0.236 -0.286 -0.277 -0.277
 0.260  1.119 -0.075 -0.234 -0.284 -0.275 -0.275
 0.262  1.121 -0.072 -0.232 -0.283 -0.274 -0.274
 0.264  1.124 -0.070 -0.231 -0.281 -0.273 -0.273
 0.266  1.126 -0.067 -0.229 -0.280 -0.272 -0.272
 0.268  1.130 -0.065 -0.227 -0.279 -0.270 -0.270
 0.270  1.132 -0.062 -0.224 -0.277 -0.270 -0.270
 0.272  1.135 -0.059 -0.223 -0.276 -0.268 -0.268
 0.274  1.138 -0.056 -0.221 -0.275 -0.267 -0.267
 0.276  1.141 -0.054 -0.220 -0.273 -0.266 -0.266
 0.278  1.143 -0.051 -0.218 -0.271 -0.264 -0.264
 0.280  1.146 -0.048 -0.216 -0.270 -0.264 -0.264
 0.282  1.149 -0.045 -0.214 -0.269 -0.262 -0.262
 0.284  1.151 -0.043 -0.213 -0.268 -0.261 -0.261
 0.286  1.154 -0.040 -0.211 -0.266 -0.260 -0.260
 0.288  1.157 -0.037 -0.209 -0.265 -0.259 -0.259
 0.290  1.160 -0.034 -0.208 -0.263 -0.258 -0.258
 0.292  1.162 -0.032 -0.206 -0.262 -0.257 -0.257
 0.294  1.165 -0.029 -0.205 -0.260 -0.255 -0.255
 0.296  1.168 -0.026 -0.202 -0.259 -0.254 -0.254
 0.298  1.171 -0.023 -0.201 -0.258 -0.253 -0.253
 0.300  1.173 -0.021 -0.200 -0.256 -0.252 -0.252
 0.302  1.176 -0.018 -0.198 -0.255 -0.251 -0.251
 0.304  1.178 -0.015 -0.196 -0.253 -0.250 -0.250
 0.306  1.182 -0.013 -0.194 -0.252 -0.249 -0.249
 0.308  1.184 -0.010 -0.193 -0.250 -0.248 -0.248
 0.310  1.187 -0.007 -0.191 -0.249 -0.247 -0.247
 0.312  1.189 -0.004 -0.189 -0.248 -0.246 -0.246
 0.314  1.192 -0.001 -0.187 -0.246 -0.244 -0.244
 0.316  1.194  0.002 -0.185 -0.245 -0.243 -0.243
 0.318  1.198  0.005 -0.184 -0.243 -0.242 -0.242
 0.320  1.200  0.008 -0.182 -0.242 -0.241 -0.241
 0.322  1.203  0.011 -0.180 -0.241 -0.240 -0.240
 0.324  1.205  0.014 -0.178 -0.239 -0.239 -0.239
 0.326  1.208  0.017 -0.176 -0.237 -0.238 -0.238
 0.328  1.211  0.020 -0.174 -0.236 -0.237 -0.237
 0.330  1.214  0.023 -0.173 -0.235 -0.236 -0.236
 0.332  1.216  0.025 -0.171 -0.233 -0.235 -0.235
 0.334  1.219  0.028 -0.169 -0.232 -0.234 -0.234
 0.336  1.222  0.031 -0.167 -0.230 -0.233 -0.233
 0.338  1.224  0.034 -0.165 -0.229 -0.232 -0.232
 0.340  1.227  0.037 -0.163 -0.227 -0.231 -0.231
 0.342  1.229  0.041 -0.161 -0.226 -0.230 -0.230
 0.344  1.232  0.044 -0.159 -0.225 -0.229 -0.229
 0.346  1.234  0.047 -0.157 -0.223 -0.228 -0.228
 0.348  1.238  0.050 -0.155 -0.221 -0.226 -0.226
 0.350  1.240  0.053 -0.153 -0.220 -0.226 -0.226
 0.352  1.243  0.056 -0.152 -0.219 -0.225 -0.225
 0.354  1.245  0.059 -0.150 -0.217 -0.224 -0.224
 0.356  1.247  0.062 -0.147 -0.215 -0.222 -0.222
 0.358  1.250  0.065 -0.145 -0.214 -0.221 -0.221
 0.360  1.252  0.068 -0.143 -0.212 -0.220 -0.220
 0.362  1.255  0.070 -0.141 -0.211 -0.220 -0.220
 0.364  1.257  0.073 -0.139 -0.210 -0.219 -0.219
 0.366  1.260  0.076 -0.137 -0.208 -0.217 -0.217
 0.368  1.262  0.079 -0.135 -0.206 -0.216 -0.216
 0.370  1.265  0.082 -0.133 -0.205 -0.215 -0.215
 0.372  1.267  0.085 -0.131 -0.204 -0.215 -0.215
 0.374  1.269  0.088 -0.129 -0.202 -0.213 -0.213
 0.376  1.272  0.091 -0.127 -0.200 -0.212 -0.212
 0.378  1.274  0.094 -0.125 -0.199 -0.211 -0.211
 0.380  1.276  0.096 -0.123 -0.198 -0.210 -0.210
 0.382  1.278  0.099 -0.121 -0.196 -0.209 -0.209
 0.384  1.281  0.102 -0.119 -0.194 -0.208 -0.208
 0.386  1.283  0.105 -0.118 -0.193 -0.207 -0.207
 0.388  1.285  0.108 -0.116 -0.192 -0.206 -0.206
 0.390  1.288  0.110 -0.114 -0.190 -0.204 -0.204
 0.392  1.289  0.113 -0.112 -0.189 -0.204 -0.204
 0.394  1.292  0.116 -0.110 -0.187 -0.203 -0.203
 0.396  1.294  0.118 -0.108 -0.186 -0.201 -0.201
 0.398  1.296  0.120 -0.106 -0.184 -0.200 -0.200
 0.400  1.298  0.123 -0.105 -0.182 -0.199 -0.199
 0.402  1.300  0.126 -0.103 -0.181 -0.198 -0.198
 0.404  1.302  0.128 -0.101 -0.179 -0.197 -0.197
 0.406  1.305  0.131 -0.099 -0.178 -0.196 -0.196
 0.408  1.306  0.134 -0.097 -0.176 -0.194 -0.194
 0.410  1.309  0.136 -0.095 -0.175 -0.193 -0.193
 0.412  1.311  0.139 -0.094 -0.173 -0.192 -0.192
 0.414  1.313  0.141 -0.092 -0.172 -0.191 -0.191
 0.416  1.315  0.144 -0.090 -0.170 -0.190 -0.190
 0.418  1.317  0.146 -0.088 -0.169 -0.188 -0.188
 0.420  1.319  0.149 -0.087 -0.167 -0.187 -0.187
 0.422  1.321  0.151 -0.085 -0.166 -0.186 -0.186
 0.424  1.323  0.154 -0.083 -0.164 -0.185 -0.185
 0.426  1.325  0.156 -0.081 -0.163 -0.184 -0.184
 0.428  1.327  0.159 -0.080 -0.161 -0.182 -0.182
 0.430  1.328  0.161 -0.078 -0.160 -0.182 -0.182
 0.432  1.330  0.162 -0.077 -0.159 -0.180 -0.180
 0.434  1.332  0.165 -0.075 -0.157 -0.179 -0.179
 0.436  1.334  0.167 -0.073 -0.156 -0.178 -0.178
 0.438  1.336  0.169 -0.072 -0.155 -0.177 -0.177
 0.440  1.338  0.171 -0.070 -0.153 -0.176 -0.176
 0.442  1.339  0.173 -0.069 -0.152 -0.174 -0.174
 0.444  1.341  0.176 -0.067 -0.151 -0.173 -0.173
 0.446  1.343  0.178 -0.066 -0.149 -0.172 -0.172
 0.448  1.345  0.180 -0.064 -0.148 -0.171 -0.171
 0.450  1.346  0.182 -0.063 -0.147 -0.170 -0.170
 0.452  1.348  0.184 -0.061 -0.146 -0.169 -0.169
 0.454  1.350  0.186 -0.060 -0.145 -0.167 -0.167
 0.456  1.352  0.188 -0.059 -0.143 -0.166 -0.166
 0.458  1.353  0.190 -0.057 -0.142 -0.165 -0.165
 0.460  1.355  0.191 -0.056 -0.141 -0.164 -0.164
 0.462  1.356  0.193 -0.055 -0.140 -0.163 -0.163
 0.464  1.358  0.195 -0.053 -0.139 -0.162 -0.162
 0.466  1.360  0.197 -0.052 -0.138 -0.161 -0.161
 0.468  1.362  0.199 -0.050 -0.137 -0.160 -0.160
 0.470  1.363  0.200 -0.050 -0.135 -0.159 -0.159
 0.472  1.365  0.202 -0.048 -0.134 -0.158 -0.158
 0.474  1.367  0.204 -0.047 -0.134 -0.157 -0.157
 0.476  1.368  0.205 -0.046 -0.133 -0.156 -0.156
 0.478  1.369  0.207 -0.045 -0.132 -0.155 -0.155
 0.480  1.371  0.207 -0.044 -0.130 -0.154 -0.154
 0.482  1.373  0.209 -0.042 -0.130 -0.153 -0.153
 0.484  1.374  0.210 -0.042 -0.129 -0.152 -0.152
 0.486  1.375  0.212 -0.040 -0.128 -0.151 -0.151
 0.488  1.377  0.213 -0.039 -0.127 -0.150 -0.150
 0.490  1.379  0.215 -0.038 -0.126 -0.149 -0.149
 0.492  1.379  0.216 -0.037 -0.125 -0.149 -0.149
 0.494  1.381  0.217 -0.037 -0.124 -0.148 -0.148
 0.496  1.382  0.219 -0.035 -0.123 -0.147 -0.147
 0.498  1.384  0.220 -0.035 -0.122 -0.146 -0.146
 0.500  1.384  0.221 -0.034 -0.122 -0.145 -0.145
 0.502  1.386  0.222 -0.033 -0.121 -0.144 -0.144
 0.504  1.387  0.224 -0.032 -0.120 -0.144 -0.144
 0.506  1.389  0.225 -0.031 -0.119 -0.143 -0.143
 0.508  1.390  0.226 -0.030 -0.118 -0.142 -0.142
 0.510  1.390  0.227 -0.029 -0.117 -0.141 -0.141
 0.512  1.392  0.228 -0.028 -0.117 -0.141 -0.141
 0.514  1.393  0.229 -0.028 -0.116 -0.140 -0.140
 0.516  1.394  0.230 -0.026 -0.115 -0.139 -0.139
 0.518  1.395  0.231 -0.026 -0.114 -0.138 -0.138
 0.520  1.396  0.232 -0.025 -0.113 -0.138 -0.138
 0.522  1.397  0.233 -0.024 -0.112 -0.137 -0.137
 0.524  1.398  0.234 -0.024 -0.112 -0.136 -0.136
 0.526  1.399  0.235 -0.022 -0.111 -0.135 -0.135
 0.528  1.400  0.236 -0.022 -0.110 -0.135 -0.135
 0.530  1.401  0.237 -0.021 -0.109 -0.134 -0.134
 0.532  1.401  0.238 -0.020 -0.108 -0.133 -0.133
 0.534  1.402  0.238 -0.020 -0.107 -0.133 -0.133
 0.536  1.403  0.239 -0.019 -0.107 -0.132 -0.132
 0.538  1.404  0.240 -0.017 -0.106 -0.131 -0.131
 0.540  1.405  0.241 -0.017 -0.105 -0.130 -0.130
 0.542  1.406  0.241 -0.016 -0.105 -0.130 -0.130
 0.544  1.407  0.242 -0.015 -0.104 -0.129 -0.129
 0.546  1.407  0.243 -0.015 -0.103 -0.128 -0.128
 0.548  1.408  0.243 -0.014 -0.102 -0.128 -0.128
 0.550  1.408  0.244 -0.013 -0.101 -0.127 -0.127
 0.552  1.409  0.244 -0.012 -0.101 -0.127 -0.127
 0.554  1.410  0.245 -0.011 -0.100 -0.126 -0.126
 0.556  1.410  0.245 -0.011 -0.099 -0.125 -0.125
 0.558  1.411  0.246 -0.010 -0.099 -0.125 -0.125
 0.560  1.412  0.246 -0.009 -0.098 -0.124 -0.124
 0.562  1.412  0.247 -0.009 -0.097 -0.123 -0.123
 0.564  1.412  0.247 -0.008 -0.096 -0.123 -0.123
 0.566  1.412  0.248 -0.007 -0.096 -0.122 -0.122
 0.568  1.412  0.248 -0.006 -0.095 -0.122 -0.122
 0.570  1.413  0.248 -0.006 -0.094 -0.121 -0.121
 0.572  1.413  0.249 -0.005 -0.094 -0.120 -0.120
 0.574  1.414  0.249 -0.004 -0.093 -0.120 -0.120
 0.576  1.414  0.250 -0.004 -0.093 -0.119 -0.119
 0.578  1.414  0.250 -0.003 -0.092 -0.119 -0.119
 0.580  1.414  0.250 -0.002 -0.091 -0.118 -0.118
 0.582  1.414  0.251 -0.002 -0.090 -0.117 -0.117
 0.584  1.414  0.251 -0.001 -0.090 -0.117 -0.117
 0.586  1.415  0.251 -0.000 -0.089 -0.116 -0.116
 0.588  1.415  0.252  0.000 -0.089 -0.116 -0.116
 0.590  1.415  0.252  0.001 -0.088 -0.115 -0.115
 0.592  1.415  0.252  0.001 -0.088 -0.115 -0.115
 0.594  1.414  0.252  0.002 -0.087 -0.114 -0.114
 0.596  1.414  0.253  0.002 -0.086 -0.114 -0.114
 0.598  1.414  0.253  0.003 -0.086 -0.113 -0.113
 0.600  1.414  0.253  0.003 -0.085 -0.113 -0.113
 0.602  1.414  0.253  0.004 -0.085 -0.112 -0.112
 0.604  1.414  0.253  0.005 -0.084 -0.111 -0.111
 0.606  1.413  0.253  0.005 -0.084 -0.111 -0.111
 0.608  1.413  0.253  0.005 -0.083 -0.111 -0.111
 0.610  1.413  0.253  0.006 -0.083 -0.110 -0.110
 0.612  1.412  0.254  0.006 -0.083 -0.110 -0.110
 0.614  1.412  0.254  0.007 -0.082 -0.109 -0.109
 0.616  1.412  0.254  0.007 -0.082 -0.108 -0.108
 0.618  1.412  0.254  0.007 -0.081 -0.108 -0.108
 0.620  1.411  0.254  0.007 -0.080 -0.107 -0.107
 0.622  1.410  0.254  0.008 -0.080 -0.107 -0.107
 0.624  1.410  0.255  0.008 -0.080 -0.106 -0.106
 0.626  1.409  0.255  0.009 -0.079 -0.106 -0.106
 0.628  1.409  0.255  0.009 -0.079 -0.105 -0.105
 0.630  1.408  0.255  0.009 -0.079 -0.105 -0.105
 0.632  1.408  0.255  0.009 -0.078 -0.104 -0.104
 0.634  1.407  0.255  0.009 -0.078 -0.104 -0.104
 0.636  1.407  0.255  0.009 -0.078 -0.103 -0.103
 0.638  1.407  0.255  0.010 -0.077 -0.103 -0.103
 0.640  1.407  0.255  0.010 -0.077 -0.102 -0.102
 0.642  1.406  0.255  0.010 -0.077 -0.102 -0.102
 0.644  1.406  0.255  0.011 -0.076 -0.101 -0.101
 0.646  1.406  0.255  0.011 -0.076 -0.101 -0.101
 0.648  1.405  0.255  0.011 -0.075 -0.100 -0.100
 0.650  1.405  0.254  0.011 -0.075 -0.100 -0.100
 0.652  1.405  0.254  0.011 -0.075 -0.099 -0.099
 0.654  1.404  0.254  0.011 -0.075 -0.099 -0.099
 0.656  1.404  0.253  0.011 -0.074 -0.099 -0.099
 0.658  1.404  0.253  0.011 -0.074 -0.098 -0.098
 0.660  1.403  0.253  0.011 -0.074 -0.098 -0.098
 0.662  1.403  0.253  0.011 -0.074 -0.097 -0.097
 0.664  1.403  0.252  0.011 -0.074 -0.097 -0.097
 0.666  1.403  0.252  0.011 -0.074 -0.096 -0.096
 0.668  1.403  0.251  0.011 -0.073 -0.096 -0.096
 0.670  1.402  0.251  0.011 -0.073 -0.095 -0.095
 0.672  1.402  0.250  0.011 -0.073 -0.095 -0.095
 0.674  1.402  0.249  0.011 -0.073 -0.095 -0.095
 0.676  1.402  0.249  0.011 -0.073 -0.094 -0.094
 0.678  1.402  0.248  0.010 -0.073 -0.094 -0.094
 0.680  1.402  0.247  0.010 -0.073 -0.094 -0.094
 0.682  1.402  0.246  0.010 -0.072 -0.094 -0.094
 0.684  1.402  0.245  0.010 -0.072 -0.093 -0.093
 0.686  1.402  0.244  0.009 -0.072 -0.093 -0.093
 0.688  1.402  0.243  0.009 -0.072 -0.093 -0.093
 0.690  1.402  0.242  0.009 -0.072 -0.092 -0.092
 0.692  1.402  0.241  0.009 -0.072 -0.092 -0.092
 0.694  1.402  0.240  0.009 -0.072 -0.092 -0.092
 0.696  1.402  0.239  0.008 -0.072 -0.092 -0.092
 0.698  1.402  0.238  0.008 -0.072 -0.091 -0.091
 0.700  1.402  0.236  0.007 -0.072 -0.091 -0.091
 0.702  1.402  0.235  0.007 -0.072 -0.091 -0.091
 0.704  1.402  0.234  0.007 -0.072 -0.091 -0.091
 0.706  1.402  0.233  0.007 -0.072 -0.090 -0.090
 0.708  1.402  0.232  0.006 -0.072 -0.090 -0.090
 0.710  1.403  0.231  0.005 -0.072 -0.090 -0.090
 0.712  1.403  0.230  0.005 -0.071 -0.090 -0.090
 0.714  1.403  0.230  0.005 -0.070 -0.089 -0.089
 0.716  1.403  0.229  0.005 -0.070 -0.089 -0.089
 0.718  1.403  0.229  0.004 -0.069 -0.089 -0.089
 0.720  1.403  0.228  0.004 -0.069 -0.089 -0.089
 0.722  1.403  0.228  0.004 -0.068 -0.089 -0.089
 0.724  1.404  0.228  0.003 -0.067 -0.089 -0.089
 0.726  1.404  0.228  0.003 -0.067 -0.088 -0.088
 0.728  1.404  0.228  0.004 -0.066 -0.088 -0.088
 0.730  1.404  0.228  0.004 -0.064 -0.087 -0.087
 0.732  1.405  0.229  0.004 -0.064 -0.087 -0.087
 0.734  1.405  0.229  0.005 -0.063 -0.086 -0.086
 0.736  1.405  0.230  0.005 -0.061 -0.085 -0.085
 0.738  1.406  0.230  0.005 -0.060 -0.084 -0.084
 0.740  1.406  0.231  0.007 -0.059 -0.084 -0.084
 0.742  1.406  0.232  0.007 -0.057 -0.083 -0.083
 0.744  1.407  0.233  0.008 -0.056 -0.082 -0.082
 0.746  1.407  0.234  0.009 -0.055 -0.081 -0.081
 0.748  1.407  0.235  0.010 -0.053 -0.080 -0.080
 0.750  1.407  0.237  0.011 -0.051 -0.079 -0.079
 0.752  1.407  0.238  0.013 -0.050 -0.078 -0.078
 0.754  1.407  0.240  0.014 -0.047 -0.077 -0.077
 0.756  1.407  0.242  0.016 -0.046 -0.075 -0.075
 0.758  1.408  0.243  0.017 -0.044 -0.074 -0.074
 0.760  1.408  0.245  0.018 -0.041 -0.072 -0.072
 0.762  1.409  0.248  0.020 -0.040 -0.071 -0.071
 0.764  1.409  0.250  0.022 -0.037 -0.070 -0.070
 0.766  1.410  0.252  0.024 -0.035 -0.068 -0.068
 0.768  1.410  0.253  0.026 -0.033 -0.067 -0.067
 0.770  1.411  0.256  0.028 -0.030 -0.065 -0.065
 0.772  1.412  0.258  0.030 -0.028 -0.063 -0.063
 0.774  1.412  0.261  0.033 -0.026 -0.062 -0.062
 0.776  1.413  0.263  0.036 -0.023 -0.060 -0.060
 0.778  1.415  0.266  0.038 -0.021 -0.058 -0.058
 0.780  1.416  0.269  0.040 -0.019 -0.056 -0.056
 0.782  1.418  0.271  0.043 -0.017 -0.054 -0.054
 0.784  1.418  0.274  0.046 -0.014 -0.051 -0.051
 0.786  1.420  0.277  0.049 -0.012 -0.050 -0.050
 0.788  1.422  0.280  0.051 -0.009 -0.047 -0.047
 0.790  1.423  0.283  0.054 -0.007 -0.045 -0.045
 0.792  1.425  0.285  0.057 -0.004 -0.044 -0.044
 0.794  1.427  0.288  0.060 -0.002 -0.041 -0.041
 0.796  1.429  0.291  0.062 -0.000 -0.040 -0.040
 0.798  1.431  0.294  0.065  0.002 -0.038 -0.038
 0.800  1.434  0.297  0.068  0.004 -0.035 -0.035
 0.802  1.436  0.299  0.071  0.007 -0.034 -0.034
 0.804  1.438  0.302  0.073  0.008 -0.032 -0.032
 0.806  1.440  0.305  0.075  0.010 -0.030 -0.030
 0.808  1.444  0.308  0.077  0.013 -0.029 -0.029
